3996.30549 1.03825
3994.25716 1.04034
3992.20882 1.04217
3990.16048 1.04343
3988.11215 1.04440
3986.06381 1.04577
3984.01547 1.04743
3981.96713 1.04874
3979.91880 1.04954
3977.87046 1.05000
3975.82212 1.05050
3973.77379 1.05094
3971.72545 1.05103
3969.67711 1.05067
3967.62878 1.04936
3965.58044 1.04721
3963.53210 1.04505
3961.48376 1.04364
3959.43543 1.04224
3957.38709 1.03988
3955.33875 1.03660
3953.29042 1.03270
3951.24208 1.02891
3949.19374 1.02611
3947.14541 1.02321
3945.09707 1.01879
3943.04873 1.01421
3941.00039 1.01009
3938.95206 1.00523
3936.90372 0.99972
3934.85538 0.99436
3932.80705 0.99040
3930.75871 0.98843
3928.71037 0.98545
3926.66204 0.98088
3924.61370 0.97764
3922.56536 0.97506
3920.51702 0.97114
3918.46869 0.96853
3916.42035 0.96834
3914.37201 0.96688
3912.32368 0.96378
3910.27534 0.96129
3908.22700 0.95903
3906.17867 0.95700
3904.13033 0.95845
3902.08199 0.96218
3900.03365 0.96360
3897.98532 0.96285
3895.93698 0.95936
3893.88864 0.95518
3891.84031 0.95553
3889.79197 0.95735
3887.74363 0.95384
3885.69530 0.95187
3883.64696 0.95376
3881.59862 0.95369
3879.55028 0.95480
3877.50195 0.95362
3875.45361 0.95010
3873.40527 0.94942
3871.35694 0.95032
3869.30860 0.95304
3867.26026 0.95353
3865.21193 0.95180
3863.16359 0.95411
3861.11525 0.95455
3859.06691 0.95038
3857.01858 0.94506
3854.97024 0.94151
3852.92190 0.95095
3850.87357 0.95931
3848.82523 0.95515
3846.77689 0.94932
3844.72856 0.94588
3842.68022 0.94554
3840.63188 0.94663
3838.58354 0.95024
3836.53521 0.95430
3834.48687 0.95318
3832.43853 0.95084
3830.39020 0.94951
3828.34186 0.94821
3826.29352 0.94788
3824.24519 0.94624
3822.19685 0.94433
3820.14851 0.94992
3818.10017 0.95233
3816.05184 0.95199
3814.00350 0.95326
3811.95516 0.95043
3809.90683 0.94596
3807.85849 0.94490
3805.81015 0.94833
3803.76182 0.94844
3801.71348 0.95001
3799.66514 0.95501
3797.61680 0.95387
3795.56847 0.95239
3793.52013 0.95138
3791.47179 0.94941
3789.42346 0.94827
3787.37512 0.94801
3785.32678 0.94914
3783.27845 0.95025
3781.23011 0.94952
3779.18177 0.95110
3777.13343 0.95378
3775.08510 0.95281
3773.03676 0.95033
3770.98842 0.94991
3768.94009 0.95312
3766.89175 0.95506
3764.84341 0.95501
3762.79508 0.95359
3760.74674 0.95176
3758.69840 0.95447
3756.65006 0.95739
3754.60173 0.95477
3752.55339 0.95178
3750.50505 0.95889
3748.45672 0.96583
3746.40838 0.96271
3744.36004 0.96436
3742.31171 0.96963
3740.26337 0.96752
3738.21503 0.96295
3736.16669 0.96352
3734.11836 0.97222
3732.07002 0.97752
3730.02168 0.97629
3727.97335 0.97363
3725.92501 0.97372
3723.87667 0.97621
3721.82834 0.97801
3719.78000 0.97865
3717.73166 0.97742
3715.68332 0.97447
3713.63499 0.97140
3711.58665 0.97402
3709.53831 0.98114
3707.48998 0.98115
3705.44164 0.97770
3703.39330 0.97548
3701.34497 0.97729
3699.29663 0.97905
3697.24829 0.97802
3695.19995 0.97687
3693.15162 0.97597
3691.10328 0.97685
3689.05494 0.98432
3687.00661 0.98991
3684.95827 0.98865
3682.90993 0.98626
3680.86160 0.98522
3678.81326 0.98493
3676.76492 0.98659
3674.71658 0.99506
3672.66825 0.99767
3670.61991 0.99733
3668.57157 1.00295
3666.52324 1.00413
3664.47490 1.00243
3662.42656 1.00283
3660.37823 1.00435
3658.32989 1.00573
3656.28155 1.01000
3654.23321 1.01422
3652.18488 1.01360
3650.13654 1.01628
3648.08820 1.03126
3646.03987 1.03807
3643.99153 1.03775
3641.94319 1.03812
3639.89486 1.04038
3637.84652 1.04334
3635.79818 1.04699
3633.74984 1.05114
3631.70151 1.05366
3629.65317 1.05790
3627.60483 1.06869
3625.55650 1.07229
3623.50816 1.07136
3621.45982 1.07192
3619.41149 1.07665
3617.36315 1.08277
3615.31481 1.08530
3613.26647 1.08748
3611.21814 1.08983
3609.16980 1.09161
3607.12146 1.09345
3605.07313 1.09256
3603.02479 1.09005
3600.97645 1.08883
3598.92812 1.08789
3596.87978 1.08579
3594.83144 1.08410
3592.78310 1.08295
3590.73477 1.08082
3588.68643 1.07936
3586.63809 1.08038
3584.58976 1.07950
3582.54142 1.07695
3580.49308 1.07519
3578.44475 1.07426
3576.39641 1.07383
3574.34807 1.07353
3572.29973 1.07259
3570.25140 1.07121
3568.20306 1.07149
3566.15472 1.07533
3564.10639 1.07684
3562.05805 1.07534
3560.00971 1.07423
3557.96138 1.07375
3555.91304 1.07343
3553.86470 1.07395
3551.81636 1.07521
3549.76803 1.07583
3547.71969 1.07682
3545.67135 1.07947
3543.62302 1.08096
3541.57468 1.08006
3539.52634 1.07907
3537.47801 1.07954
3535.42967 1.08082
3533.38133 1.08157
3531.33299 1.08245
3529.28466 1.08428
3527.23632 1.08626
3525.18798 1.08763
3523.13965 1.08859
3521.09131 1.08903
3519.04297 1.08951
3516.99464 1.09058
3514.94630 1.09142
3512.89796 1.09194
3510.84962 1.09324
3508.80129 1.09519
3506.75295 1.09613
3504.70461 1.09680
3502.65628 1.09882
3500.60794 1.10054
3498.55960 1.10094
3496.51127 1.10140
3494.46293 1.10225
3492.41459 1.10271
3490.36625 1.10311
3488.31792 1.10421
3486.26958 1.10557
3484.22124 1.10636
3482.17291 1.10736
3480.12457 1.10909
3478.07623 1.11023
3476.02789 1.11067
3473.97956 1.11128
3471.93122 1.11225
3469.88288 1.11340
3467.83455 1.11425
3465.78621 1.11441
3463.73787 1.11469
3461.68954 1.11584
3459.64120 1.11694
3457.59286 1.11735
3455.54452 1.11749
3453.49619 1.11775
3451.44785 1.11823
3449.39951 1.11923
3447.35118 1.12092
3445.30284 1.12199
3443.25450 1.12192
3441.20617 1.12201
3439.15783 1.12262
3437.10949 1.12324
3435.06115 1.12391
3433.01282 1.12481
3430.96448 1.12551
3428.91614 1.12561
3426.86781 1.12539
3424.81947 1.12533
3422.77113 1.12550
3420.72280 1.12578
3418.67446 1.12628
3416.62612 1.12674
3414.57778 1.12685
3412.52945 1.12685
3410.48111 1.12685
3408.43277 1.12674
3406.38444 1.12673
3404.33610 1.12698
3402.28776 1.12718
3400.23943 1.12718
3398.19109 1.12710
3396.14275 1.12721
3394.09441 1.12726
3392.04608 1.12678
3389.99774 1.12603
3387.94940 1.12564
3385.90107 1.12554
3383.85273 1.12539
3381.80439 1.12533
3379.75606 1.12536
3377.70772 1.12524
3375.65938 1.12512
3373.61104 1.12536
3371.56271 1.12591
3369.51437 1.12629
3367.46603 1.12627
3365.41770 1.12593
3363.36936 1.12534
3361.32102 1.12481
3359.27269 1.12433
3357.22435 1.12375
3355.17601 1.12320
3353.12767 1.12293
3351.07934 1.12292
3349.03100 1.12268
3346.98266 1.12248
3344.93433 1.12255
3342.88599 1.12235
3340.83765 1.12170
3338.78932 1.12103
3336.74098 1.12044
3334.69264 1.11992
3332.64430 1.11961
3330.59597 1.11928
3328.54763 1.11884
3326.49929 1.11857
3324.45096 1.11871
3322.40262 1.11915
3320.35428 1.11932
3318.30595 1.11911
3316.25761 1.11911
3314.20927 1.11947
3312.16093 1.11985
3310.11260 1.12026
3308.06426 1.12083
3306.01592 1.12159
3303.96759 1.12234
3301.91925 1.12287
3299.87091 1.12352
3297.82258 1.12467
3295.77424 1.12593
3293.72590 1.12686
3291.67756 1.12724
3289.62923 1.12697
3287.58089 1.12678
3285.53255 1.12710
3283.48422 1.12712
3281.43588 1.12655
3279.38754 1.12616
3277.33921 1.12602
3275.29087 1.12574
3273.24253 1.12566
3271.19419 1.12582
3269.14586 1.12612
3267.09752 1.12681
3265.04918 1.12779
3263.00085 1.12888
3260.95251 1.13009
3258.90417 1.13142
3256.85584 1.13292
3254.80750 1.13462
3252.75916 1.13601
3250.71082 1.13685
3248.66249 1.13752
3246.61415 1.13790
3244.56581 1.13786
3242.51748 1.13762
3240.46914 1.13688
3238.42080 1.13555
3236.37247 1.13441
3234.32413 1.13330
3232.27579 1.13159
3230.22745 1.12974
3228.17912 1.12802
3226.13078 1.12633
3224.08244 1.12494
3222.03411 1.12381
3219.98577 1.12269
3217.93743 1.12188
3215.88910 1.12150
3213.84076 1.12118
3211.79242 1.12064
3209.74408 1.11993
3207.69575 1.11890
3205.64741 1.11784
3203.59907 1.11719
3201.55074 1.11668
3199.50240 1.11622
3197.45406 1.11608
3195.40573 1.11619
3193.35739 1.11618
3191.30905 1.11580
3189.26071 1.11494
3187.21238 1.11371
3185.16404 1.11243
3183.11570 1.11138
3181.06737 1.11004
3179.01903 1.10796
3176.97069 1.10530
3174.92236 1.10208
3172.87402 1.09872
3170.82568 1.09602
3168.77734 1.09412
3166.72901 1.09268
3164.68067 1.09141
3162.63233 1.09026
3160.58400 1.08928
3158.53566 1.08850
3156.48732 1.08786
3154.43899 1.08734
3152.39065 1.08704
3150.34231 1.08666
3148.29397 1.08626
3146.24564 1.08626
3144.19730 1.08644
3142.14896 1.08666
3140.10063 1.08693
3138.05229 1.08706
3136.00395 1.08697
3133.95562 1.08687
3131.90728 1.08720
3129.85894 1.08793
3127.81060 1.08872
3125.76227 1.08966
3123.71393 1.09063
3121.66559 1.09134
3119.61726 1.09209
3117.56892 1.09296
3115.52058 1.09349
3113.47225 1.09364
3111.42391 1.09401
3109.37557 1.09492
3107.32723 1.09599
3105.27890 1.09706
3103.23056 1.09833
3101.18222 1.09990
3099.13389 1.10144
3097.08555 1.10281
3095.03721 1.10450
3092.98888 1.10675
3090.94054 1.10934
3088.89220 1.11198
3086.84386 1.11437
3084.79553 1.11665
3082.74719 1.11938
3080.69885 1.12265
3078.65052 1.12601
3076.60218 1.12892
3074.55384 1.13157
3072.50551 1.13490
3070.45717 1.13919
3068.40883 1.14407
3066.36049 1.14933
3064.31216 1.15439
3062.26382 1.15916
3060.21548 1.16447
3058.16715 1.17076
3056.11881 1.17797
3054.07047 1.18585
3052.02214 1.19426
3049.97380 1.20370
3047.92546 1.21484
3045.87712 1.22831
3043.82879 1.24484
3041.78045 1.26528
3039.73211 1.29104
3037.68378 1.32462
3035.63544 1.36932
3033.58710 1.42649
3031.53877 1.49234
3029.49043 1.55640
3027.44209 1.60758
3025.39375 1.64228
3023.34542 1.66211
3021.29708 1.67111
3019.24874 1.67206
3017.20041 1.66582
3015.15207 1.65493
3013.10373 1.64250
3011.05540 1.63040
3009.00706 1.62031
3006.95872 1.61352
3004.91038 1.60975
3002.86205 1.60774
3000.81371 1.60706
2998.76537 1.60767
2996.71704 1.60832
2994.66870 1.60762
2992.62036 1.60599
2990.57203 1.60354
2988.52369 1.59916
2986.47535 1.59260
2984.42701 1.58464
2982.37868 1.57607
2980.33034 1.56786
2978.28200 1.56015
2976.23367 1.55178
2974.18533 1.54250
2972.13699 1.53323
2970.08866 1.52405
2968.04032 1.51467
2965.99198 1.50623
2963.94364 1.49975
2961.89531 1.49588
2959.84697 1.49644
2957.79863 1.50285
2955.75030 1.51351
2953.70196 1.52391
2951.65362 1.53124
2949.60529 1.53632
2947.55695 1.54081
2945.50861 1.54569
2943.46027 1.55111
2941.41194 1.55690
2939.36360 1.56249
2937.31526 1.56743
2935.26693 1.57277
2933.21859 1.57877
2931.17025 1.58430
2929.12192 1.58991
2927.07358 1.59649
2925.02524 1.60241
2922.97690 1.60735
2920.92857 1.61398
2918.88023 1.62343
2916.83189 1.63476
2914.78356 1.64756
2912.73522 1.66337
2910.68688 1.68369
2908.63855 1.70679
2906.59021 1.72951
2904.54187 1.74977
2902.49353 1.76572
2900.44520 1.77601
2898.39686 1.78187
2896.34852 1.78373
2894.30019 1.78088
2892.25185 1.77516
2890.20351 1.76780
2888.15517 1.75925
2886.10684 1.75051
2884.05850 1.74085
2882.01016 1.72938
2879.96183 1.71688
2877.91349 1.70443
2875.86515 1.69219
2873.81682 1.67907
2871.76848 1.66378
2869.72014 1.64659
2867.67180 1.62869
2865.62347 1.60921
2863.57513 1.58570
2861.52679 1.55720
2859.47846 1.52534
2857.43012 1.49241
2855.38178 1.45925
2853.33345 1.42623
2851.28511 1.39364
2849.23677 1.36147
2847.18843 1.33011
2845.14010 1.30050
2843.09176 1.27340
2841.04342 1.24885
2838.99509 1.22686
2836.94675 1.20729
2834.89841 1.18990
2832.85008 1.17498
2830.80174 1.16267
2828.75340 1.15285
2826.70506 1.14598
2824.65673 1.14249
2822.60839 1.14234
2820.56005 1.14503
2818.51172 1.14783
2816.46338 1.14606
2814.41504 1.13765
2812.36671 1.12486
2810.31837 1.11096
2808.27003 1.09822
2806.22169 1.08782
2804.17336 1.07969
2802.12502 1.07325
2800.07668 1.06796
2798.02835 1.06338
2795.98001 1.05958
2793.93167 1.05663
2791.88334 1.05424
2789.83500 1.05216
2787.78666 1.05026
2785.73832 1.04879
2783.68999 1.04804
2781.64165 1.04764
2779.59331 1.04707
2777.54498 1.04643
2775.49664 1.04595
2773.44830 1.04550
2771.39997 1.04496
2769.35163 1.04426
2767.30329 1.04345
2765.25495 1.04279
2763.20662 1.04236
2761.15828 1.04221
2759.10994 1.04223
2757.06161 1.04200
2755.01327 1.04155
2752.96493 1.04142
2750.91660 1.04173
2748.86826 1.04215
2746.81992 1.04235
2744.77158 1.04243
2742.72325 1.04286
2740.67491 1.04367
2738.62657 1.04449
2736.57824 1.04531
2734.52990 1.04603
2732.48156 1.04661
2730.43323 1.04730
2728.38489 1.04815
2726.33655 1.04913
2724.28821 1.05036
2722.23988 1.05199
2720.19154 1.05382
2718.14320 1.05550
2716.09487 1.05717
2714.04653 1.05935
2711.99819 1.06239
2709.94986 1.06605
2707.90152 1.06966
2705.85318 1.07310
2703.80484 1.07676
2701.75651 1.08097
2699.70817 1.08560
2697.65983 1.09006
2695.61150 1.09411
2693.56316 1.09801
2691.51482 1.10196
2689.46649 1.10588
2687.41815 1.10995
2685.36981 1.11480
2683.32147 1.12049
2681.27314 1.12665
2679.22480 1.13358
2677.17646 1.14225
2675.12813 1.15348
2673.07979 1.16781
2671.03145 1.18567
2668.98312 1.20730
2666.93478 1.23230
2664.88644 1.25964
2662.83810 1.28822
2660.78977 1.31690
2658.74143 1.34470
2656.69309 1.37142
2654.64476 1.39744
2652.59642 1.42278
2650.54808 1.44761
2648.49975 1.47236
2646.45141 1.49713
2644.40307 1.52209
2642.35473 1.54727
2640.30640 1.57293
2638.25806 1.59912
2636.20972 1.62431
2634.16139 1.64733
2632.11305 1.66795
2630.06471 1.68482
2628.01638 1.69518
2625.96804 1.69521
2623.91970 1.68374
2621.87136 1.66420
2619.82303 1.64009
2617.77469 1.61413
2615.72635 1.58893
2613.67802 1.56554
2611.62968 1.54443
2609.58134 1.52646
2607.53301 1.51195
2605.48467 1.50075
2603.43633 1.49447
2601.38799 1.49662
2599.33966 1.51017
2597.29132 1.53533
2595.24298 1.56874
2593.19465 1.60546
2591.14631 1.64042
2589.09797 1.66885
2587.04964 1.68954
2585.00130 1.70439
2582.95296 1.71530
2580.90462 1.72452
2578.85629 1.73371
2576.80795 1.74228
2574.75961 1.74921
2572.71128 1.75345
2570.66294 1.75542
2568.61460 1.75932
2566.56627 1.76919
2564.51793 1.78558
2562.46959 1.80683
2560.42125 1.83165
2558.37292 1.85931
2556.32458 1.88690
2554.27624 1.91056
2552.22791 1.92799
2550.17957 1.93895
2548.13123 1.94692
2546.08290 1.95579
2544.03456 1.96374
2541.98622 1.96873
2539.93788 1.97493
2537.88955 1.98485
2535.84121 1.99441
2533.79287 1.99978
2531.74454 2.00151
2529.69620 2.00241
2527.64786 2.00373
2525.59953 2.00444
2523.55119 2.00338
2521.50285 1.99691
2519.45451 1.98003
2517.40618 1.95173
2515.35784 1.91292
2513.30950 1.86547
2511.26117 1.81422
2509.21283 1.76549
2507.16449 1.72226
2505.11616 1.68308
2503.06782 1.64649
2501.01948 1.61193
2498.97114 1.57794
2496.92281 1.54320
2494.87447 1.50835
2492.82613 1.47503
2490.77780 1.44413
2488.72946 1.41546
2486.68112 1.38894
2484.63279 1.36457
2482.58445 1.34205
2480.53611 1.32169
2478.48777 1.30335
2476.43944 1.28611
2474.39110 1.26972
2472.34276 1.25471
2470.29443 1.24126
2468.24609 1.22886
2466.19775 1.21734
2464.14942 1.20706
2462.10108 1.19762
2460.05274 1.18815
2458.00440 1.17842
2455.95607 1.16887
2453.90773 1.16001
2451.85939 1.15204
2449.81106 1.14489
2447.76272 1.13841
2445.71438 1.13247
2443.66605 1.12688
2441.61771 1.12162
2439.56937 1.11679
2437.52103 1.11250
2435.47270 1.10878
2433.42436 1.10528
2431.37602 1.10191
2429.32769 1.09929
2427.27935 1.09764
2425.23101 1.09640
2423.18268 1.09517
2421.13434 1.09409
2419.08600 1.09324
2417.03766 1.09271
2414.98933 1.09242
2412.94099 1.09214
2410.89265 1.09131
2408.84432 1.08900
2406.79598 1.08518
2404.74764 1.08084
2402.69931 1.07701
2400.65097 1.07417
2398.60263 1.07202
2396.55429 1.06977
2394.50596 1.06725
2392.45762 1.06476
2390.40928 1.06237
2388.36095 1.06042
2386.31261 1.05947
2384.26427 1.05981
2382.21594 1.06154
2380.16760 1.06481
2378.11926 1.06969
2376.07092 1.07614
2374.02259 1.08351
2371.97425 1.09044
2369.92591 1.09610
2367.87758 1.10062
2365.82924 1.10416
2363.78090 1.10620
2361.73257 1.10653
2359.68423 1.10704
2357.63589 1.10853
2355.58755 1.10815
2353.53922 1.10556
2351.49088 1.10200
2349.44254 1.09785
2347.39421 1.09537
2345.34587 1.09847
2343.29753 1.10762
2341.24920 1.11487
2339.20086 1.11749
2337.15252 1.11858
2335.10418 1.11862
2333.05585 1.11761
2331.00751 1.11736
2328.95917 1.11731
2326.91084 1.11580
2324.86250 1.11329
2322.81416 1.11107
2320.76582 1.10912
2318.71749 1.10613
2316.66915 1.10192
2314.62081 1.09714
2312.57248 1.09239
2310.52414 1.08753
2308.47580 1.08182
2306.42747 1.07520
2304.37913 1.06779
2302.33079 1.05976
2300.28245 1.05169
2298.23412 1.04465
2296.18578 1.03992
2294.13744 1.03766
2292.08911 1.03705
2290.04077 1.03784
2287.99243 1.03978
2285.94410 1.04192
2283.89576 1.04414
2281.84742 1.04720
2279.79908 1.05130
2277.75075 1.05588
2275.70241 1.06040
2273.65407 1.06488
2271.60574 1.06989
2269.55740 1.07579
2267.50906 1.08221
2265.46073 1.08859
2263.41239 1.09476
2261.36405 1.10063
2259.31571 1.10587
2257.26738 1.11025
2255.21904 1.11335
2253.17070 1.11496
2251.12237 1.11513
2249.07403 1.11349
2247.02569 1.10982
2244.97736 1.10459
2242.92902 1.09846
2240.88068 1.09188
2238.83234 1.08534
2236.78401 1.07929
2234.73567 1.07427
2232.68733 1.07062
2230.63900 1.06817
2228.59066 1.06701
2226.54232 1.06755
2224.49399 1.06964
2222.44565 1.07346
2220.39731 1.07953
2218.34897 1.08727
2216.30064 1.09532
2214.25230 1.10244
2212.20396 1.10820
2210.15563 1.11292
2208.10729 1.11693
2206.05895 1.12050
2204.01062 1.12395
2201.96228 1.12756
2199.91394 1.13167
2197.86560 1.13655
2195.81727 1.14215
2193.76893 1.14832
2191.72059 1.15521
2189.67226 1.16281
2187.62392 1.17067
2185.57558 1.17853
2183.52725 1.18689
2181.47891 1.19627
2179.43057 1.20608
2177.38223 1.21568
2175.33390 1.22531
2173.28556 1.23485
2171.23722 1.24306
2169.18889 1.24869
2167.14055 1.25179
2165.09221 1.25299
2163.04388 1.25283
2160.99554 1.25186
2158.94720 1.25045
2156.89886 1.24861
2154.85053 1.24594
2152.80219 1.24200
2150.75385 1.23641
2148.70552 1.22859
2146.65718 1.21809
2144.60884 1.20473
2142.56051 1.18863
2140.51217 1.17066
2138.46383 1.15228
2136.41549 1.13506
2134.36716 1.12008
2132.31882 1.10757
2130.27048 1.09703
2128.22215 1.08813
2126.17381 1.08088
2124.12547 1.07482
2122.07714 1.06966
2120.02880 1.06535
2117.98046 1.06175
2115.93212 1.05877
2113.88379 1.05617
2111.83545 1.05377
2109.78711 1.05168
2107.73878 1.04999
2105.69044 1.04851
2103.64210 1.04705
2101.59377 1.04560
2099.54543 1.04434
2097.49709 1.04333
2095.44875 1.04242
2093.40042 1.04156
2091.35208 1.04085
2089.30374 1.04036
2087.25541 1.04000
2085.20707 1.03988
2083.15873 1.03991
2081.11040 1.03963
2079.06206 1.03897
2077.01372 1.03832
2074.96538 1.03794
2072.91705 1.03769
2070.86871 1.03727
2068.82037 1.03684
2066.77204 1.03714
2064.72370 1.03795
2062.67536 1.03821
2060.62703 1.03812
2058.57869 1.03828
2056.53035 1.03856
2054.48201 1.03883
2052.43368 1.03910
2050.38534 1.03938
2048.33700 1.03967
2046.28867 1.04002
2044.24033 1.04046
2042.19199 1.04095
2040.14366 1.04149
2038.09532 1.04197
2036.04698 1.04249
2033.99864 1.04326
2031.95031 1.04406
2029.90197 1.04473
2027.85363 1.04560
2025.80530 1.04680
2023.75696 1.04810
2021.70862 1.04924
2019.66029 1.05021
2017.61195 1.05139
2015.56361 1.05226
2013.51527 1.05249
2011.46694 1.05278
2009.41860 1.05357
2007.37026 1.05473
2005.32193 1.05596
2003.27359 1.05709
2001.22525 1.05805
1999.17692 1.05918
1997.12858 1.06054
1995.08024 1.06200
1993.03190 1.06474
1990.98357 1.06938
1988.93523 1.07461
1986.88689 1.08064
1984.83856 1.08829
1982.79022 1.09858
1980.74188 1.11307
1978.69355 1.13115
1976.64521 1.14889
1974.59687 1.15888
1972.54853 1.15531
1970.50020 1.14143
1968.45186 1.12650
1966.40352 1.11595
1964.35519 1.10953
1962.30685 1.10571
1960.25851 1.10415
1958.21018 1.10421
1956.16184 1.10521
1954.11350 1.10685
1952.06516 1.10869
1950.01683 1.11082
1947.96849 1.11306
1945.92015 1.11533
1943.87182 1.11865
1941.82348 1.12355
1939.77514 1.12750
1937.72681 1.13036
1935.67847 1.13428
1933.63013 1.13914
1931.58179 1.14424
1929.53346 1.14931
1927.48512 1.15421
1925.43678 1.15889
1923.38845 1.16490
1921.34011 1.17118
1919.29177 1.17647
1917.24344 1.18333
1915.19510 1.19012
1913.14676 1.19544
1911.09842 1.20150
1909.05009 1.20949
1907.00175 1.21810
1904.95341 1.22627
1902.90508 1.23441
1900.85674 1.24302
1898.80840 1.25182
1896.76007 1.26127
1894.71173 1.27183
1892.66339 1.28133
1890.61505 1.29053
1888.56672 1.30114
1886.51838 1.30986
1884.47004 1.31662
1882.42171 1.32342
1880.37337 1.32960
1878.32503 1.33529
1876.27670 1.34107
1874.22836 1.34726
1872.18002 1.35361
1870.13168 1.36255
1868.08335 1.37722
1866.03501 1.39041
1863.98667 1.40007
1861.93834 1.41178
1859.89000 1.42692
1857.84166 1.44330
1855.79333 1.46120
1853.74499 1.48233
1851.69665 1.50659
1849.64831 1.53332
1847.59998 1.56302
1845.55164 1.59963
1843.50330 1.64997
1841.45497 1.70014
1839.40663 1.74905
1837.35829 1.81251
1835.30996 1.88842
1833.26162 1.96458
1831.21328 2.05038
1829.16494 2.16335
1827.11661 2.26145
1825.06827 2.32688
1823.01993 2.37334
1820.97160 2.39841
1818.92326 2.40829
1816.87492 2.40930
1814.82659 2.40616
1812.77825 2.39625
1810.72991 2.37005
1808.68157 2.33110
1806.63324 2.28954
1804.58490 2.24983
1802.53656 2.21386
1800.48823 2.17824
1798.43989 2.14614
1796.39155 2.12087
1794.34322 2.09862
1792.29488 2.07185
1790.24654 2.04347
1788.19820 2.02335
1786.14987 2.00831
1784.10153 1.99547
1782.05319 1.98465
1780.00486 1.97495
1777.95652 1.96617
1775.90818 1.95901
1773.85985 1.95372
1771.81151 1.94808
1769.76317 1.94222
1767.71483 1.93673
1765.66650 1.93106
1763.61816 1.92741
1761.56982 1.92625
1759.52149 1.92736
1757.47315 1.93087
1755.42481 1.93442
1753.37648 1.93623
1751.32814 1.94097
1749.27980 1.95278
1747.23146 1.96503
1745.18313 1.97358
1743.13479 1.98074
1741.08645 1.98793
1739.03812 1.99492
1736.98978 1.99939
1734.94144 2.00389
1732.89310 2.01401
1730.84477 2.02285
1728.79643 2.02854
1726.74809 2.03296
1724.69976 2.03821
1722.65142 2.04456
1720.60308 2.04998
1718.55475 2.05694
1716.50641 2.06755
1714.45807 2.07210
1712.40973 2.07494
1710.36140 2.08180
1708.31306 2.09119
1706.26472 2.10386
1704.21639 2.11932
1702.16805 2.13508
1700.11971 2.16019
1698.07138 2.18061
1696.02304 2.18264
1693.97470 2.18493
1691.92636 2.19239
1689.87803 2.20758
1687.82969 2.22810
1685.78135 2.25526
1683.73302 2.29965
1681.68468 2.31735
1679.63634 2.31616
1677.58801 2.31700
1675.53967 2.32576
1673.49133 2.34264
1671.44299 2.35928
1669.39466 2.37765
1667.34632 2.39243
1665.29798 2.40633
1663.24965 2.42899
1661.20131 2.45071
1659.15297 2.46277
1657.10464 2.47569
1655.05630 2.49592
1653.00796 2.51872
1650.95962 2.52287
1648.91129 2.53050
1646.86295 2.54391
1644.81461 2.54090
1642.76628 2.53029
1640.71794 2.52491
1638.66960 2.52288
1636.62127 2.51186
1634.57293 2.47600
1632.52459 2.44628
1630.47625 2.42153
1628.42792 2.38973
1626.37958 2.35548
1624.33124 2.32422
1622.28291 2.29000
1620.23457 2.26324
1618.18623 2.23738
1616.13790 2.19711
1614.08956 2.16813
1612.04122 2.15045
1609.99288 2.12891
1607.94455 2.09905
1605.89621 2.06592
1603.84787 2.03091
1601.79954 1.99062
1599.75120 1.94795
1597.70286 1.90719
1595.65453 1.86376
1593.60619 1.81310
1591.55785 1.75828
1589.50951 1.70210
1587.46118 1.64754
1585.41284 1.59534
1583.36450 1.54470
1581.31617 1.49799
1579.26783 1.45936
1577.21949 1.41441
1575.17116 1.35412
1573.12282 1.31811
1571.07448 1.29633
1569.02614 1.27572
1566.97781 1.26453
1564.92947 1.26059
1562.88113 1.25867
1560.83280 1.25837
1558.78446 1.26169
1556.73612 1.26530
1554.68779 1.26579
1552.63945 1.26731
1550.59111 1.27084
1548.54277 1.27548
1546.49444 1.28048
1544.44610 1.28762
1542.39776 1.29755
1540.34943 1.30768
1538.30109 1.31311
1536.25275 1.31533
1534.20442 1.31994
1532.15608 1.32759
1530.10774 1.33379
1528.05940 1.33997
1526.01107 1.34806
1523.96273 1.35560
1521.91439 1.36378
1519.86606 1.37170
1517.81772 1.37744
1515.76938 1.38396
1513.72105 1.39052
1511.67271 1.39826
1509.62437 1.40689
1507.57603 1.41818
1505.52770 1.43129
1503.47936 1.43744
1501.43102 1.44350
1499.38269 1.45213
1497.33435 1.46374
1495.28601 1.47395
1493.23768 1.48002
1491.18934 1.48652
1489.14100 1.49517
1487.09266 1.49964
1485.04433 1.50149
1482.99599 1.50405
1480.94765 1.50768
1478.89932 1.51156
1476.85098 1.51578
1474.80264 1.52093
1472.75431 1.52632
1470.70597 1.53021
1468.65763 1.53266
1466.60929 1.53607
1464.56096 1.54173
1462.51262 1.54699
1460.46428 1.55080
1458.41595 1.55682
1456.36761 1.56637
1454.31927 1.57005
1452.27094 1.57198
1450.22260 1.57487
1448.17426 1.57847
1446.12592 1.58176
1444.07759 1.58430
1442.02925 1.58631
1439.98091 1.58756
1437.93258 1.58779
1435.88424 1.58750
1433.83590 1.58717
1431.78757 1.58715
1429.73923 1.58772
1427.69089 1.58862
1425.64255 1.59158
1423.59422 1.59894
1421.54588 1.61055
1419.49754 1.63410
1417.44921 1.67264
1415.40087 1.70293
1413.35253 1.72638
1411.30420 1.74562
1409.25586 1.75774
1407.20752 1.76618
1405.15918 1.77525
1403.11085 1.78202
1401.06251 1.78586
1399.01417 1.79066
1396.96584 1.79690
1394.91750 1.80239
1392.86916 1.80517
1390.82083 1.80655
1388.77249 1.80800
1386.72415 1.80823
1384.67581 1.80641
1382.62748 1.80511
1380.57914 1.80487
1378.53080 1.80445
1376.48247 1.80255
1374.43413 1.79855
1372.38579 1.79229
1370.33746 1.78455
1368.28912 1.77642
1366.24078 1.77056
1364.19244 1.76607
1362.14411 1.75790
1360.09577 1.74904
1358.04743 1.74474
1355.99910 1.74421
1353.95076 1.74405
1351.90242 1.74103
1349.85409 1.73555
1347.80575 1.73008
1345.75741 1.72625
1343.70907 1.72426
1341.66074 1.72342
1339.61240 1.72177
1337.56406 1.71716
1335.51573 1.70951
1333.46739 1.69872
1331.41905 1.68532
1329.37072 1.67176
1327.32238 1.66073
1325.27404 1.65423
1323.22570 1.65250
1321.17737 1.65279
1319.12903 1.65179
1317.08069 1.64954
1315.03236 1.64809
1312.98402 1.64704
1310.93568 1.64493
1308.88735 1.64268
1306.83901 1.64198
1304.79067 1.64310
1302.74233 1.64596
1300.69400 1.64935
1298.64566 1.65170
1296.59732 1.65158
1294.54899 1.64762
1292.50065 1.64177
1290.45231 1.63648
1288.40398 1.63110
1286.35564 1.62408
1284.30730 1.61501
1282.25896 1.60455
1280.21063 1.59339
1278.16229 1.58243
1276.11395 1.57402
1274.06562 1.57077
1272.01728 1.57318
1269.96894 1.57984
1267.92061 1.58896
1265.87227 1.59826
1263.82393 1.60473
1261.77559 1.60702
1259.72726 1.60611
1257.67892 1.60338
1255.63058 1.59997
1253.58225 1.59747
1251.53391 1.59702
1249.48557 1.59807
1247.43724 1.59971
1245.38890 1.60184
1243.34056 1.60478
1241.29222 1.60852
1239.24389 1.61333
1237.19555 1.62043
1235.14721 1.62934
1233.09888 1.63736
1231.05054 1.64261
1229.00220 1.64361
1226.95387 1.63835
1224.90553 1.62628
1222.85719 1.60956
1220.80885 1.59149
1218.76052 1.57519
1216.71218 1.56323
1214.66384 1.55570
1212.61551 1.55098
1210.56717 1.54782
1208.51883 1.54585
1206.47050 1.54590
1204.42216 1.54878
1202.37382 1.55443
1200.32548 1.56297
1198.27715 1.57354
1196.22881 1.58420
1194.18047 1.59241
1192.13214 1.59581
1190.08380 1.59469
1188.03546 1.59058
1185.98713 1.58429
1183.93879 1.57662
1181.89045 1.56746
1179.84211 1.55632
1177.79378 1.54429
1175.74544 1.53364
1173.69710 1.52556
1171.64877 1.51946
1169.60043 1.51382
1167.55209 1.50698
1165.50376 1.49833
1163.45542 1.48847
1161.40708 1.47916
1159.35874 1.47286
1157.31041 1.47113
1155.26207 1.47353
1153.21373 1.47800
1151.16540 1.48301
1149.11706 1.48763
1147.06872 1.49053
1145.02038 1.49046
1142.97205 1.48640
1140.92371 1.47886
1138.87537 1.47084
1136.82704 1.46537
1134.77870 1.46397
1132.73036 1.46626
1130.68203 1.47018
1128.63369 1.47496
1126.58535 1.48021
1124.53701 1.48353
1122.48868 1.48433
1120.44034 1.48414
1118.39200 1.48261
1116.34367 1.47794
1114.29533 1.47023
1112.24699 1.46282
1110.19866 1.45995
1108.15032 1.46450
1106.10198 1.47897
1104.05364 1.50673
1102.00531 1.54690
1099.95697 1.58071
1097.90863 1.57984
1095.86030 1.54797
1093.81196 1.51409
1091.76362 1.49356
1089.71529 1.48529
1087.66695 1.48093
1085.61861 1.47361
1083.57027 1.46538
1081.52194 1.46157
1079.47360 1.46341
1077.42526 1.46795
1075.37693 1.47089
1073.32859 1.47057
1071.28025 1.46715
1069.23192 1.46018
1067.18358 1.45075
1065.13524 1.44226
1063.08690 1.43678
1061.03857 1.43326
1058.99023 1.42962
1056.94189 1.42491
1054.89356 1.42040
1052.84522 1.41910
1050.79688 1.42331
1048.74855 1.43331
1046.70021 1.44627
1044.65187 1.45642
1042.60353 1.46102
1040.55520 1.46251
1038.50686 1.46322
1036.45852 1.46393
1034.41019 1.46469
1032.36185 1.46492
1030.31351 1.46450
1028.26518 1.46372
1026.21684 1.46194
1024.16850 1.45682
1022.12016 1.44655
1020.07183 1.43327
1018.02349 1.42166
1015.97515 1.41385
1013.92682 1.40860
1011.87848 1.40456
1009.83014 1.40030
1007.78181 1.39428
1005.73347 1.38707
1003.68513 1.38031
1001.63679 1.37512
999.58846 1.37271
997.54012 1.37370
995.49178 1.37696
993.44345 1.38009
991.39511 1.38048
989.34677 1.37771
987.29844 1.37433
985.25010 1.37208
983.20176 1.37002
981.15342 1.36706
979.10509 1.36379
977.05675 1.36126
975.00841 1.35978
972.96008 1.35864
970.91174 1.35649
968.86340 1.35302
966.81507 1.34901
964.76673 1.34544
962.71839 1.34319
960.67005 1.34222
958.62172 1.34256
956.57338 1.34529
954.52504 1.35069
952.47671 1.35686
950.42837 1.36123
948.38003 1.36228
946.33170 1.36077
944.28336 1.35885
942.23502 1.35721
940.18668 1.35571
938.13835 1.35530
936.09001 1.35684
934.04167 1.35984
931.99334 1.36352
929.94500 1.36844
927.89666 1.37464
925.84833 1.37956
923.79999 1.38135
921.75165 1.38169
919.70331 1.38386
917.65498 1.38860
915.60664 1.39336
913.55830 1.39688
911.50997 1.39998
909.46163 1.40237
907.41329 1.40267
905.36496 1.39773
903.31662 1.38158
901.26828 1.35059
899.21994 1.31392
897.17161 1.29659
895.12327 1.31882
893.07493 1.37677
891.02660 1.45203
888.97826 1.52990
886.92992 1.60289
884.88159 1.67053
882.83325 1.73744
880.78491 1.80366
878.73657 1.86281
876.68824 1.90435
874.63990 1.91150
872.59156 1.87746
870.54323 1.81715
868.49489 1.75139
866.44655 1.69366
864.39822 1.64507
862.34988 1.59986
860.30154 1.56244
858.25320 1.55125
856.20487 1.59193
854.15653 1.67271
852.10819 1.69041
850.05986 1.60067
848.01152 1.49215
845.96318 1.41146
843.91485 1.36271
841.86651 1.33796
839.81817 1.32608
837.76983 1.31861
835.72150 1.31242
833.67316 1.30778
831.62482 1.30483
829.57649 1.30519
827.52815 1.30922
825.47981 1.31474
823.43148 1.31958
821.38314 1.32220
819.33480 1.32338
817.28646 1.32440
815.23813 1.32476
813.18979 1.32528
811.14145 1.32682
809.09312 1.32869
807.04478 1.33017
804.99644 1.33048
802.94811 1.32983
800.89977 1.32826
798.85143 1.32606
796.80309 1.32493
794.75476 1.32493
792.70642 1.32341
790.65808 1.31887
788.60975 1.31302
786.56141 1.30862
784.51307 1.30696
782.46474 1.30771
780.41640 1.30980
778.36806 1.31199
776.31972 1.31446
774.27139 1.31825
772.22305 1.32413
770.17471 1.33267
768.12638 1.34334
766.07804 1.35552
764.02970 1.36954
761.98137 1.38660
759.93303 1.40857
757.88469 1.43602
755.83635 1.46607
753.78802 1.49742
751.73968 1.53687
749.69134 1.58964
747.64301 1.65037
745.59467 1.71519
743.54633 1.79014
741.49800 1.88200
739.44966 1.99948
737.40132 2.15995
735.35298 2.36827
733.30465 2.54547
731.25631 2.52575
729.20797 2.38853
727.15964 2.28592
725.11130 2.21686
723.06296 2.14540
721.01463 2.06932
718.96629 2.00242
716.91795 1.94608
714.86961 1.89327
712.82128 1.84717
710.77294 1.80842
708.72460 1.77203
706.67627 1.73867
704.62793 1.70717
702.57959 1.67779
700.53126 1.65620
698.48292 1.64414
696.43458 1.63831
694.38624 1.63544
692.33791 1.63299
690.28957 1.62915
688.24123 1.62696
686.19290 1.62954
684.14456 1.63183
682.09622 1.63106
680.04789 1.62924
677.99955 1.62575
675.95121 1.62584
673.90287 1.63282
671.85454 1.64224
669.80620 1.65364
667.75786 1.66440
665.70953 1.66925
663.66119 1.67622
661.61285 1.68651
659.56452 1.70006
657.51618 1.71781
655.46784 1.73197
653.41950 1.73663
651.37117 1.74032
649.32283 1.75270
647.27449 1.75955
645.22616 1.75253
643.17782 1.75473
641.12948 1.75935
639.08115 1.74665
637.03281 1.73006
634.98447 1.71868
632.93613 1.71631
630.88780 1.71893
628.83946 1.71883
626.79112 1.72891
624.74279 1.75038
622.69445 1.75950
620.64611 1.75519
618.59778 1.76686
616.54944 1.79675
614.50110 1.79834
612.45276 1.76713
610.40443 1.75497
608.35609 1.78388
606.30775 1.83104
604.25942 1.86676
602.21108 1.90094
600.16274 1.95708
598.11441 2.01089
