3996.30549 1.01274
3994.25716 1.01415
3992.20882 1.01559
3990.16048 1.01707
3988.11215 1.01806
3986.06381 1.01858
3984.01547 1.01939
3981.96713 1.02071
3979.91880 1.02219
3977.87046 1.02327
3975.82212 1.02395
3973.77379 1.02458
3971.72545 1.02487
3969.67711 1.02445
3967.62878 1.02311
3965.58044 1.02096
3963.53210 1.01881
3961.48376 1.01733
3959.43543 1.01570
3957.38709 1.01330
3955.33875 1.01028
3953.29042 1.00669
3951.24208 1.00314
3949.19374 1.00017
3947.14541 0.99696
3945.09707 0.99285
3943.04873 0.98899
3941.00039 0.98510
3938.95206 0.97980
3936.90372 0.97382
3934.85538 0.96833
3932.80705 0.96438
3930.75871 0.96217
3928.71037 0.95884
3926.66204 0.95406
3924.61370 0.95086
3922.56536 0.94850
3920.51702 0.94469
3918.46869 0.94221
3916.42035 0.94232
3914.37201 0.94102
3912.32368 0.93767
3910.27534 0.93449
3908.22700 0.93120
3906.17867 0.92826
3904.13033 0.92955
3902.08199 0.93369
3900.03365 0.93599
3897.98532 0.93618
3895.93698 0.93245
3893.88864 0.92715
3891.84031 0.92677
3889.79197 0.92893
3887.74363 0.92583
3885.69530 0.92456
3883.64696 0.92700
3881.59862 0.92648
3879.55028 0.92772
3877.50195 0.92651
3875.45361 0.92201
3873.40527 0.92054
3871.35694 0.92188
3869.30860 0.92608
3867.26026 0.92683
3865.21193 0.92410
3863.16359 0.92626
3861.11525 0.92742
3859.06691 0.92321
3857.01858 0.91682
3854.97024 0.91239
3852.92190 0.92447
3850.87357 0.93528
3848.82523 0.93054
3846.77689 0.92336
3844.72856 0.91885
3842.68022 0.91843
3840.63188 0.91978
3838.58354 0.92366
3836.53521 0.92856
3834.48687 0.92771
3832.43853 0.92548
3830.39020 0.92444
3828.34186 0.92246
3826.29352 0.92083
3824.24519 0.91827
3822.19685 0.91615
3820.14851 0.92359
3818.10017 0.92763
3816.05184 0.92749
3814.00350 0.92831
3811.95516 0.92452
3809.90683 0.91896
3807.85849 0.91743
3805.81015 0.92142
3803.76182 0.92105
3801.71348 0.92217
3799.66514 0.92863
3797.61680 0.92818
3795.56847 0.92684
3793.52013 0.92574
3791.47179 0.92330
3789.42346 0.92179
3787.37512 0.92137
3785.32678 0.92254
3783.27845 0.92360
3781.23011 0.92226
3779.18177 0.92366
3777.13343 0.92643
3775.08510 0.92481
3773.03676 0.92160
3770.98842 0.92123
3768.94009 0.92533
3766.89175 0.92788
3764.84341 0.92817
3762.79508 0.92633
3760.74674 0.92344
3758.69840 0.92588
3756.65006 0.92898
3754.60173 0.92565
3752.55339 0.92140
3750.50505 0.92912
3748.45672 0.93822
3746.40838 0.93575
3744.36004 0.93774
3742.31171 0.94268
3740.26337 0.93949
3738.21503 0.93420
3736.16669 0.93581
3734.11836 0.94685
3732.07002 0.95220
3730.02168 0.94958
3727.97335 0.94579
3725.92501 0.94572
3723.87667 0.94869
3721.82834 0.95027
3719.78000 0.95043
3717.73166 0.94921
3715.68332 0.94620
3713.63499 0.94284
3711.58665 0.94621
3709.53831 0.95496
3707.48998 0.95514
3705.44164 0.95099
3703.39330 0.94791
3701.34497 0.94932
3699.29663 0.95134
3697.24829 0.95072
3695.19995 0.94957
3693.15162 0.94809
3691.10328 0.94881
3689.05494 0.95729
3687.00661 0.96276
3684.95827 0.96037
3682.90993 0.95731
3680.86160 0.95619
3678.81326 0.95595
3676.76492 0.95767
3674.71658 0.96722
3672.66825 0.97037
3670.61991 0.96985
3668.57157 0.97600
3666.52324 0.97726
3664.47490 0.97483
3662.42656 0.97466
3660.37823 0.97619
3658.32989 0.97748
3656.28155 0.98141
3654.23321 0.98519
3652.18488 0.98363
3650.13654 0.98563
3648.08820 1.00151
3646.03987 1.00815
3643.99153 1.00704
3641.94319 1.00715
3639.89486 1.00952
3637.84652 1.01203
3635.79818 1.01437
3633.74984 1.01747
3631.70151 1.01982
3629.65317 1.02429
3627.60483 1.03559
3625.55650 1.03937
3623.50816 1.03786
3621.45982 1.03729
3619.41149 1.04110
3617.36315 1.04711
3615.31481 1.04918
3613.26647 1.05022
3611.21814 1.05157
3609.16980 1.05323
3607.12146 1.05552
3605.07313 1.05487
3603.02479 1.05235
3600.97645 1.05122
3598.92812 1.05039
3596.87978 1.04816
3594.83144 1.04673
3592.78310 1.04589
3590.73477 1.04312
3588.68643 1.04113
3586.63809 1.04332
3584.58976 1.04341
3582.54142 1.04041
3580.49308 1.03834
3578.44475 1.03776
3576.39641 1.03736
3574.34807 1.03655
3572.29973 1.03524
3570.25140 1.03365
3568.20306 1.03405
3566.15472 1.03857
3564.10639 1.04004
3562.05805 1.03802
3560.00971 1.03684
3557.96138 1.03660
3555.91304 1.03621
3553.86470 1.03632
3551.81636 1.03759
3549.76803 1.03855
3547.71969 1.03917
3545.67135 1.04105
3543.62302 1.04269
3541.57468 1.04250
3539.52634 1.04176
3537.47801 1.04199
3535.42967 1.04311
3533.38133 1.04361
3531.33299 1.04377
3529.28466 1.04491
3527.23632 1.04712
3525.18798 1.04922
3523.13965 1.05075
3521.09131 1.05163
3519.04297 1.05191
3516.99464 1.05234
3514.94630 1.05340
3512.89796 1.05480
3510.84962 1.05624
3508.80129 1.05784
3506.75295 1.05890
3504.70461 1.05966
3502.65628 1.06117
3500.60794 1.06195
3498.55960 1.06153
3496.51127 1.06163
3494.46293 1.06252
3492.41459 1.06329
3490.36625 1.06412
3488.31792 1.06563
3486.26958 1.06686
3484.22124 1.06712
3482.17291 1.06794
3480.12457 1.06934
3478.07623 1.06981
3476.02789 1.07010
3473.97956 1.07067
3471.93122 1.07104
3469.88288 1.07151
3467.83455 1.07234
3465.78621 1.07322
3463.73787 1.07399
3461.68954 1.07471
3459.64120 1.07532
3457.59286 1.07589
3455.54452 1.07662
3453.49619 1.07737
3451.44785 1.07773
3449.39951 1.07789
3447.35118 1.07861
3445.30284 1.07968
3443.25450 1.08021
3441.20617 1.08032
3439.15783 1.08055
3437.10949 1.08134
3435.06115 1.08210
3433.01282 1.08251
3430.96448 1.08301
3428.91614 1.08356
3426.86781 1.08421
3424.81947 1.08472
3422.77113 1.08503
3420.72280 1.08554
3418.67446 1.08589
3416.62612 1.08566
3414.57778 1.08568
3412.52945 1.08650
3410.48111 1.08715
3408.43277 1.08706
3406.38444 1.08672
3404.33610 1.08649
3402.28776 1.08650
3400.23943 1.08664
3398.19109 1.08689
3396.14275 1.08711
3394.09441 1.08691
3392.04608 1.08659
3389.99774 1.08627
3387.94940 1.08575
3385.90107 1.08547
3383.85273 1.08536
3381.80439 1.08514
3379.75606 1.08490
3377.70772 1.08479
3375.65938 1.08469
3373.61104 1.08441
3371.56271 1.08412
3369.51437 1.08410
3367.46603 1.08412
3365.41770 1.08410
3363.36936 1.08424
3361.32102 1.08420
3359.27269 1.08387
3357.22435 1.08362
3355.17601 1.08340
3353.12767 1.08302
3351.07934 1.08267
3349.03100 1.08258
3346.98266 1.08283
3344.93433 1.08312
3342.88599 1.08300
3340.83765 1.08258
3338.78932 1.08216
3336.74098 1.08156
3334.69264 1.08053
3332.64430 1.07954
3330.59597 1.07939
3328.54763 1.07976
3326.49929 1.08010
3324.45096 1.08081
3322.40262 1.08152
3320.35428 1.08160
3318.30595 1.08139
3316.25761 1.08115
3314.20927 1.08135
3312.16093 1.08217
3310.11260 1.08303
3308.06426 1.08367
3306.01592 1.08424
3303.96759 1.08499
3301.91925 1.08574
3299.87091 1.08608
3297.82258 1.08634
3295.77424 1.08684
3293.72590 1.08748
3291.67756 1.08842
3289.62923 1.08936
3287.58089 1.08968
3285.53255 1.08937
3283.48422 1.08900
3281.43588 1.08888
3279.38754 1.08890
3277.33921 1.08932
3275.29087 1.08999
3273.24253 1.09030
3271.19419 1.09026
3269.14586 1.09015
3267.09752 1.09013
3265.04918 1.09043
3263.00085 1.09120
3260.95251 1.09210
3258.90417 1.09296
3256.85584 1.09395
3254.80750 1.09490
3252.75916 1.09576
3250.71082 1.09657
3248.66249 1.09706
3246.61415 1.09741
3244.56581 1.09787
3242.51748 1.09807
3240.46914 1.09763
3238.42080 1.09653
3236.37247 1.09518
3234.32413 1.09388
3232.27579 1.09245
3230.22745 1.09081
3228.17912 1.08918
3226.13078 1.08771
3224.08244 1.08651
3222.03411 1.08561
3219.98577 1.08495
3217.93743 1.08432
3215.88910 1.08363
3213.84076 1.08304
3211.79242 1.08253
3209.74408 1.08206
3207.69575 1.08163
3205.64741 1.08095
3203.59907 1.08020
3201.55074 1.07994
3199.50240 1.08008
3197.45406 1.08024
3195.40573 1.08008
3193.35739 1.07941
3191.30905 1.07850
3189.26071 1.07769
3187.21238 1.07690
3185.16404 1.07584
3183.11570 1.07459
3181.06737 1.07300
3179.01903 1.07096
3176.97069 1.06862
3174.92236 1.06608
3172.87402 1.06362
3170.82568 1.06139
3168.77734 1.05967
3166.72901 1.05844
3164.68067 1.05724
3162.63233 1.05629
3160.58400 1.05578
3158.53566 1.05533
3156.48732 1.05493
3154.43899 1.05454
3152.39065 1.05394
3150.34231 1.05351
3148.29397 1.05349
3146.24564 1.05360
3144.19730 1.05361
3142.14896 1.05350
3140.10063 1.05342
3138.05229 1.05334
3136.00395 1.05320
3133.95562 1.05337
3131.90728 1.05400
3129.85894 1.05462
3127.81060 1.05518
3125.76227 1.05569
3123.71393 1.05611
3121.66559 1.05679
3119.61726 1.05764
3117.56892 1.05854
3115.52058 1.05949
3113.47225 1.06015
3111.42391 1.06077
3109.37557 1.06169
3107.32723 1.06270
3105.27890 1.06390
3103.23056 1.06540
3101.18222 1.06678
3099.13389 1.06789
3097.08555 1.06932
3095.03721 1.07136
3092.98888 1.07333
3090.94054 1.07481
3088.89220 1.07637
3086.84386 1.07860
3084.79553 1.08123
3082.74719 1.08366
3080.69885 1.08594
3078.65052 1.08847
3076.60218 1.09131
3074.55384 1.09443
3072.50551 1.09791
3070.45717 1.10167
3068.40883 1.10572
3066.36049 1.11017
3064.31216 1.11461
3062.26382 1.11889
3060.21548 1.12368
3058.16715 1.12921
3056.11881 1.13542
3054.07047 1.14227
3052.02214 1.14956
3049.97380 1.15766
3047.92546 1.16710
3045.87712 1.17851
3043.82879 1.19268
3041.78045 1.20985
3039.73211 1.23125
3037.68378 1.25959
3035.63544 1.29773
3033.58710 1.34738
3031.53877 1.40628
3029.49043 1.46562
3027.44209 1.51544
3025.39375 1.55192
3023.34542 1.57511
3021.29708 1.58613
3019.24874 1.58700
3017.20041 1.58088
3015.15207 1.56981
3013.10373 1.55573
3011.05540 1.54291
3009.00706 1.53357
3006.95872 1.52673
3004.91038 1.52169
3002.86205 1.51847
3000.81371 1.51745
2998.76537 1.51844
2996.71704 1.51951
2994.66870 1.51937
2992.62036 1.51877
2990.57203 1.51659
2988.52369 1.51100
2986.47535 1.50338
2984.42701 1.49580
2982.37868 1.48879
2980.33034 1.48167
2978.28200 1.47331
2976.23367 1.46417
2974.18533 1.45538
2972.13699 1.44702
2970.08866 1.43865
2968.04032 1.43067
2965.99198 1.42384
2963.94364 1.41840
2961.89531 1.41504
2959.84697 1.41494
2957.79863 1.41933
2955.75030 1.42817
2953.70196 1.43851
2951.65362 1.44676
2949.60529 1.45177
2947.55695 1.45495
2945.50861 1.45857
2943.46027 1.46345
2941.41194 1.46912
2939.36360 1.47542
2937.31526 1.48180
2935.26693 1.48768
2933.21859 1.49325
2931.17025 1.49874
2929.12192 1.50432
2927.07358 1.51039
2925.02524 1.51760
2922.97690 1.52552
2920.92857 1.53328
2918.88023 1.54123
2916.83189 1.55120
2914.78356 1.56464
2912.73522 1.58140
2910.68688 1.60163
2908.63855 1.62462
2906.59021 1.64821
2904.54187 1.67127
2902.49353 1.69207
2900.44520 1.70729
2898.39686 1.71561
2896.34852 1.71731
2894.30019 1.71363
2892.25185 1.70749
2890.20351 1.70040
2888.15517 1.69214
2886.10684 1.68299
2884.05850 1.67274
2882.01016 1.66037
2879.96183 1.64602
2877.91349 1.63136
2875.86515 1.61660
2873.81682 1.60060
2871.76848 1.58413
2869.72014 1.56731
2867.67180 1.54849
2865.62347 1.52720
2863.57513 1.50331
2861.52679 1.47632
2859.47846 1.44643
2857.43012 1.41510
2855.38178 1.38436
2853.33345 1.35494
2851.28511 1.32632
2849.23677 1.29785
2847.18843 1.26976
2845.14010 1.24340
2843.09176 1.21949
2841.04342 1.19812
2838.99509 1.17938
2836.94675 1.16290
2834.89841 1.14814
2832.85008 1.13484
2830.80174 1.12344
2828.75340 1.11451
2826.70506 1.10824
2824.65673 1.10478
2822.60839 1.10449
2820.56005 1.10686
2818.51172 1.10931
2816.46338 1.10791
2814.41504 1.10050
2812.36671 1.08883
2810.31837 1.07627
2808.27003 1.06474
2806.22169 1.05494
2804.17336 1.04721
2802.12502 1.04137
2800.07668 1.03680
2798.02835 1.03311
2795.98001 1.02997
2793.93167 1.02712
2791.88334 1.02466
2789.83500 1.02262
2787.78666 1.02070
2785.73832 1.01893
2783.68999 1.01764
2781.64165 1.01672
2779.59331 1.01592
2777.54498 1.01548
2775.49664 1.01562
2773.44830 1.01571
2771.39997 1.01519
2769.35163 1.01438
2767.30329 1.01354
2765.25495 1.01260
2763.20662 1.01163
2761.15828 1.01101
2759.10994 1.01075
2757.06161 1.01054
2755.01327 1.01046
2752.96493 1.01048
2750.91660 1.01043
2748.86826 1.01045
2746.81992 1.01049
2744.77158 1.01043
2742.72325 1.01064
2740.67491 1.01140
2738.62657 1.01230
2736.57824 1.01296
2734.52990 1.01370
2732.48156 1.01489
2730.43323 1.01618
2728.38489 1.01713
2726.33655 1.01779
2724.28821 1.01855
2722.23988 1.01981
2720.19154 1.02182
2718.14320 1.02433
2716.09487 1.02682
2714.04653 1.02911
2711.99819 1.03142
2709.94986 1.03429
2707.90152 1.03770
2705.85318 1.04112
2703.80484 1.04486
2701.75651 1.04919
2699.70817 1.05351
2697.65983 1.05725
2695.61150 1.06053
2693.56316 1.06385
2691.51482 1.06741
2689.46649 1.07118
2687.41815 1.07524
2685.36981 1.07969
2683.32147 1.08469
2681.27314 1.09045
2679.22480 1.09703
2677.17646 1.10482
2675.12813 1.11452
2673.07979 1.12681
2671.03145 1.14218
2668.98312 1.16064
2666.93478 1.18166
2664.88644 1.20450
2662.83810 1.22831
2660.78977 1.25231
2658.74143 1.27597
2656.69309 1.29881
2654.64476 1.32086
2652.59642 1.34264
2650.54808 1.36460
2648.49975 1.38652
2646.45141 1.40812
2644.40307 1.43026
2642.35473 1.45365
2640.30640 1.47862
2638.25806 1.50489
2636.20972 1.53067
2634.16139 1.55457
2632.11305 1.57669
2630.06471 1.59539
2628.01638 1.60666
2625.96804 1.60700
2623.91970 1.59536
2621.87136 1.57463
2619.82303 1.55002
2617.77469 1.52501
2615.72635 1.50114
2613.67802 1.47878
2611.62968 1.45808
2609.58134 1.44039
2607.53301 1.42660
2605.48467 1.41658
2603.43633 1.41125
2601.38799 1.41304
2599.33966 1.42424
2597.29132 1.44577
2595.24298 1.47622
2593.19465 1.51147
2591.14631 1.54600
2589.09797 1.57532
2587.04964 1.59820
2585.00130 1.61559
2582.95296 1.62904
2580.90462 1.64055
2578.85629 1.65154
2576.80795 1.66128
2574.75961 1.66858
2572.71128 1.67352
2570.66294 1.67702
2568.61460 1.68240
2566.56627 1.69323
2564.51793 1.71094
2562.46959 1.73532
2560.42125 1.76453
2558.37292 1.79706
2556.32458 1.83113
2554.27624 1.86200
2552.22791 1.88430
2550.17957 1.89878
2548.13123 1.91040
2546.08290 1.92070
2544.03456 1.92997
2541.98622 1.94007
2539.93788 1.95074
2537.88955 1.95994
2535.84121 1.96676
2533.79287 1.97174
2531.74454 1.97697
2529.69620 1.98305
2527.64786 1.98699
2525.59953 1.98718
2523.55119 1.98479
2521.50285 1.97859
2519.45451 1.96246
2517.40618 1.92979
2515.35784 1.87995
2513.30950 1.82017
2511.26117 1.75972
2509.21283 1.70354
2507.16449 1.65281
2505.11616 1.60736
2503.06782 1.56606
2501.01948 1.52807
2498.97114 1.49281
2496.92281 1.45926
2494.87447 1.42705
2492.82613 1.39651
2490.77780 1.36823
2488.72946 1.34268
2486.68112 1.31996
2484.63279 1.29935
2482.58445 1.28013
2480.53611 1.26257
2478.48777 1.24668
2476.43944 1.23193
2474.39110 1.21814
2472.34276 1.20550
2470.29443 1.19410
2468.24609 1.18360
2466.19775 1.17360
2464.14942 1.16385
2462.10108 1.15450
2460.05274 1.14589
2458.00440 1.13788
2455.95607 1.13013
2453.90773 1.12246
2451.85939 1.11502
2449.81106 1.10811
2447.76272 1.10192
2445.71438 1.09642
2443.66605 1.09139
2441.61771 1.08679
2439.56937 1.08274
2437.52103 1.07939
2435.47270 1.07645
2433.42436 1.07358
2431.37602 1.07097
2429.32769 1.06887
2427.27935 1.06721
2425.23101 1.06583
2423.18268 1.06475
2421.13434 1.06407
2419.08600 1.06366
2417.03766 1.06312
2414.98933 1.06232
2412.94099 1.06164
2410.89265 1.06105
2408.84432 1.05945
2406.79598 1.05628
2404.74764 1.05245
2402.69931 1.04881
2400.65097 1.04556
2398.60263 1.04270
2396.55429 1.04013
2394.50596 1.03762
2392.45762 1.03509
2390.40928 1.03295
2388.36095 1.03149
2386.31261 1.03071
2384.26427 1.03085
2382.21594 1.03234
2380.16760 1.03563
2378.11926 1.04091
2376.07092 1.04778
2374.02259 1.05524
2371.97425 1.06228
2369.92591 1.06819
2367.87758 1.07233
2365.82924 1.07560
2363.78090 1.07990
2361.73257 1.08380
2359.68423 1.08544
2357.63589 1.08526
2355.58755 1.08338
2353.53922 1.07997
2351.49088 1.07456
2349.44254 1.06902
2347.39421 1.06673
2345.34587 1.07075
2343.29753 1.07960
2341.24920 1.08563
2339.20086 1.08768
2337.15252 1.08842
2335.10418 1.08904
2333.05585 1.08903
2331.00751 1.08856
2328.95917 1.08802
2326.91084 1.08645
2324.86250 1.08352
2322.81416 1.08003
2320.76582 1.07656
2318.71749 1.07278
2316.66915 1.06832
2314.62081 1.06369
2312.57248 1.05956
2310.52414 1.05543
2308.47580 1.05038
2306.42747 1.04450
2304.37913 1.03761
2302.33079 1.02930
2300.28245 1.02051
2298.23412 1.01292
2296.18578 1.00752
2294.13744 1.00459
2292.08911 1.00402
2290.04077 1.00544
2287.99243 1.00788
2285.94410 1.01025
2283.89576 1.01275
2281.84742 1.01615
2279.79908 1.02031
2277.75075 1.02467
2275.70241 1.02898
2273.65407 1.03323
2271.60574 1.03761
2269.55740 1.04247
2267.50906 1.04787
2265.46073 1.05353
2263.41239 1.05908
2261.36405 1.06435
2259.31571 1.06929
2257.26738 1.07356
2255.21904 1.07658
2253.17070 1.07825
2251.12237 1.07854
2249.07403 1.07696
2247.02569 1.07336
2244.97736 1.06799
2242.92902 1.06144
2240.88068 1.05473
2238.83234 1.04860
2236.78401 1.04313
2234.73567 1.03843
2232.68733 1.03483
2230.63900 1.03250
2228.59066 1.03154
2226.54232 1.03220
2224.49399 1.03464
2222.44565 1.03892
2220.39731 1.04480
2218.34897 1.05166
2216.30064 1.05874
2214.25230 1.06529
2212.20396 1.07107
2210.15563 1.07606
2208.10729 1.08014
2206.05895 1.08370
2204.01062 1.08744
2201.96228 1.09156
2199.91394 1.09595
2197.86560 1.10068
2195.81727 1.10584
2193.76893 1.11130
2191.72059 1.11700
2189.67226 1.12309
2187.62392 1.12949
2185.57558 1.13615
2183.52725 1.14340
2181.47891 1.15157
2179.43057 1.16050
2177.38223 1.16962
2175.33390 1.17840
2173.28556 1.18649
2171.23722 1.19360
2169.18889 1.19896
2167.14055 1.20193
2165.09221 1.20319
2163.04388 1.20351
2160.99554 1.20299
2158.94720 1.20179
2156.89886 1.20017
2154.85053 1.19804
2152.80219 1.19480
2150.75385 1.18979
2148.70552 1.18281
2146.65718 1.17359
2144.60884 1.16163
2142.56051 1.14678
2140.51217 1.13007
2138.46383 1.11330
2136.41549 1.09767
2134.36716 1.08358
2132.31882 1.07118
2130.27048 1.06063
2128.22215 1.05196
2126.17381 1.04506
2124.12547 1.03937
2122.07714 1.03430
2120.02880 1.02979
2117.98046 1.02585
2115.93212 1.02222
2113.88379 1.01869
2111.83545 1.01553
2109.78711 1.01312
2107.73878 1.01103
2105.69044 1.00888
2103.64210 1.00717
2101.59377 1.00597
2099.54543 1.00498
2097.49709 1.00433
2095.44875 1.00395
2093.40042 1.00328
2091.35208 1.00257
2089.30374 1.00254
2087.25541 1.00288
2085.20707 1.00304
2083.15873 1.00302
2081.11040 1.00280
2079.06206 1.00234
2077.01372 1.00202
2074.96538 1.00182
2072.91705 1.00123
2070.86871 1.00058
2068.82037 1.00047
2066.77204 1.00091
2064.72370 1.00148
2062.67536 1.00166
2060.62703 1.00150
2058.57869 1.00118
2056.53035 1.00062
2054.48201 1.00018
2052.43368 1.00029
2050.38534 1.00075
2048.33700 1.00117
2046.28867 1.00173
2044.24033 1.00273
2042.19199 1.00391
2040.14366 1.00488
2038.09532 1.00548
2036.04698 1.00584
2033.99864 1.00604
2031.95031 1.00618
2029.90197 1.00637
2027.85363 1.00672
2025.80530 1.00746
2023.75696 1.00847
2021.70862 1.00950
2019.66029 1.01054
2017.61195 1.01205
2015.56361 1.01339
2013.51527 1.01371
2011.46694 1.01385
2009.41860 1.01446
2007.37026 1.01528
2005.32193 1.01643
2003.27359 1.01807
2001.22525 1.01976
1999.17692 1.02122
1997.12858 1.02254
1995.08024 1.02393
1993.03190 1.02631
1990.98357 1.03022
1988.93523 1.03468
1986.88689 1.04011
1984.83856 1.04785
1982.79022 1.05900
1980.74188 1.07440
1978.69355 1.09304
1976.64521 1.11100
1974.59687 1.12091
1972.54853 1.11741
1970.50020 1.10379
1968.45186 1.08861
1966.40352 1.07738
1964.35519 1.07054
1962.30685 1.06657
1960.25851 1.06493
1958.21018 1.06513
1956.16184 1.06665
1954.11350 1.06897
1952.06516 1.07113
1950.01683 1.07316
1947.96849 1.07545
1945.92015 1.07793
1943.87182 1.08085
1941.82348 1.08470
1939.77514 1.08813
1937.72681 1.09119
1935.67847 1.09492
1933.63013 1.09897
1931.58179 1.10342
1929.53346 1.10829
1927.48512 1.11312
1925.43678 1.11764
1923.38845 1.12348
1921.34011 1.12950
1919.29177 1.13408
1917.24344 1.13998
1915.19510 1.14631
1913.14676 1.15178
1911.09842 1.15842
1909.05009 1.16713
1907.00175 1.17584
1904.95341 1.18364
1902.90508 1.19145
1900.85674 1.19936
1898.80840 1.20725
1896.76007 1.21594
1894.71173 1.22545
1892.66339 1.23365
1890.61505 1.24174
1888.56672 1.25136
1886.51838 1.25914
1884.47004 1.26479
1882.42171 1.27040
1880.37337 1.27603
1878.32503 1.28201
1876.27670 1.28832
1874.22836 1.29466
1872.18002 1.30080
1870.13168 1.30920
1868.08335 1.32248
1866.03501 1.33463
1863.98667 1.34440
1861.93834 1.35562
1859.89000 1.36920
1857.84166 1.38447
1855.79333 1.40137
1853.74499 1.42002
1851.69665 1.44044
1849.64831 1.46307
1847.59998 1.48934
1845.55164 1.52279
1843.50330 1.56860
1841.45497 1.61395
1839.40663 1.65767
1837.35829 1.71387
1835.30996 1.78328
1833.26162 1.85776
1831.21328 1.94633
1829.16494 2.06677
1827.11661 2.17702
1825.06827 2.25982
1823.01993 2.32376
1820.97160 2.35831
1818.92326 2.37689
1816.87492 2.38525
1814.82659 2.38081
1812.77825 2.36234
1810.72991 2.32308
1808.68157 2.27182
1806.63324 2.22422
1804.58490 2.18019
1802.53656 2.13406
1800.48823 2.08537
1798.43989 2.04399
1796.39155 2.01199
1794.34322 1.98395
1792.29488 1.95284
1790.24654 1.92521
1788.19820 1.90830
1786.14987 1.89466
1784.10153 1.88217
1782.05319 1.87193
1780.00486 1.86254
1777.95652 1.85588
1775.90818 1.85200
1773.85985 1.84862
1771.81151 1.84407
1769.76317 1.83684
1767.71483 1.82891
1765.66650 1.82341
1763.61816 1.82058
1761.56982 1.81976
1759.52149 1.82186
1757.47315 1.82532
1755.42481 1.82844
1753.37648 1.83130
1751.32814 1.83745
1749.27980 1.84741
1747.23146 1.85438
1745.18313 1.86035
1743.13479 1.86867
1741.08645 1.87730
1739.03812 1.88422
1736.98978 1.88926
1734.94144 1.89416
1732.89310 1.89931
1730.84477 1.90224
1728.79643 1.90518
1726.74809 1.90895
1724.69976 1.91517
1722.65142 1.92265
1720.60308 1.92758
1718.55475 1.93353
1716.50641 1.94477
1714.45807 1.95055
1712.40973 1.95340
1710.36140 1.95825
1708.31306 1.96552
1706.26472 1.97701
1704.21639 1.98657
1702.16805 1.98862
1700.11971 1.99754
1698.07138 2.01875
1696.02304 2.03114
1693.97470 2.03588
1691.92636 2.04206
1689.87803 2.05237
1687.82969 2.06446
1685.78135 2.07800
1683.73302 2.09773
1681.68468 2.11336
1679.63634 2.12466
1677.58801 2.13602
1675.53967 2.15139
1673.49133 2.16869
1671.44299 2.18521
1669.39466 2.20488
1667.34632 2.21502
1665.29798 2.21962
1663.24965 2.23147
1661.20131 2.24762
1659.15297 2.25737
1657.10464 2.26491
1655.05630 2.27608
1653.00796 2.29688
1650.95962 2.30961
1648.91129 2.31869
1646.86295 2.33149
1644.81461 2.33502
1642.76628 2.33612
1640.71794 2.33826
1638.66960 2.33976
1636.62127 2.33627
1634.57293 2.30518
1632.52459 2.27239
1630.47625 2.25006
1628.42792 2.23255
1626.37958 2.21864
1624.33124 2.20320
1622.28291 2.18526
1620.23457 2.17450
1618.18623 2.16574
1616.13790 2.14855
1614.08956 2.13631
1612.04122 2.13281
1609.99288 2.12846
1607.94455 2.11587
1605.89621 2.09719
1603.84787 2.07507
1601.79954 2.04641
1599.75120 2.01330
1597.70286 1.97951
1595.65453 1.94007
1593.60619 1.89198
1591.55785 1.84053
1589.50951 1.78891
1587.46118 1.73977
1585.41284 1.69465
1583.36450 1.65367
1581.31617 1.61832
1579.26783 1.59048
1577.21949 1.56029
1575.17116 1.52236
1573.12282 1.50115
1571.07448 1.49143
1569.02614 1.48687
1566.97781 1.48763
1564.92947 1.49178
1562.88113 1.49686
1560.83280 1.50163
1558.78446 1.51341
1556.73612 1.52591
1554.68779 1.53095
1552.63945 1.53603
1550.59111 1.54220
1548.54277 1.54911
1546.49444 1.55513
1544.44610 1.56224
1542.39776 1.57228
1540.34943 1.58552
1538.30109 1.59222
1536.25275 1.59257
1534.20442 1.59594
1532.15608 1.60331
1530.10774 1.60928
1528.05940 1.61600
1526.01107 1.62542
1523.96273 1.63454
1521.91439 1.64472
1519.86606 1.65262
1517.81772 1.65817
1515.76938 1.66550
1513.72105 1.67152
1511.67271 1.67903
1509.62437 1.68965
1507.57603 1.70365
1505.52770 1.71509
1503.47936 1.71881
1501.43102 1.72321
1499.38269 1.73031
1497.33435 1.73926
1495.28601 1.74528
1493.23768 1.74823
1491.18934 1.75306
1489.14100 1.76088
1487.09266 1.76430
1485.04433 1.76453
1482.99599 1.76568
1480.94765 1.76924
1478.89932 1.77393
1476.85098 1.77787
1474.80264 1.78173
1472.75431 1.78573
1470.70597 1.78673
1468.65763 1.78635
1466.60929 1.78821
1464.56096 1.79331
1462.51262 1.79791
1460.46428 1.80102
1458.41595 1.80524
1456.36761 1.80998
1454.31927 1.81117
1452.27094 1.81236
1450.22260 1.81461
1448.17426 1.81691
1446.12592 1.81791
1444.07759 1.81761
1442.02925 1.81650
1439.98091 1.81498
1437.93258 1.81248
1435.88424 1.80884
1433.83590 1.80589
1431.78757 1.80321
1429.73923 1.80018
1427.69089 1.79756
1425.64255 1.79677
1423.59422 1.80040
1421.54588 1.81086
1419.49754 1.83438
1417.44921 1.87111
1415.40087 1.89956
1413.35253 1.92264
1411.30420 1.94460
1409.25586 1.96048
1407.20752 1.96885
1405.15918 1.97558
1403.11085 1.98219
1401.06251 1.98580
1399.01417 1.98645
1396.96584 1.98605
1394.91750 1.98527
1392.86916 1.98303
1390.82083 1.98138
1388.77249 1.98208
1386.72415 1.98358
1384.67581 1.98199
1382.62748 1.97893
1380.57914 1.97525
1378.53080 1.96860
1376.48247 1.95838
1374.43413 1.94712
1372.38579 1.93661
1370.33746 1.92615
1368.28912 1.91447
1366.24078 1.90320
1364.19244 1.89302
1362.14411 1.88034
1360.09577 1.86606
1358.04743 1.85262
1355.99910 1.83789
1353.95076 1.82184
1351.90242 1.80839
1349.85409 1.79915
1347.80575 1.79350
1345.75741 1.78975
1343.70907 1.78609
1341.66074 1.78279
1339.61240 1.77978
1337.56406 1.77626
1335.51573 1.77204
1333.46739 1.76530
1331.41905 1.75491
1329.37072 1.74243
1327.32238 1.72965
1325.27404 1.71757
1323.22570 1.70728
1321.17737 1.69954
1319.12903 1.69403
1317.08069 1.68916
1315.03236 1.68370
1312.98402 1.67809
1310.93568 1.67466
1308.88735 1.67543
1306.83901 1.67944
1304.79067 1.68404
1302.74233 1.68620
1300.69400 1.68350
1298.64566 1.67569
1296.59732 1.66488
1294.54899 1.65363
1292.50065 1.64317
1290.45231 1.63434
1288.40398 1.62659
1286.35564 1.61822
1284.30730 1.60881
1282.25896 1.59906
1280.21063 1.59027
1278.16229 1.58371
1276.11395 1.57989
1274.06562 1.57862
1272.01728 1.57957
1269.96894 1.58288
1267.92061 1.58836
1265.87227 1.59441
1263.82393 1.59886
1261.77559 1.59989
1259.72726 1.59739
1257.67892 1.59337
1255.63058 1.59000
1253.58225 1.58830
1251.53391 1.58762
1249.48557 1.58663
1247.43724 1.58568
1245.38890 1.58670
1243.34056 1.58967
1241.29222 1.59275
1239.24389 1.59563
1237.19555 1.59960
1235.14721 1.60531
1233.09888 1.61201
1231.05054 1.61797
1229.00220 1.61964
1226.95387 1.61343
1224.90553 1.59983
1222.85719 1.58298
1220.80885 1.56649
1218.76052 1.55224
1216.71218 1.54129
1214.66384 1.53437
1212.61551 1.53061
1210.56717 1.52800
1208.51883 1.52578
1206.47050 1.52451
1204.42216 1.52607
1202.37382 1.53262
1200.32548 1.54447
1198.27715 1.55970
1196.22881 1.57458
1194.18047 1.58520
1192.13214 1.58958
1190.08380 1.58813
1188.03546 1.58294
1185.98713 1.57623
1183.93879 1.56877
1181.89045 1.55961
1179.84211 1.54793
1177.79378 1.53463
1175.74544 1.52100
1173.69710 1.50823
1171.64877 1.49716
1169.60043 1.48698
1167.55209 1.47682
1165.50376 1.46700
1163.45542 1.45804
1161.40708 1.45068
1159.35874 1.44564
1157.31041 1.44308
1155.26207 1.44269
1153.21373 1.44376
1151.16540 1.44518
1149.11706 1.44559
1147.06872 1.44441
1145.02038 1.44109
1142.97205 1.43480
1140.92371 1.42639
1138.87537 1.41822
1136.82704 1.41284
1134.77870 1.41163
1132.73036 1.41345
1130.68203 1.41616
1128.63369 1.41860
1126.58535 1.41994
1124.53701 1.41934
1122.48868 1.41697
1120.44034 1.41411
1118.39200 1.41213
1116.34367 1.41052
1114.29533 1.40789
1112.24699 1.40540
1110.19866 1.40614
1108.15032 1.41259
1106.10198 1.42732
1104.05364 1.45405
1102.00531 1.49296
1099.95697 1.52657
1097.90863 1.52751
1095.86030 1.49967
1093.81196 1.47109
1091.76362 1.45610
1089.71529 1.45209
1087.66695 1.44901
1085.61861 1.44063
1083.57027 1.43023
1081.52194 1.42277
1079.47360 1.41915
1077.42526 1.41779
1075.37693 1.41665
1073.32859 1.41492
1071.28025 1.41259
1069.23192 1.40872
1067.18358 1.40220
1065.13524 1.39394
1063.08690 1.38601
1061.03857 1.37931
1058.99023 1.37288
1056.94189 1.36628
1054.89356 1.36082
1052.84522 1.35843
1050.79688 1.36124
1048.74855 1.37019
1046.70021 1.38249
1044.65187 1.39316
1042.60353 1.40034
1040.55520 1.40518
1038.50686 1.40812
1036.45852 1.40935
1034.41019 1.40945
1032.36185 1.40867
1030.31351 1.40747
1028.26518 1.40577
1026.21684 1.40186
1024.16850 1.39441
1022.12016 1.38342
1020.07183 1.37042
1018.02349 1.35861
1015.97515 1.35037
1013.92682 1.34487
1011.87848 1.33955
1009.83014 1.33340
1007.78181 1.32700
1005.73347 1.32064
1003.68513 1.31451
1001.63679 1.30938
999.58846 1.30600
997.54012 1.30479
995.49178 1.30507
993.44345 1.30457
991.39511 1.30140
989.34677 1.29596
987.29844 1.29042
985.25010 1.28621
983.20176 1.28297
981.15342 1.27980
979.10509 1.27611
977.05675 1.27197
975.00841 1.26808
972.96008 1.26491
970.91174 1.26303
968.86340 1.26291
966.81507 1.26314
964.76673 1.26203
962.71839 1.26009
960.67005 1.25906
958.62172 1.25991
956.57338 1.26299
954.52504 1.26787
952.47671 1.27253
950.42837 1.27467
948.38003 1.27464
946.33170 1.27466
944.28336 1.27487
942.23502 1.27443
940.18668 1.27412
938.13835 1.27447
936.09001 1.27523
934.04167 1.27667
931.99334 1.27912
929.94500 1.28260
927.89666 1.28636
925.84833 1.28906
923.79999 1.29118
921.75165 1.29447
919.70331 1.29854
917.65498 1.30125
915.60664 1.30220
913.55830 1.30371
911.50997 1.30673
909.46163 1.30903
907.41329 1.30968
905.36496 1.31029
903.31662 1.30924
901.26828 1.30389
899.21994 1.30248
897.17161 1.32382
895.12327 1.38165
893.07493 1.47232
891.02660 1.57887
888.97826 1.68286
886.92992 1.76975
884.88159 1.83574
882.83325 1.88942
880.78491 1.93703
878.73657 1.97244
876.68824 1.98573
874.63990 1.97180
872.59156 1.93152
870.54323 1.86699
868.49489 1.78125
866.44655 1.68756
864.39822 1.60207
862.34988 1.53115
860.30154 1.47933
858.25320 1.46182
856.20487 1.50544
854.15653 1.59773
852.10819 1.62266
850.05986 1.53122
848.01152 1.42582
845.96318 1.35294
843.91485 1.30951
841.86651 1.28448
839.81817 1.27054
837.76983 1.26353
835.72150 1.25916
833.67316 1.25540
831.62482 1.25241
829.57649 1.25174
827.52815 1.25467
825.47981 1.25938
823.43148 1.26183
821.38314 1.26142
819.33480 1.26063
817.28646 1.26216
815.23813 1.26712
813.18979 1.27333
811.14145 1.27881
809.09312 1.28379
807.04478 1.28799
804.99644 1.29157
802.94811 1.29424
800.89977 1.29288
798.85143 1.28730
796.80309 1.28099
794.75476 1.27535
792.70642 1.26945
790.65808 1.26375
788.60975 1.25993
786.56141 1.25916
784.51307 1.26137
782.46474 1.26385
780.41640 1.26385
778.36806 1.26238
776.31972 1.26248
774.27139 1.26524
772.22305 1.27074
770.17471 1.28092
768.12638 1.29664
766.07804 1.31448
764.02970 1.33200
761.98137 1.35026
759.93303 1.36972
757.88469 1.39140
755.83635 1.41723
753.78802 1.44938
751.73968 1.49103
749.69134 1.54227
747.64301 1.60033
745.59467 1.66538
743.54633 1.74167
741.49800 1.83905
739.44966 1.96944
737.40132 2.13970
735.35298 2.35720
733.30465 2.60226
731.25631 2.71875
729.20797 2.61779
727.15964 2.46481
725.11130 2.31843
723.06296 2.18378
721.01463 2.06685
718.96629 1.96774
716.91795 1.88761
714.86961 1.82668
712.82128 1.78029
710.77294 1.74149
708.72460 1.70944
706.67627 1.68472
704.62793 1.65977
702.57959 1.63177
700.53126 1.60686
698.48292 1.58793
696.43458 1.57806
694.38624 1.57668
692.33791 1.57846
690.28957 1.58245
688.24123 1.58849
686.19290 1.59449
684.14456 1.59838
682.09622 1.60077
680.04789 1.60186
677.99955 1.60518
675.95121 1.61307
673.90287 1.62027
671.85454 1.62878
669.80620 1.64396
667.75786 1.66295
665.70953 1.66954
663.66119 1.66989
661.61285 1.67088
659.56452 1.67831
657.51618 1.69357
655.46784 1.70354
653.41950 1.70829
651.37117 1.72002
649.32283 1.73198
647.27449 1.73556
645.22616 1.73735
643.17782 1.74207
641.12948 1.74206
639.08115 1.73393
637.03281 1.72341
634.98447 1.71475
632.93613 1.70507
630.88780 1.68824
628.83946 1.67861
626.79112 1.68606
624.74279 1.68759
622.69445 1.67890
620.64611 1.68197
618.59778 1.68770
616.54944 1.69603
614.50110 1.73227
612.45276 1.77711
610.40443 1.79467
608.35609 1.79160
606.30775 1.78931
604.25942 1.79201
602.21108 1.79053
600.16274 1.80676
598.11441 1.90009
