3996.30549 0.98691
3994.25716 0.98853
3992.20882 0.98968
3990.16048 0.99106
3988.11215 0.99304
3986.06381 0.99482
3984.01547 0.99622
3981.96713 0.99767
3979.91880 0.99890
3977.87046 0.99949
3975.82212 0.99988
3973.77379 1.00025
3971.72545 1.00006
3969.67711 0.99923
3967.62878 0.99774
3965.58044 0.99559
3963.53210 0.99325
3961.48376 0.99121
3959.43543 0.98877
3957.38709 0.98551
3955.33875 0.98212
3953.29042 0.97883
3951.24208 0.97554
3949.19374 0.97242
3947.14541 0.96875
3945.09707 0.96371
3943.04873 0.95867
3941.00039 0.95432
3938.95206 0.94954
3936.90372 0.94416
3934.85538 0.93889
3932.80705 0.93484
3930.75871 0.93171
3928.71037 0.92693
3926.66204 0.92134
3924.61370 0.91780
3922.56536 0.91515
3920.51702 0.91111
3918.46869 0.90821
3916.42035 0.90777
3914.37201 0.90631
3912.32368 0.90329
3910.27534 0.90071
3908.22700 0.89809
3906.17867 0.89557
3904.13033 0.89679
3902.08199 0.90057
3900.03365 0.90229
3897.98532 0.90194
3895.93698 0.89823
3893.88864 0.89350
3891.84031 0.89315
3889.79197 0.89453
3887.74363 0.89135
3885.69530 0.88976
3883.64696 0.89161
3881.59862 0.89163
3879.55028 0.89303
3877.50195 0.89173
3875.45361 0.88754
3873.40527 0.88622
3871.35694 0.88749
3869.30860 0.89081
3867.26026 0.89126
3865.21193 0.88949
3863.16359 0.89210
3861.11525 0.89282
3859.06691 0.88866
3857.01858 0.88337
3854.97024 0.88053
3852.92190 0.89150
3850.87357 0.89950
3848.82523 0.89426
3846.77689 0.88788
3844.72856 0.88449
3842.68022 0.88433
3840.63188 0.88526
3838.58354 0.88869
3836.53521 0.89323
3834.48687 0.89254
3832.43853 0.89040
3830.39020 0.88929
3828.34186 0.88799
3826.29352 0.88746
3824.24519 0.88568
3822.19685 0.88373
3820.14851 0.88987
3818.10017 0.89295
3816.05184 0.89253
3814.00350 0.89335
3811.95516 0.89008
3809.90683 0.88503
3807.85849 0.88366
3805.81015 0.88732
3803.76182 0.88715
3801.71348 0.88845
3799.66514 0.89445
3797.61680 0.89426
3795.56847 0.89313
3793.52013 0.89200
3791.47179 0.88999
3789.42346 0.88905
3787.37512 0.88871
3785.32678 0.88948
3783.27845 0.89042
3781.23011 0.88948
3779.18177 0.89079
3777.13343 0.89304
3775.08510 0.89144
3773.03676 0.88841
3770.98842 0.88766
3768.94009 0.89111
3766.89175 0.89406
3764.84341 0.89505
3762.79508 0.89404
3760.74674 0.89230
3758.69840 0.89500
3756.65006 0.89752
3754.60173 0.89446
3752.55339 0.89151
3750.50505 0.89929
3748.45672 0.90669
3746.40838 0.90393
3744.36004 0.90604
3742.31171 0.91134
3740.26337 0.90932
3738.21503 0.90502
3736.16669 0.90590
3734.11836 0.91477
3732.07002 0.91976
3730.02168 0.91810
3727.97335 0.91542
3725.92501 0.91618
3723.87667 0.91953
3721.82834 0.92140
3719.78000 0.92175
3717.73166 0.92041
3715.68332 0.91727
3713.63499 0.91410
3711.58665 0.91752
3709.53831 0.92596
3707.48998 0.92668
3705.44164 0.92375
3703.39330 0.92190
3701.34497 0.92384
3699.29663 0.92573
3697.24829 0.92517
3695.19995 0.92451
3693.15162 0.92369
3691.10328 0.92477
3689.05494 0.93328
3687.00661 0.93949
3684.95827 0.93833
3682.90993 0.93634
3680.86160 0.93608
3678.81326 0.93653
3676.76492 0.93884
3674.71658 0.94927
3672.66825 0.95384
3670.61991 0.95422
3668.57157 0.96008
3666.52324 0.96191
3664.47490 0.96117
3662.42656 0.96266
3660.37823 0.96532
3658.32989 0.96788
3656.28155 0.97366
3654.23321 0.97924
3652.18488 0.97942
3650.13654 0.98303
3648.08820 0.99895
3646.03987 1.00553
3643.99153 1.00509
3641.94319 1.00591
3639.89486 1.00897
3637.84652 1.01285
3635.79818 1.01705
3633.74984 1.02147
3631.70151 1.02445
3629.65317 1.02930
3627.60483 1.04098
3625.55650 1.04572
3623.50816 1.04552
3621.45982 1.04610
3619.41149 1.05072
3617.36315 1.05741
3615.31481 1.06059
3613.26647 1.06317
3611.21814 1.06609
3609.16980 1.06808
3607.12146 1.06961
3605.07313 1.06919
3603.02479 1.06733
3600.97645 1.06619
3598.92812 1.06555
3596.87978 1.06415
3594.83144 1.06274
3592.78310 1.06115
3590.73477 1.05829
3588.68643 1.05652
3586.63809 1.05827
3584.58976 1.05867
3582.54142 1.05696
3580.49308 1.05550
3578.44475 1.05472
3576.39641 1.05466
3574.34807 1.05492
3572.29973 1.05454
3570.25140 1.05331
3568.20306 1.05335
3566.15472 1.05698
3564.10639 1.05834
3562.05805 1.05672
3560.00971 1.05586
3557.96138 1.05593
3555.91304 1.05595
3553.86470 1.05673
3551.81636 1.05828
3549.76803 1.05880
3547.71969 1.05961
3545.67135 1.06263
3543.62302 1.06501
3541.57468 1.06479
3539.52634 1.06396
3537.47801 1.06440
3535.42967 1.06604
3533.38133 1.06725
3531.33299 1.06818
3529.28466 1.06998
3527.23632 1.07219
3525.18798 1.07417
3523.13965 1.07606
3521.09131 1.07685
3519.04297 1.07675
3516.99464 1.07738
3514.94630 1.07891
3512.89796 1.08063
3510.84962 1.08212
3508.80129 1.08347
3506.75295 1.08457
3504.70461 1.08596
3502.65628 1.08822
3500.60794 1.08948
3498.55960 1.08938
3496.51127 1.08941
3494.46293 1.08989
3492.41459 1.09041
3490.36625 1.09131
3488.31792 1.09303
3486.26958 1.09474
3484.22124 1.09574
3482.17291 1.09667
3480.12457 1.09766
3478.07623 1.09819
3476.02789 1.09878
3473.97956 1.09986
3471.93122 1.10101
3469.88288 1.10197
3467.83455 1.10296
3465.78621 1.10380
3463.73787 1.10417
3461.68954 1.10464
3459.64120 1.10540
3457.59286 1.10594
3455.54452 1.10651
3453.49619 1.10740
3451.44785 1.10826
3449.39951 1.10903
3447.35118 1.11002
3445.30284 1.11097
3443.25450 1.11162
3441.20617 1.11216
3439.15783 1.11253
3437.10949 1.11284
3435.06115 1.11323
3433.01282 1.11391
3430.96448 1.11475
3428.91614 1.11521
3426.86781 1.11547
3424.81947 1.11599
3422.77113 1.11683
3420.72280 1.11755
3418.67446 1.11756
3416.62612 1.11734
3414.57778 1.11766
3412.52945 1.11801
3410.48111 1.11780
3408.43277 1.11746
3406.38444 1.11732
3404.33610 1.11748
3402.28776 1.11822
3400.23943 1.11928
3398.19109 1.11985
3396.14275 1.11947
3394.09441 1.11876
3392.04608 1.11830
3389.99774 1.11764
3387.94940 1.11705
3385.90107 1.11689
3383.85273 1.11700
3381.80439 1.11710
3379.75606 1.11649
3377.70772 1.11550
3375.65938 1.11505
3373.61104 1.11505
3371.56271 1.11511
3369.51437 1.11524
3367.46603 1.11545
3365.41770 1.11536
3363.36936 1.11506
3361.32102 1.11500
3359.27269 1.11490
3357.22435 1.11454
3355.17601 1.11439
3353.12767 1.11452
3351.07934 1.11429
3349.03100 1.11350
3346.98266 1.11280
3344.93433 1.11252
3342.88599 1.11244
3340.83765 1.11238
3338.78932 1.11218
3336.74098 1.11152
3334.69264 1.11043
3332.64430 1.10953
3330.59597 1.10901
3328.54763 1.10867
3326.49929 1.10862
3324.45096 1.10857
3322.40262 1.10824
3320.35428 1.10831
3318.30595 1.10870
3316.25761 1.10867
3314.20927 1.10847
3312.16093 1.10863
3310.11260 1.10921
3308.06426 1.10966
3306.01592 1.10985
3303.96759 1.11023
3301.91925 1.11069
3299.87091 1.11115
3297.82258 1.11194
3295.77424 1.11291
3293.72590 1.11381
3291.67756 1.11459
3289.62923 1.11517
3287.58089 1.11536
3285.53255 1.11516
3283.48422 1.11463
3281.43588 1.11376
3279.38754 1.11319
3277.33921 1.11366
3275.29087 1.11448
3273.24253 1.11478
3271.19419 1.11495
3269.14586 1.11541
3267.09752 1.11576
3265.04918 1.11582
3263.00085 1.11605
3260.95251 1.11677
3258.90417 1.11775
3256.85584 1.11874
3254.80750 1.11985
3252.75916 1.12097
3250.71082 1.12177
3248.66249 1.12225
3246.61415 1.12259
3244.56581 1.12267
3242.51748 1.12223
3240.46914 1.12133
3238.42080 1.12021
3236.37247 1.11915
3234.32413 1.11803
3232.27579 1.11641
3230.22745 1.11450
3228.17912 1.11263
3226.13078 1.11063
3224.08244 1.10869
3222.03411 1.10744
3219.98577 1.10705
3217.93743 1.10673
3215.88910 1.10583
3213.84076 1.10468
3211.79242 1.10388
3209.74408 1.10335
3207.69575 1.10249
3205.64741 1.10131
3203.59907 1.10043
3201.55074 1.09976
3199.50240 1.09872
3197.45406 1.09749
3195.40573 1.09658
3193.35739 1.09597
3191.30905 1.09516
3189.26071 1.09392
3187.21238 1.09284
3185.16404 1.09186
3183.11570 1.09051
3181.06737 1.08864
3179.01903 1.08608
3176.97069 1.08300
3174.92236 1.07979
3172.87402 1.07684
3170.82568 1.07436
3168.77734 1.07228
3166.72901 1.07045
3164.68067 1.06867
3162.63233 1.06694
3160.58400 1.06558
3158.53566 1.06458
3156.48732 1.06361
3154.43899 1.06257
3152.39065 1.06165
3150.34231 1.06127
3148.29397 1.06154
3146.24564 1.06190
3144.19730 1.06194
3142.14896 1.06170
3140.10063 1.06130
3138.05229 1.06105
3136.00395 1.06109
3133.95562 1.06107
3131.90728 1.06084
3129.85894 1.06067
3127.81060 1.06085
3125.76227 1.06127
3123.71393 1.06158
3121.66559 1.06170
3119.61726 1.06143
3117.56892 1.06110
3115.52058 1.06147
3113.47225 1.06230
3111.42391 1.06309
3109.37557 1.06366
3107.32723 1.06433
3105.27890 1.06570
3103.23056 1.06739
3101.18222 1.06877
3099.13389 1.07005
3097.08555 1.07153
3095.03721 1.07333
3092.98888 1.07500
3090.94054 1.07599
3088.89220 1.07690
3086.84386 1.07834
3084.79553 1.08028
3082.74719 1.08285
3080.69885 1.08585
3078.65052 1.08896
3076.60218 1.09233
3074.55384 1.09602
3072.50551 1.09997
3070.45717 1.10378
3068.40883 1.10743
3066.36049 1.11152
3064.31216 1.11604
3062.26382 1.12079
3060.21548 1.12614
3058.16715 1.13246
3056.11881 1.13944
3054.07047 1.14624
3052.02214 1.15302
3049.97380 1.16115
3047.92546 1.17106
3045.87712 1.18255
3043.82879 1.19635
3041.78045 1.21330
3039.73211 1.23415
3037.68378 1.26032
3035.63544 1.29320
3033.58710 1.33240
3031.53877 1.37385
3029.49043 1.40976
3027.44209 1.43506
3025.39375 1.45069
3023.34542 1.45988
3021.29708 1.46465
3019.24874 1.46495
3017.20041 1.46116
3015.15207 1.45470
3013.10373 1.44761
3011.05540 1.44195
3009.00706 1.43870
3006.95872 1.43716
3004.91038 1.43537
3002.86205 1.43303
3000.81371 1.43184
2998.76537 1.43179
2996.71704 1.43222
2994.66870 1.43320
2992.62036 1.43353
2990.57203 1.43222
2988.52369 1.42976
2986.47535 1.42641
2984.42701 1.42196
2982.37868 1.41703
2980.33034 1.41276
2978.28200 1.40939
2976.23367 1.40547
2974.18533 1.40027
2972.13699 1.39522
2970.08866 1.39076
2968.04032 1.38627
2965.99198 1.38270
2963.94364 1.38036
2961.89531 1.37872
2959.84697 1.37945
2957.79863 1.38411
2955.75030 1.39104
2953.70196 1.39744
2951.65362 1.40188
2949.60529 1.40454
2947.55695 1.40623
2945.50861 1.40782
2943.46027 1.41056
2941.41194 1.41479
2939.36360 1.41912
2937.31526 1.42248
2935.26693 1.42509
2933.21859 1.42752
2931.17025 1.43042
2929.12192 1.43382
2927.07358 1.43731
2925.02524 1.44095
2922.97690 1.44449
2920.92857 1.44795
2918.88023 1.45245
2916.83189 1.45801
2914.78356 1.46414
2912.73522 1.47192
2910.68688 1.48222
2908.63855 1.49362
2906.59021 1.50350
2904.54187 1.51133
2902.49353 1.51828
2900.44520 1.52315
2898.39686 1.52436
2896.34852 1.52341
2894.30019 1.52164
2892.25185 1.51902
2890.20351 1.51566
2888.15517 1.51177
2886.10684 1.50834
2884.05850 1.50545
2882.01016 1.50168
2879.96183 1.49629
2877.91349 1.48950
2875.86515 1.48238
2873.81682 1.47602
2871.76848 1.46998
2869.72014 1.46239
2867.67180 1.45302
2865.62347 1.44269
2863.57513 1.43079
2861.52679 1.41660
2859.47846 1.39983
2857.43012 1.38067
2855.38178 1.36000
2853.33345 1.33850
2851.28511 1.31589
2849.23677 1.29180
2847.18843 1.26725
2845.14010 1.24342
2843.09176 1.22095
2841.04342 1.20037
2838.99509 1.18144
2836.94675 1.16358
2834.89841 1.14715
2832.85008 1.13277
2830.80174 1.12040
2828.75340 1.11020
2826.70506 1.10283
2824.65673 1.09886
2822.60839 1.09844
2820.56005 1.10087
2818.51172 1.10340
2816.46338 1.10181
2814.41504 1.09374
2812.36671 1.08100
2810.31837 1.06714
2808.27003 1.05434
2806.22169 1.04332
2804.17336 1.03423
2802.12502 1.02705
2800.07668 1.02153
2798.02835 1.01710
2795.98001 1.01340
2793.93167 1.01038
2791.88334 1.00819
2789.83500 1.00664
2787.78666 1.00533
2785.73832 1.00414
2783.68999 1.00290
2781.64165 1.00142
2779.59331 1.00009
2777.54498 0.99916
2775.49664 0.99832
2773.44830 0.99721
2771.39997 0.99612
2769.35163 0.99532
2767.30329 0.99454
2765.25495 0.99368
2763.20662 0.99283
2761.15828 0.99201
2759.10994 0.99134
2757.06161 0.99093
2755.01327 0.99062
2752.96493 0.99018
2750.91660 0.98981
2748.86826 0.98981
2746.81992 0.99020
2744.77158 0.99073
2742.72325 0.99123
2740.67491 0.99175
2738.62657 0.99232
2736.57824 0.99277
2734.52990 0.99308
2732.48156 0.99341
2730.43323 0.99393
2728.38489 0.99483
2726.33655 0.99627
2724.28821 0.99798
2722.23988 0.99953
2720.19154 1.00103
2718.14320 1.00290
2716.09487 1.00538
2714.04653 1.00847
2711.99819 1.01181
2709.94986 1.01511
2707.90152 1.01851
2705.85318 1.02226
2703.80484 1.02612
2701.75651 1.02979
2699.70817 1.03342
2697.65983 1.03726
2695.61150 1.04144
2693.56316 1.04579
2691.51482 1.05006
2689.46649 1.05415
2687.41815 1.05836
2685.36981 1.06309
2683.32147 1.06869
2681.27314 1.07541
2679.22480 1.08331
2677.17646 1.09273
2675.12813 1.10423
2673.07979 1.11833
2671.03145 1.13559
2668.98312 1.15610
2666.93478 1.17894
2664.88644 1.20259
2662.83810 1.22615
2660.78977 1.24949
2658.74143 1.27203
2656.69309 1.29292
2654.64476 1.31227
2652.59642 1.33052
2650.54808 1.34756
2648.49975 1.36322
2646.45141 1.37779
2644.40307 1.39217
2642.35473 1.40677
2640.30640 1.42109
2638.25806 1.43501
2636.20972 1.44847
2634.16139 1.45989
2632.11305 1.46843
2630.06471 1.47538
2628.01638 1.48003
2625.96804 1.47992
2623.91970 1.47441
2621.87136 1.46449
2619.82303 1.45218
2617.77469 1.43952
2615.72635 1.42725
2613.67802 1.41551
2611.62968 1.40467
2609.58134 1.39510
2607.53301 1.38717
2605.48467 1.38127
2603.43633 1.37804
2601.38799 1.37942
2599.33966 1.38739
2597.29132 1.40195
2595.24298 1.42083
2593.19465 1.44039
2591.14631 1.45761
2589.09797 1.47112
2587.04964 1.48098
2585.00130 1.48812
2582.95296 1.49352
2580.90462 1.49834
2578.85629 1.50301
2576.80795 1.50650
2574.75961 1.50849
2572.71128 1.50987
2570.66294 1.51158
2568.61460 1.51467
2566.56627 1.51985
2564.51793 1.52727
2562.46959 1.53688
2560.42125 1.54789
2558.37292 1.55879
2556.32458 1.56917
2554.27624 1.57900
2552.22791 1.58680
2550.17957 1.59166
2548.13123 1.59394
2546.08290 1.59461
2544.03456 1.59572
2541.98622 1.59872
2539.93788 1.60216
2537.88955 1.60413
2535.84121 1.60542
2533.79287 1.60682
2531.74454 1.60762
2529.69620 1.60767
2527.64786 1.60703
2525.59953 1.60584
2523.55119 1.60415
2521.50285 1.60065
2519.45451 1.59327
2517.40618 1.58087
2515.35784 1.56383
2513.30950 1.54391
2511.26117 1.52374
2509.21283 1.50464
2507.16449 1.48641
2505.11616 1.46963
2503.06782 1.45408
2501.01948 1.43791
2498.97114 1.42022
2496.92281 1.40144
2494.87447 1.38191
2492.82613 1.36189
2490.77780 1.34196
2488.72946 1.32272
2486.68112 1.30464
2484.63279 1.28788
2482.58445 1.27187
2480.53611 1.25621
2478.48777 1.24111
2476.43944 1.22655
2474.39110 1.21274
2472.34276 1.19989
2470.29443 1.18779
2468.24609 1.17637
2466.19775 1.16600
2464.14942 1.15642
2462.10108 1.14688
2460.05274 1.13738
2458.00440 1.12822
2455.95607 1.11965
2453.90773 1.11178
2451.85939 1.10441
2449.81106 1.09739
2447.76272 1.09066
2445.71438 1.08418
2443.66605 1.07817
2441.61771 1.07289
2439.56937 1.06840
2437.52103 1.06469
2435.47270 1.06158
2433.42436 1.05868
2431.37602 1.05578
2429.32769 1.05323
2427.27935 1.05142
2425.23101 1.04989
2423.18268 1.04797
2421.13434 1.04618
2419.08600 1.04530
2417.03766 1.04475
2414.98933 1.04378
2412.94099 1.04292
2410.89265 1.04238
2408.84432 1.04097
2406.79598 1.03765
2404.74764 1.03295
2402.69931 1.02811
2400.65097 1.02387
2398.60263 1.02054
2396.55429 1.01798
2394.50596 1.01573
2392.45762 1.01354
2390.40928 1.01137
2388.36095 1.00922
2386.31261 1.00746
2384.26427 1.00696
2382.21594 1.00831
2380.16760 1.01130
2378.11926 1.01596
2376.07092 1.02253
2374.02259 1.03010
2371.97425 1.03704
2369.92591 1.04287
2367.87758 1.04855
2365.82924 1.05337
2363.78090 1.05632
2361.73257 1.05903
2359.68423 1.06017
2357.63589 1.05815
2355.58755 1.05567
2353.53922 1.05395
2351.49088 1.05135
2349.44254 1.04779
2347.39421 1.04648
2345.34587 1.05165
2343.29753 1.06176
2341.24920 1.06805
2339.20086 1.07058
2337.15252 1.07252
2335.10418 1.07287
2333.05585 1.07086
2331.00751 1.06835
2328.95917 1.06655
2326.91084 1.06472
2324.86250 1.06204
2322.81416 1.05907
2320.76582 1.05601
2318.71749 1.05249
2316.66915 1.04831
2314.62081 1.04357
2312.57248 1.03912
2310.52414 1.03488
2308.47580 1.02976
2306.42747 1.02329
2304.37913 1.01536
2302.33079 1.00650
2300.28245 0.99759
2298.23412 0.98975
2296.18578 0.98455
2294.13744 0.98245
2292.08911 0.98243
2290.04077 0.98365
2287.99243 0.98563
2285.94410 0.98755
2283.89576 0.98949
2281.84742 0.99257
2279.79908 0.99706
2277.75075 1.00218
2275.70241 1.00739
2273.65407 1.01254
2271.60574 1.01795
2269.55740 1.02390
2267.50906 1.02981
2265.46073 1.03553
2263.41239 1.04167
2261.36405 1.04780
2259.31571 1.05295
2257.26738 1.05721
2255.21904 1.06067
2253.17070 1.06258
2251.12237 1.06242
2249.07403 1.06048
2247.02569 1.05690
2244.97736 1.05134
2242.92902 1.04428
2240.88068 1.03711
2238.83234 1.03064
2236.78401 1.02484
2234.73567 1.01963
2232.68733 1.01511
2230.63900 1.01195
2228.59066 1.01093
2226.54232 1.01195
2224.49399 1.01470
2222.44565 1.01932
2220.39731 1.02616
2218.34897 1.03478
2216.30064 1.04340
2214.25230 1.05061
2212.20396 1.05642
2210.15563 1.06113
2208.10729 1.06507
2206.05895 1.06884
2204.01062 1.07282
2201.96228 1.07693
2199.91394 1.08120
2197.86560 1.08596
2195.81727 1.09124
2193.76893 1.09707
2191.72059 1.10349
2189.67226 1.11019
2187.62392 1.11745
2185.57558 1.12577
2183.52725 1.13462
2181.47891 1.14347
2179.43057 1.15253
2177.38223 1.16199
2175.33390 1.17186
2173.28556 1.18146
2171.23722 1.18958
2169.18889 1.19553
2167.14055 1.19935
2165.09221 1.20106
2163.04388 1.20067
2160.99554 1.19903
2158.94720 1.19702
2156.89886 1.19474
2154.85053 1.19236
2152.80219 1.18960
2150.75385 1.18491
2148.70552 1.17729
2146.65718 1.16672
2144.60884 1.15315
2142.56051 1.13710
2140.51217 1.11968
2138.46383 1.10189
2136.41549 1.08473
2134.36716 1.06927
2132.31882 1.05619
2130.27048 1.04543
2128.22215 1.03632
2126.17381 1.02863
2124.12547 1.02237
2122.07714 1.01701
2120.02880 1.01234
2117.98046 1.00842
2115.93212 1.00505
2113.88379 1.00201
2111.83545 0.99923
2109.78711 0.99688
2107.73878 0.99509
2105.69044 0.99377
2103.64210 0.99286
2101.59377 0.99198
2099.54543 0.99086
2097.49709 0.98997
2095.44875 0.98968
2093.40042 0.98956
2091.35208 0.98952
2089.30374 0.98984
2087.25541 0.99005
2085.20707 0.98963
2083.15873 0.98897
2081.11040 0.98867
2079.06206 0.98867
2077.01372 0.98853
2074.96538 0.98829
2072.91705 0.98825
2070.86871 0.98851
2068.82037 0.98890
2066.77204 0.98932
2064.72370 0.98965
2062.67536 0.98943
2060.62703 0.98888
2058.57869 0.98874
2056.53035 0.98908
2054.48201 0.98954
2052.43368 0.98986
2050.38534 0.98999
2048.33700 0.99009
2046.28867 0.99027
2044.24033 0.99055
2042.19199 0.99111
2040.14366 0.99162
2038.09532 0.99138
2036.04698 0.99108
2033.99864 0.99181
2031.95031 0.99334
2029.90197 0.99471
2027.85363 0.99554
2025.80530 0.99607
2023.75696 0.99638
2021.70862 0.99662
2019.66029 0.99727
2017.61195 0.99867
2015.56361 0.99993
2013.51527 1.00018
2011.46694 1.00046
2009.41860 1.00152
2007.37026 1.00287
2005.32193 1.00412
2003.27359 1.00520
2001.22525 1.00607
1999.17692 1.00709
1997.12858 1.00853
1995.08024 1.01048
1993.03190 1.01372
1990.98357 1.01806
1988.93523 1.02217
1986.88689 1.02743
1984.83856 1.03551
1982.79022 1.04699
1980.74188 1.06261
1978.69355 1.08180
1976.64521 1.10074
1974.59687 1.11110
1972.54853 1.10681
1970.50020 1.09222
1968.45186 1.07670
1966.40352 1.06508
1964.35519 1.05728
1962.30685 1.05230
1960.25851 1.05016
1958.21018 1.05027
1956.16184 1.05148
1954.11350 1.05332
1952.06516 1.05556
1950.01683 1.05822
1947.96849 1.06103
1945.92015 1.06379
1943.87182 1.06731
1941.82348 1.07207
1939.77514 1.07562
1937.72681 1.07800
1935.67847 1.08142
1933.63013 1.08605
1931.58179 1.09145
1929.53346 1.09727
1927.48512 1.10282
1925.43678 1.10795
1923.38845 1.11431
1921.34011 1.12059
1919.29177 1.12569
1917.24344 1.13232
1915.19510 1.13879
1913.14676 1.14407
1911.09842 1.15074
1909.05009 1.15955
1907.00175 1.16858
1904.95341 1.17733
1902.90508 1.18665
1900.85674 1.19637
1898.80840 1.20594
1896.76007 1.21602
1894.71173 1.22669
1892.66339 1.23577
1890.61505 1.24425
1888.56672 1.25375
1886.51838 1.26171
1884.47004 1.26845
1882.42171 1.27560
1880.37337 1.28255
1878.32503 1.28929
1876.27670 1.29609
1874.22836 1.30331
1872.18002 1.31062
1870.13168 1.32024
1868.08335 1.33479
1866.03501 1.34839
1863.98667 1.35969
1861.93834 1.37238
1859.89000 1.38709
1857.84166 1.40257
1855.79333 1.41887
1853.74499 1.43715
1851.69665 1.45805
1849.64831 1.48182
1847.59998 1.50850
1845.55164 1.53983
1843.50330 1.58037
1841.45497 1.61820
1839.40663 1.65157
1837.35829 1.69119
1835.30996 1.73522
1833.26162 1.77645
1831.21328 1.82046
1829.16494 1.87259
1827.11661 1.90922
1825.06827 1.92746
1823.01993 1.93643
1820.97160 1.93819
1818.92326 1.93614
1816.87492 1.93166
1814.82659 1.92559
1812.77825 1.91890
1810.72991 1.90993
1808.68157 1.89812
1806.63324 1.88590
1804.58490 1.87446
1802.53656 1.86393
1800.48823 1.85366
1798.43989 1.84459
1796.39155 1.83818
1794.34322 1.83420
1792.29488 1.82922
1790.24654 1.82078
1788.19820 1.81345
1786.14987 1.80895
1784.10153 1.80603
1782.05319 1.80326
1780.00486 1.80058
1777.95652 1.79981
1775.90818 1.80137
1773.85985 1.80436
1771.81151 1.80719
1769.76317 1.80501
1767.71483 1.80103
1765.66650 1.79926
1763.61816 1.79964
1761.56982 1.80150
1759.52149 1.80447
1757.47315 1.80835
1755.42481 1.81175
1753.37648 1.81412
1751.32814 1.81942
1749.27980 1.83089
1747.23146 1.84214
1745.18313 1.85091
1743.13479 1.85798
1741.08645 1.86410
1739.03812 1.87025
1736.98978 1.87468
1734.94144 1.87881
1732.89310 1.88396
1730.84477 1.88991
1728.79643 1.89657
1726.74809 1.90250
1724.69976 1.90933
1722.65142 1.91732
1720.60308 1.92388
1718.55475 1.93290
1716.50641 1.94682
1714.45807 1.95302
1712.40973 1.95566
1710.36140 1.95992
1708.31306 1.96682
1706.26472 1.97846
1704.21639 1.99216
1702.16805 2.00284
1700.11971 2.01741
1698.07138 2.03060
1696.02304 2.04080
1693.97470 2.05002
1691.92636 2.05665
1689.87803 2.06854
1687.82969 2.08458
1685.78135 2.10274
1683.73302 2.12851
1681.68468 2.14233
1679.63634 2.14801
1677.58801 2.15893
1675.53967 2.17481
1673.49133 2.18853
1671.44299 2.20059
1669.39466 2.21972
1667.34632 2.23418
1665.29798 2.24231
1663.24965 2.25763
1661.20131 2.27255
1659.15297 2.28041
1657.10464 2.29065
1655.05630 2.31370
1653.00796 2.34019
1650.95962 2.33236
1648.91129 2.32952
1646.86295 2.33758
1644.81461 2.33376
1642.76628 2.31991
1640.71794 2.30798
1638.66960 2.29912
1636.62127 2.28637
1634.57293 2.23895
1632.52459 2.19787
1630.47625 2.16753
1628.42792 2.13397
1626.37958 2.09693
1624.33124 2.05756
1622.28291 2.00822
1620.23457 1.96827
1618.18623 1.93233
1616.13790 1.87072
1614.08956 1.81484
1612.04122 1.77368
1609.99288 1.72975
1607.94455 1.67827
1605.89621 1.62658
1603.84787 1.57357
1601.79954 1.51499
1599.75120 1.45410
1597.70286 1.39288
1595.65453 1.32507
1593.60619 1.24917
1591.55785 1.16952
1589.50951 1.08575
1587.46118 1.00162
1585.41284 0.92082
1583.36450 0.84492
1581.31617 0.77813
1579.26783 0.72469
1577.21949 0.66370
1575.17116 0.58260
1573.12282 0.53235
1571.07448 0.49776
1569.02614 0.46132
1566.97781 0.44051
1564.92947 0.43307
1562.88113 0.42940
1560.83280 0.42756
1558.78446 0.42850
1556.73612 0.43245
1554.68779 0.43408
1552.63945 0.43559
1550.59111 0.43830
1548.54277 0.44166
1546.49444 0.44518
1544.44610 0.45005
1542.39776 0.45580
1540.34943 0.46107
1538.30109 0.46523
1536.25275 0.46706
1534.20442 0.47049
1532.15608 0.47553
1530.10774 0.47916
1528.05940 0.48331
1526.01107 0.48927
1523.96273 0.49459
1521.91439 0.50093
1519.86606 0.50815
1517.81772 0.51465
1515.76938 0.52331
1513.72105 0.53167
1511.67271 0.54082
1509.62437 0.55219
1507.57603 0.57599
1505.52770 0.61211
1503.47936 0.62672
1501.43102 0.63736
1499.38269 0.65064
1497.33435 0.66659
1495.28601 0.67923
1493.23768 0.68598
1491.18934 0.69291
1489.14100 0.70381
1487.09266 0.71164
1485.04433 0.71567
1482.99599 0.72007
1480.94765 0.72553
1478.89932 0.73069
1476.85098 0.73572
1474.80264 0.74195
1472.75431 0.74889
1470.70597 0.75326
1468.65763 0.75539
1466.60929 0.75881
1464.56096 0.76453
1462.51262 0.76931
1460.46428 0.77268
1458.41595 0.77850
1456.36761 0.78771
1454.31927 0.79138
1452.27094 0.79335
1450.22260 0.79616
1448.17426 0.79994
1446.12592 0.80318
1444.07759 0.80517
1442.02925 0.80671
1439.98091 0.80807
1437.93258 0.80971
1435.88424 0.81219
1433.83590 0.81361
1431.78757 0.81464
1429.73923 0.81674
1427.69089 0.81940
1425.64255 0.82354
1423.59422 0.83076
1421.54588 0.84120
1419.49754 0.86224
1417.44921 0.89724
1415.40087 0.92610
1413.35253 0.95018
1411.30420 0.97206
1409.25586 0.98780
1407.20752 0.99971
1405.15918 1.01481
1403.11085 1.03112
1401.06251 1.04458
1399.01417 1.05924
1396.96584 1.07441
1394.91750 1.08751
1392.86916 1.09782
1390.82083 1.10562
1388.77249 1.11360
1386.72415 1.12248
1384.67581 1.12922
1382.62748 1.13496
1380.57914 1.14135
1378.53080 1.14797
1376.48247 1.15402
1374.43413 1.15943
1372.38579 1.16316
1370.33746 1.16629
1368.28912 1.17117
1366.24078 1.17678
1364.19244 1.18288
1362.14411 1.18922
1360.09577 1.19342
1358.04743 1.19629
1355.99910 1.19975
1353.95076 1.20309
1351.90242 1.20592
1349.85409 1.20913
1347.80575 1.21271
1345.75741 1.21635
1343.70907 1.22017
1341.66074 1.22541
1339.61240 1.23209
1337.56406 1.23735
1335.51573 1.23998
1333.46739 1.24204
1331.41905 1.24351
1329.37072 1.24354
1327.32238 1.24225
1325.27404 1.24042
1323.22570 1.23889
1321.17737 1.23785
1319.12903 1.23729
1317.08069 1.23729
1315.03236 1.23853
1312.98402 1.24071
1310.93568 1.24322
1308.88735 1.24605
1306.83901 1.24955
1304.79067 1.25321
1302.74233 1.25623
1300.69400 1.25812
1298.64566 1.25879
1296.59732 1.25893
1294.54899 1.25913
1292.50065 1.25963
1290.45231 1.26013
1288.40398 1.26067
1286.35564 1.26093
1284.30730 1.26067
1282.25896 1.25998
1280.21063 1.25943
1278.16229 1.25932
1276.11395 1.25963
1274.06562 1.26106
1272.01728 1.26387
1269.96894 1.26757
1267.92061 1.27220
1265.87227 1.27786
1263.82393 1.28243
1261.77559 1.28395
1259.72726 1.28304
1257.67892 1.28198
1255.63058 1.28187
1253.58225 1.28207
1251.53391 1.28192
1249.48557 1.28159
1247.43724 1.28217
1245.38890 1.28408
1243.34056 1.28661
1241.29222 1.28897
1239.24389 1.29140
1237.19555 1.29440
1235.14721 1.29772
1233.09888 1.30067
1231.05054 1.30246
1229.00220 1.30225
1226.95387 1.30000
1224.90553 1.29638
1222.85719 1.29212
1220.80885 1.28776
1218.76052 1.28296
1216.71218 1.27773
1214.66384 1.27323
1212.61551 1.27028
1210.56717 1.26857
1208.51883 1.26730
1206.47050 1.26597
1204.42216 1.26560
1202.37382 1.26813
1200.32548 1.27447
1198.27715 1.28333
1196.22881 1.29177
1194.18047 1.29742
1192.13214 1.30000
1190.08380 1.30034
1188.03546 1.29938
1185.98713 1.29826
1183.93879 1.29748
1181.89045 1.29628
1179.84211 1.29341
1177.79378 1.28906
1175.74544 1.28485
1173.69710 1.28174
1171.64877 1.27953
1169.60043 1.27794
1167.55209 1.27687
1165.50376 1.27554
1163.45542 1.27296
1161.40708 1.26943
1159.35874 1.26648
1157.31041 1.26531
1155.26207 1.26611
1153.21373 1.26871
1151.16540 1.27219
1149.11706 1.27468
1147.06872 1.27466
1145.02038 1.27162
1142.97205 1.26672
1140.92371 1.26220
1138.87537 1.25909
1136.82704 1.25713
1134.77870 1.25634
1132.73036 1.25726
1130.68203 1.25939
1128.63369 1.26099
1126.58535 1.26118
1124.53701 1.26075
1122.48868 1.26064
1120.44034 1.26055
1118.39200 1.25998
1116.34367 1.25863
1114.29533 1.25642
1112.24699 1.25437
1110.19866 1.25388
1108.15032 1.25639
1106.10198 1.26446
1104.05364 1.28032
1102.00531 1.30178
1099.95697 1.31882
1097.90863 1.32003
1095.86030 1.30729
1093.81196 1.29324
1091.76362 1.28555
1089.71529 1.28320
1087.66695 1.28130
1085.61861 1.27698
1083.57027 1.27243
1081.52194 1.27038
1079.47360 1.27035
1077.42526 1.27077
1075.37693 1.27091
1073.32859 1.27102
1071.28025 1.27107
1069.23192 1.26971
1067.18358 1.26664
1065.13524 1.26356
1063.08690 1.26153
1061.03857 1.26019
1058.99023 1.25910
1056.94189 1.25837
1054.89356 1.25770
1052.84522 1.25692
1050.79688 1.25719
1048.74855 1.25975
1046.70021 1.26453
1044.65187 1.27018
1042.60353 1.27550
1040.55520 1.28075
1038.50686 1.28562
1036.45852 1.28883
1034.41019 1.29038
1032.36185 1.29031
1030.31351 1.28814
1028.26518 1.28459
1026.21684 1.28088
1024.16850 1.27711
1022.12016 1.27371
1020.07183 1.27189
1018.02349 1.27156
1015.97515 1.27108
1013.92682 1.26903
1011.87848 1.26472
1009.83014 1.25842
1007.78181 1.25183
1005.73347 1.24678
1003.68513 1.24396
1001.63679 1.24328
999.58846 1.24400
997.54012 1.24483
995.49178 1.24557
993.44345 1.24685
991.39511 1.24796
989.34677 1.24705
987.29844 1.24346
985.25010 1.23859
983.20176 1.23461
981.15342 1.23247
979.10509 1.23143
977.05675 1.23067
975.00841 1.22998
972.96008 1.22979
970.91174 1.23045
968.86340 1.23082
966.81507 1.22828
964.76673 1.22247
962.71839 1.21739
960.67005 1.21638
958.62172 1.21807
956.57338 1.21964
954.52504 1.22160
952.47671 1.22612
950.42837 1.23263
948.38003 1.23851
946.33170 1.24167
944.28336 1.24157
942.23502 1.23848
940.18668 1.23233
938.13835 1.22506
936.09001 1.22006
934.04167 1.21842
931.99334 1.21841
929.94500 1.21884
927.89666 1.22113
925.84833 1.22549
923.79999 1.23021
921.75165 1.23414
919.70331 1.23592
917.65498 1.23564
915.60664 1.23509
913.55830 1.23302
911.50997 1.22815
909.46163 1.22353
907.41329 1.21942
905.36496 1.20233
903.31662 1.14123
901.26828 1.01773
899.21994 0.87233
897.17161 0.76587
895.12327 0.71967
893.07493 0.71903
891.02660 0.74153
888.97826 0.77404
886.92992 0.81628
884.88159 0.88070
882.83325 0.97822
880.78491 1.09534
878.73657 1.19792
876.68824 1.26620
874.63990 1.30512
872.59156 1.32612
870.54323 1.33364
868.49489 1.32753
866.44655 1.31275
864.39822 1.29649
862.34988 1.27936
860.30154 1.26142
858.25320 1.25482
856.20487 1.27719
854.15653 1.31789
852.10819 1.33033
850.05986 1.30376
848.01152 1.26920
845.96318 1.23851
843.91485 1.21174
841.86651 1.19367
839.81817 1.18576
837.76983 1.18011
835.72150 1.17164
833.67316 1.16396
831.62482 1.16109
829.57649 1.16324
827.52815 1.16900
825.47981 1.17483
823.43148 1.17639
821.38314 1.17580
819.33480 1.17868
817.28646 1.18543
815.23813 1.19096
813.18979 1.19193
811.14145 1.19000
809.09312 1.18788
807.04478 1.18697
804.99644 1.18815
802.94811 1.19153
800.89977 1.19596
798.85143 1.20005
796.80309 1.20249
794.75476 1.20161
792.70642 1.19789
790.65808 1.19474
788.60975 1.19456
786.56141 1.19609
784.51307 1.19569
782.46474 1.19324
780.41640 1.19180
778.36806 1.19311
776.31972 1.19772
774.27139 1.20525
772.22305 1.21486
770.17471 1.22645
768.12638 1.23977
766.07804 1.25222
764.02970 1.26194
761.98137 1.27231
759.93303 1.28816
757.88469 1.31170
755.83635 1.34294
753.78802 1.37776
751.73968 1.41192
749.69134 1.44651
747.64301 1.48215
745.59467 1.52047
743.54633 1.56740
741.49800 1.62356
739.44966 1.68737
737.40132 1.76475
735.35298 1.84248
733.30465 1.83336
731.25631 1.69281
729.20797 1.55561
727.15964 1.50135
725.11130 1.50289
723.06296 1.51277
721.01463 1.51566
718.96629 1.51276
716.91795 1.50744
714.86961 1.50115
712.82128 1.49268
710.77294 1.48632
708.72460 1.48424
706.67627 1.48148
704.62793 1.47477
702.57959 1.46194
700.53126 1.44390
698.48292 1.43037
696.43458 1.42799
694.38624 1.43397
692.33791 1.44583
690.28957 1.45900
688.24123 1.46677
686.19290 1.46948
684.14456 1.47100
682.09622 1.47070
680.04789 1.46428
677.99955 1.45663
675.95121 1.45799
673.90287 1.46774
671.85454 1.48172
669.80620 1.50499
667.75786 1.53360
665.70953 1.53609
663.66119 1.52833
661.61285 1.52328
659.56452 1.52885
657.51618 1.54513
655.46784 1.56033
653.41950 1.57149
651.37117 1.57664
649.32283 1.57489
647.27449 1.57881
645.22616 1.59211
643.17782 1.60560
641.12948 1.60817
639.08115 1.59788
637.03281 1.58890
634.98447 1.58794
632.93613 1.59065
630.88780 1.59210
628.83946 1.58575
626.79112 1.57906
624.74279 1.58872
622.69445 1.61148
620.64611 1.62990
618.59778 1.63864
616.54944 1.64210
614.50110 1.64383
612.45276 1.64804
610.40443 1.66281
608.35609 1.69046
606.30775 1.71568
604.25942 1.72592
602.21108 1.73651
600.16274 1.75288
598.11441 1.75745
