3996.30549 0.91014
3994.25716 0.91114
3992.20882 0.91211
3990.16048 0.91321
3988.11215 0.91453
3986.06381 0.91573
3984.01547 0.91692
3981.96713 0.91831
3979.91880 0.91959
3977.87046 0.92028
3975.82212 0.92031
3973.77379 0.92001
3971.72545 0.91975
3969.67711 0.91942
3967.62878 0.91865
3965.58044 0.91742
3963.53210 0.91584
3961.48376 0.91413
3959.43543 0.91230
3957.38709 0.91011
3955.33875 0.90755
3953.29042 0.90502
3951.24208 0.90280
3949.19374 0.90063
3947.14541 0.89788
3945.09707 0.89453
3943.04873 0.89096
3941.00039 0.88704
3938.95206 0.88302
3936.90372 0.87918
3934.85538 0.87553
3932.80705 0.87236
3930.75871 0.86963
3928.71037 0.86631
3926.66204 0.86274
3924.61370 0.86003
3922.56536 0.85758
3920.51702 0.85459
3918.46869 0.85253
3916.42035 0.85184
3914.37201 0.85038
3912.32368 0.84801
3910.27534 0.84595
3908.22700 0.84415
3906.17867 0.84286
3904.13033 0.84379
3902.08199 0.84587
3900.03365 0.84655
3897.98532 0.84602
3895.93698 0.84391
3893.88864 0.84143
3891.84031 0.84128
3889.79197 0.84198
3887.74363 0.84033
3885.69530 0.83944
3883.64696 0.83981
3881.59862 0.83886
3879.55028 0.83903
3877.50195 0.83838
3875.45361 0.83646
3873.40527 0.83618
3871.35694 0.83689
3869.30860 0.83833
3867.26026 0.83834
3865.21193 0.83715
3863.16359 0.83804
3861.11525 0.83819
3859.06691 0.83618
3857.01858 0.83337
3854.97024 0.83095
3852.92190 0.83566
3850.87357 0.84036
3848.82523 0.83792
3846.77689 0.83459
3844.72856 0.83289
3842.68022 0.83311
3840.63188 0.83411
3838.58354 0.83619
3836.53521 0.83806
3834.48687 0.83737
3832.43853 0.83661
3830.39020 0.83651
3828.34186 0.83604
3826.29352 0.83592
3824.24519 0.83537
3822.19685 0.83485
3820.14851 0.83767
3818.10017 0.83816
3816.05184 0.83752
3814.00350 0.83823
3811.95516 0.83682
3809.90683 0.83424
3807.85849 0.83330
3805.81015 0.83506
3803.76182 0.83509
3801.71348 0.83572
3799.66514 0.83858
3797.61680 0.83814
3795.56847 0.83728
3793.52013 0.83683
3791.47179 0.83586
3789.42346 0.83532
3787.37512 0.83547
3785.32678 0.83627
3783.27845 0.83686
3781.23011 0.83669
3779.18177 0.83793
3777.13343 0.83939
3775.08510 0.83878
3773.03676 0.83760
3770.98842 0.83767
3768.94009 0.83971
3766.89175 0.84114
3764.84341 0.84141
3762.79508 0.84061
3760.74674 0.83954
3758.69840 0.84140
3756.65006 0.84386
3754.60173 0.84319
3752.55339 0.84161
3750.50505 0.84437
3748.45672 0.84818
3746.40838 0.84757
3744.36004 0.84863
3742.31171 0.85169
3740.26337 0.85166
3738.21503 0.85026
3736.16669 0.85142
3734.11836 0.85671
3732.07002 0.85985
3730.02168 0.85969
3727.97335 0.85907
3725.92501 0.86000
3723.87667 0.86189
3721.82834 0.86278
3719.78000 0.86277
3717.73166 0.86214
3715.68332 0.86082
3713.63499 0.85941
3711.58665 0.86100
3709.53831 0.86509
3707.48998 0.86560
3705.44164 0.86426
3703.39330 0.86343
3701.34497 0.86459
3699.29663 0.86589
3697.24829 0.86601
3695.19995 0.86617
3693.15162 0.86624
3691.10328 0.86697
3689.05494 0.87123
3687.00661 0.87494
3684.95827 0.87517
3682.90993 0.87484
3680.86160 0.87537
3678.81326 0.87622
3676.76492 0.87744
3674.71658 0.88227
3672.66825 0.88527
3670.61991 0.88667
3668.57157 0.89060
3666.52324 0.89216
3664.47490 0.89226
3662.42656 0.89343
3660.37823 0.89552
3658.32989 0.89803
3656.28155 0.90205
3654.23321 0.90536
3652.18488 0.90596
3650.13654 0.90867
3648.08820 0.91786
3646.03987 0.92244
3643.99153 0.92356
3641.94319 0.92507
3639.89486 0.92742
3637.84652 0.93016
3635.79818 0.93310
3633.74984 0.93623
3631.70151 0.93903
3629.65317 0.94278
3627.60483 0.94948
3625.55650 0.95309
3623.50816 0.95461
3621.45982 0.95645
3619.41149 0.95955
3617.36315 0.96267
3615.31481 0.96442
3613.26647 0.96627
3611.21814 0.96820
3609.16980 0.96980
3607.12146 0.97125
3605.07313 0.97133
3603.02479 0.97049
3600.97645 0.96991
3598.92812 0.96916
3596.87978 0.96803
3594.83144 0.96737
3592.78310 0.96690
3590.73477 0.96603
3588.68643 0.96568
3586.63809 0.96633
3584.58976 0.96616
3582.54142 0.96535
3580.49308 0.96485
3578.44475 0.96460
3576.39641 0.96461
3574.34807 0.96505
3572.29973 0.96539
3570.25140 0.96550
3568.20306 0.96604
3566.15472 0.96756
3564.10639 0.96835
3562.05805 0.96829
3560.00971 0.96829
3557.96138 0.96849
3555.91304 0.96888
3553.86470 0.96963
3551.81636 0.97084
3549.76803 0.97200
3547.71969 0.97306
3545.67135 0.97440
3543.62302 0.97526
3541.57468 0.97539
3539.52634 0.97605
3537.47801 0.97761
3535.42967 0.97912
3533.38133 0.97984
3531.33299 0.98051
3529.28466 0.98162
3527.23632 0.98301
3525.18798 0.98448
3523.13965 0.98531
3521.09131 0.98541
3519.04297 0.98574
3516.99464 0.98669
3514.94630 0.98786
3512.89796 0.98919
3510.84962 0.99057
3508.80129 0.99168
3506.75295 0.99277
3504.70461 0.99438
3502.65628 0.99583
3500.60794 0.99603
3498.55960 0.99616
3496.51127 0.99709
3494.46293 0.99822
3492.41459 0.99923
3490.36625 1.00032
3488.31792 1.00139
3486.26958 1.00214
3484.22124 1.00264
3482.17291 1.00333
3480.12457 1.00405
3478.07623 1.00443
3476.02789 1.00476
3473.97956 1.00535
3471.93122 1.00617
3469.88288 1.00705
3467.83455 1.00800
3465.78621 1.00892
3463.73787 1.00966
3461.68954 1.01038
3459.64120 1.01105
3457.59286 1.01119
3455.54452 1.01109
3453.49619 1.01137
3451.44785 1.01186
3449.39951 1.01244
3447.35118 1.01307
3445.30284 1.01341
3443.25450 1.01364
3441.20617 1.01396
3439.15783 1.01441
3437.10949 1.01499
3435.06115 1.01531
3433.01282 1.01521
3430.96448 1.01516
3428.91614 1.01557
3426.86781 1.01629
3424.81947 1.01677
3422.77113 1.01694
3420.72280 1.01690
3418.67446 1.01669
3416.62612 1.01654
3414.57778 1.01659
3412.52945 1.01665
3410.48111 1.01663
3408.43277 1.01666
3406.38444 1.01666
3404.33610 1.01667
3402.28776 1.01662
3400.23943 1.01647
3398.19109 1.01636
3396.14275 1.01614
3394.09441 1.01588
3392.04608 1.01573
3389.99774 1.01521
3387.94940 1.01450
3385.90107 1.01408
3383.85273 1.01357
3381.80439 1.01292
3379.75606 1.01258
3377.70772 1.01241
3375.65938 1.01208
3373.61104 1.01195
3371.56271 1.01204
3369.51437 1.01188
3367.46603 1.01150
3365.41770 1.01087
3363.36936 1.01038
3361.32102 1.01042
3359.27269 1.01036
3357.22435 1.00969
3355.17601 1.00886
3353.12767 1.00857
3351.07934 1.00862
3349.03100 1.00834
3346.98266 1.00789
3344.93433 1.00752
3342.88599 1.00718
3340.83765 1.00697
3338.78932 1.00667
3336.74098 1.00605
3334.69264 1.00524
3332.64430 1.00447
3330.59597 1.00396
3328.54763 1.00379
3326.49929 1.00391
3324.45096 1.00387
3322.40262 1.00338
3320.35428 1.00300
3318.30595 1.00311
3316.25761 1.00356
3314.20927 1.00393
3312.16093 1.00385
3310.11260 1.00370
3308.06426 1.00392
3306.01592 1.00422
3303.96759 1.00441
3301.91925 1.00482
3299.87091 1.00552
3297.82258 1.00605
3295.77424 1.00632
3293.72590 1.00673
3291.67756 1.00711
3289.62923 1.00690
3287.58089 1.00627
3285.53255 1.00568
3283.48422 1.00534
3281.43588 1.00508
3279.38754 1.00483
3277.33921 1.00479
3275.29087 1.00475
3273.24253 1.00460
3271.19419 1.00461
3269.14586 1.00474
3267.09752 1.00476
3265.04918 1.00469
3263.00085 1.00475
3260.95251 1.00507
3258.90417 1.00562
3256.85584 1.00628
3254.80750 1.00670
3252.75916 1.00686
3250.71082 1.00703
3248.66249 1.00706
3246.61415 1.00679
3244.56581 1.00634
3242.51748 1.00577
3240.46914 1.00501
3238.42080 1.00412
3236.37247 1.00334
3234.32413 1.00258
3232.27579 1.00153
3230.22745 1.00025
3228.17912 0.99910
3226.13078 0.99813
3224.08244 0.99721
3222.03411 0.99631
3219.98577 0.99560
3217.93743 0.99515
3215.88910 0.99472
3213.84076 0.99427
3211.79242 0.99379
3209.74408 0.99308
3207.69575 0.99221
3205.64741 0.99130
3203.59907 0.99042
3201.55074 0.98973
3199.50240 0.98929
3197.45406 0.98900
3195.40573 0.98857
3193.35739 0.98788
3191.30905 0.98715
3189.26071 0.98653
3187.21238 0.98586
3185.16404 0.98502
3183.11570 0.98399
3181.06737 0.98277
3179.01903 0.98149
3176.97069 0.98001
3174.92236 0.97819
3172.87402 0.97621
3170.82568 0.97416
3168.77734 0.97218
3166.72901 0.97049
3164.68067 0.96908
3162.63233 0.96778
3160.58400 0.96670
3158.53566 0.96608
3156.48732 0.96574
3154.43899 0.96545
3152.39065 0.96529
3150.34231 0.96520
3148.29397 0.96506
3146.24564 0.96486
3144.19730 0.96464
3142.14896 0.96456
3140.10063 0.96463
3138.05229 0.96466
3136.00395 0.96451
3133.95562 0.96452
3131.90728 0.96487
3129.85894 0.96497
3127.81060 0.96459
3125.76227 0.96441
3123.71393 0.96472
3121.66559 0.96489
3119.61726 0.96478
3117.56892 0.96500
3115.52058 0.96570
3113.47225 0.96632
3111.42391 0.96675
3109.37557 0.96741
3107.32723 0.96833
3105.27890 0.96955
3103.23056 0.97083
3101.18222 0.97183
3099.13389 0.97276
3097.08555 0.97375
3095.03721 0.97480
3092.98888 0.97586
3090.94054 0.97680
3088.89220 0.97802
3086.84386 0.97961
3084.79553 0.98121
3082.74719 0.98295
3080.69885 0.98504
3078.65052 0.98716
3076.60218 0.98914
3074.55384 0.99124
3072.50551 0.99346
3070.45717 0.99604
3068.40883 0.99941
3066.36049 1.00312
3064.31216 1.00647
3062.26382 1.00980
3060.21548 1.01350
3058.16715 1.01766
3056.11881 1.02227
3054.07047 1.02706
3052.02214 1.03244
3049.97380 1.03912
3047.92546 1.04716
3045.87712 1.05649
3043.82879 1.06790
3041.78045 1.08259
3039.73211 1.10151
3037.68378 1.12644
3035.63544 1.16014
3033.58710 1.20361
3031.53877 1.25361
3029.49043 1.30196
3027.44209 1.34067
3025.39375 1.36731
3023.34542 1.38321
3021.29708 1.39069
3019.24874 1.39141
3017.20041 1.38658
3015.15207 1.37755
3013.10373 1.36668
3011.05540 1.35665
3009.00706 1.34886
3006.95872 1.34353
3004.91038 1.34019
3002.86205 1.33815
3000.81371 1.33729
2998.76537 1.33787
2996.71704 1.33909
2994.66870 1.33928
2992.62036 1.33799
2990.57203 1.33579
2988.52369 1.33225
2986.47535 1.32681
2984.42701 1.32049
2982.37868 1.31460
2980.33034 1.30925
2978.28200 1.30354
2976.23367 1.29681
2974.18533 1.28936
2972.13699 1.28202
2970.08866 1.27537
2968.04032 1.26947
2965.99198 1.26458
2963.94364 1.26094
2961.89531 1.25895
2959.84697 1.26025
2957.79863 1.26590
2955.75030 1.27448
2953.70196 1.28295
2951.65362 1.28911
2949.60529 1.29328
2947.55695 1.29669
2945.50861 1.29991
2943.46027 1.30374
2941.41194 1.30874
2939.36360 1.31424
2937.31526 1.31925
2935.26693 1.32357
2933.21859 1.32770
2931.17025 1.33187
2929.12192 1.33627
2927.07358 1.34143
2925.02524 1.34739
2922.97690 1.35331
2920.92857 1.35880
2918.88023 1.36524
2916.83189 1.37436
2914.78356 1.38611
2912.73522 1.40002
2910.68688 1.41683
2908.63855 1.43629
2906.59021 1.45579
2904.54187 1.47261
2902.49353 1.48585
2900.44520 1.49541
2898.39686 1.50080
2896.34852 1.50152
2894.30019 1.49816
2892.25185 1.49263
2890.20351 1.48664
2888.15517 1.48023
2886.10684 1.47322
2884.05850 1.46561
2882.01016 1.45676
2879.96183 1.44660
2877.91349 1.43594
2875.86515 1.42471
2873.81682 1.41237
2871.76848 1.39929
2869.72014 1.38555
2867.67180 1.37055
2865.62347 1.35379
2863.57513 1.33445
2861.52679 1.31173
2859.47846 1.28631
2857.43012 1.26006
2855.38178 1.23429
2853.33345 1.20940
2851.28511 1.18497
2849.23677 1.16078
2847.18843 1.13727
2845.14010 1.11501
2843.09176 1.09457
2841.04342 1.07628
2838.99509 1.06040
2836.94675 1.04688
2834.89841 1.03528
2832.85008 1.02531
2830.80174 1.01706
2828.75340 1.01067
2826.70506 1.00614
2824.65673 1.00386
2822.60839 1.00430
2820.56005 1.00676
2818.51172 1.00875
2816.46338 1.00698
2814.41504 1.00027
2812.36671 0.99058
2810.31837 0.98044
2808.27003 0.97120
2806.22169 0.96349
2804.17336 0.95744
2802.12502 0.95275
2800.07668 0.94917
2798.02835 0.94643
2795.98001 0.94404
2793.93167 0.94192
2791.88334 0.94023
2789.83500 0.93887
2787.78666 0.93773
2785.73832 0.93663
2783.68999 0.93540
2781.64165 0.93420
2779.59331 0.93324
2777.54498 0.93261
2775.49664 0.93226
2773.44830 0.93191
2771.39997 0.93140
2769.35163 0.93078
2767.30329 0.93025
2765.25495 0.92990
2763.20662 0.92951
2761.15828 0.92899
2759.10994 0.92858
2757.06161 0.92845
2755.01327 0.92837
2752.96493 0.92807
2750.91660 0.92779
2748.86826 0.92787
2746.81992 0.92813
2744.77158 0.92827
2742.72325 0.92847
2740.67491 0.92893
2738.62657 0.92928
2736.57824 0.92929
2734.52990 0.92922
2732.48156 0.92928
2730.43323 0.92959
2728.38489 0.93021
2726.33655 0.93088
2724.28821 0.93146
2722.23988 0.93213
2720.19154 0.93314
2718.14320 0.93458
2716.09487 0.93605
2714.04653 0.93739
2711.99819 0.93908
2709.94986 0.94146
2707.90152 0.94437
2705.85318 0.94755
2703.80484 0.95073
2701.75651 0.95377
2699.70817 0.95662
2697.65983 0.95919
2695.61150 0.96169
2693.56316 0.96454
2691.51482 0.96772
2689.46649 0.97090
2687.41815 0.97398
2685.36981 0.97713
2683.32147 0.98061
2681.27314 0.98465
2679.22480 0.98956
2677.17646 0.99570
2675.12813 1.00354
2673.07979 1.01375
2671.03145 1.02676
2668.98312 1.04239
2666.93478 1.06003
2664.88644 1.07920
2662.83810 1.09929
2660.78977 1.11926
2658.74143 1.13872
2656.69309 1.15770
2654.64476 1.17607
2652.59642 1.19381
2650.54808 1.21126
2648.49975 1.22907
2646.45141 1.24724
2644.40307 1.26550
2642.35473 1.28449
2640.30640 1.30457
2638.25806 1.32479
2636.20972 1.34390
2634.16139 1.36124
2632.11305 1.37659
2630.06471 1.38963
2628.01638 1.39804
2625.96804 1.39802
2623.91970 1.38856
2621.87136 1.37222
2619.82303 1.35267
2617.77469 1.33279
2615.72635 1.31380
2613.67802 1.29620
2611.62968 1.28042
2609.58134 1.26647
2607.53301 1.25491
2605.48467 1.24694
2603.43633 1.24335
2601.38799 1.24539
2599.33966 1.25500
2597.29132 1.27302
2595.24298 1.29783
2593.19465 1.32540
2591.14631 1.35113
2589.09797 1.37215
2587.04964 1.38809
2585.00130 1.39989
2582.95296 1.40881
2580.90462 1.41603
2578.85629 1.42246
2576.80795 1.42832
2574.75961 1.43265
2572.71128 1.43517
2570.66294 1.43707
2568.61460 1.44029
2566.56627 1.44723
2564.51793 1.45938
2562.46959 1.47639
2560.42125 1.49687
2558.37292 1.51884
2556.32458 1.54014
2554.27624 1.55851
2552.22791 1.57190
2550.17957 1.58058
2548.13123 1.58705
2546.08290 1.59284
2544.03456 1.59861
2541.98622 1.60483
2539.93788 1.61104
2537.88955 1.61694
2535.84121 1.62198
2533.79287 1.62522
2531.74454 1.62748
2529.69620 1.62983
2527.64786 1.63158
2525.59953 1.63236
2523.55119 1.63174
2521.50285 1.62642
2519.45451 1.61311
2517.40618 1.59129
2515.35784 1.56047
2513.30950 1.52186
2511.26117 1.48083
2509.21283 1.44253
2507.16449 1.40862
2505.11616 1.37787
2503.06782 1.34860
2501.01948 1.32073
2498.97114 1.29458
2496.92281 1.26968
2494.87447 1.24534
2492.82613 1.22163
2490.77780 1.19924
2488.72946 1.17880
2486.68112 1.16045
2484.63279 1.14371
2482.58445 1.12836
2480.53611 1.11476
2478.48777 1.10270
2476.43944 1.09150
2474.39110 1.08106
2472.34276 1.07141
2470.29443 1.06232
2468.24609 1.05369
2466.19775 1.04553
2464.14942 1.03794
2462.10108 1.03084
2460.05274 1.02422
2458.00440 1.01794
2455.95607 1.01169
2453.90773 1.00574
2451.85939 1.00035
2449.81106 0.99531
2447.76272 0.99052
2445.71438 0.98597
2443.66605 0.98173
2441.61771 0.97804
2439.56937 0.97503
2437.52103 0.97248
2435.47270 0.97005
2433.42436 0.96763
2431.37602 0.96547
2429.32769 0.96368
2427.27935 0.96219
2425.23101 0.96100
2423.18268 0.96006
2421.13434 0.95925
2419.08600 0.95861
2417.03766 0.95822
2414.98933 0.95793
2412.94099 0.95771
2410.89265 0.95749
2408.84432 0.95663
2406.79598 0.95448
2404.74764 0.95140
2402.69931 0.94812
2400.65097 0.94514
2398.60263 0.94275
2396.55429 0.94090
2394.50596 0.93931
2392.45762 0.93793
2390.40928 0.93674
2388.36095 0.93587
2386.31261 0.93574
2384.26427 0.93673
2382.21594 0.93918
2380.16760 0.94305
2378.11926 0.94796
2376.07092 0.95384
2374.02259 0.96048
2371.97425 0.96683
2369.92591 0.97189
2367.87758 0.97629
2365.82924 0.98165
2363.78090 0.98694
2361.73257 0.98934
2359.68423 0.98859
2357.63589 0.98633
2355.58755 0.98410
2353.53922 0.98150
2351.49088 0.97795
2349.44254 0.97537
2347.39421 0.97632
2345.34587 0.98266
2343.29753 0.99169
2341.24920 0.99611
2339.20086 0.99628
2337.15252 0.99646
2335.10418 0.99620
2333.05585 0.99425
2331.00751 0.99284
2328.95917 0.99228
2326.91084 0.99130
2324.86250 0.98991
2322.81416 0.98843
2320.76582 0.98657
2318.71749 0.98369
2316.66915 0.97998
2314.62081 0.97622
2312.57248 0.97307
2310.52414 0.97007
2308.47580 0.96608
2306.42747 0.96090
2304.37913 0.95507
2302.33079 0.94890
2300.28245 0.94229
2298.23412 0.93622
2296.18578 0.93233
2294.13744 0.93094
2292.08911 0.93122
2290.04077 0.93246
2287.99243 0.93418
2285.94410 0.93614
2283.89576 0.93863
2281.84742 0.94192
2279.79908 0.94581
2277.75075 0.94996
2275.70241 0.95425
2273.65407 0.95862
2271.60574 0.96310
2269.55740 0.96782
2267.50906 0.97271
2265.46073 0.97764
2263.41239 0.98256
2261.36405 0.98703
2259.31571 0.99069
2257.26738 0.99380
2255.21904 0.99629
2253.17070 0.99778
2251.12237 0.99812
2249.07403 0.99693
2247.02569 0.99408
2244.97736 0.98990
2242.92902 0.98480
2240.88068 0.97942
2238.83234 0.97428
2236.78401 0.96935
2234.73567 0.96523
2232.68733 0.96254
2230.63900 0.96094
2228.59066 0.96033
2226.54232 0.96083
2224.49399 0.96239
2222.44565 0.96549
2220.39731 0.97053
2218.34897 0.97702
2216.30064 0.98373
2214.25230 0.98962
2212.20396 0.99458
2210.15563 0.99879
2208.10729 1.00216
2206.05895 1.00488
2204.01062 1.00725
2201.96228 1.00948
2199.91394 1.01201
2197.86560 1.01553
2195.81727 1.02022
2193.76893 1.02540
2191.72059 1.03051
2189.67226 1.03541
2187.62392 1.04043
2185.57558 1.04614
2183.52725 1.05259
2181.47891 1.05975
2179.43057 1.06751
2177.38223 1.07546
2175.33390 1.08300
2173.28556 1.08980
2171.23722 1.09582
2169.18889 1.10062
2167.14055 1.10344
2165.09221 1.10429
2163.04388 1.10411
2160.99554 1.10340
2158.94720 1.10206
2156.89886 1.10039
2154.85053 1.09860
2152.80219 1.09636
2150.75385 1.09287
2148.70552 1.08707
2146.65718 1.07835
2144.60884 1.06704
2142.56051 1.05385
2140.51217 1.03955
2138.46383 1.02512
2136.41549 1.01138
2134.36716 0.99915
2132.31882 0.98902
2130.27048 0.98075
2128.22215 0.97394
2126.17381 0.96842
2124.12547 0.96372
2122.07714 0.95919
2120.02880 0.95488
2117.98046 0.95131
2115.93212 0.94837
2113.88379 0.94574
2111.83545 0.94341
2109.78711 0.94129
2107.73878 0.93926
2105.69044 0.93760
2103.64210 0.93651
2101.59377 0.93574
2099.54543 0.93521
2097.49709 0.93496
2095.44875 0.93482
2093.40042 0.93451
2091.35208 0.93407
2089.30374 0.93346
2087.25541 0.93257
2085.20707 0.93168
2083.15873 0.93091
2081.11040 0.93005
2079.06206 0.92914
2077.01372 0.92847
2074.96538 0.92830
2072.91705 0.92848
2070.86871 0.92868
2068.82037 0.92878
2066.77204 0.92869
2064.72370 0.92830
2062.67536 0.92771
2060.62703 0.92720
2058.57869 0.92706
2056.53035 0.92721
2054.48201 0.92744
2052.43368 0.92759
2050.38534 0.92766
2048.33700 0.92786
2046.28867 0.92820
2044.24033 0.92846
2042.19199 0.92855
2040.14366 0.92869
2038.09532 0.92896
2036.04698 0.92943
2033.99864 0.92990
2031.95031 0.92994
2029.90197 0.92984
2027.85363 0.93008
2025.80530 0.93063
2023.75696 0.93132
2021.70862 0.93217
2019.66029 0.93321
2017.61195 0.93432
2015.56361 0.93521
2013.51527 0.93584
2011.46694 0.93639
2009.41860 0.93691
2007.37026 0.93741
2005.32193 0.93789
2003.27359 0.93852
2001.22525 0.93936
1999.17692 0.94041
1997.12858 0.94162
1995.08024 0.94299
1993.03190 0.94526
1990.98357 0.94867
1988.93523 0.95230
1986.88689 0.95653
1984.83856 0.96224
1982.79022 0.97012
1980.74188 0.98134
1978.69355 0.99562
1976.64521 1.00936
1974.59687 1.01629
1972.54853 1.01268
1970.50020 1.00174
1968.45186 0.99009
1966.40352 0.98163
1964.35519 0.97659
1962.30685 0.97393
1960.25851 0.97289
1958.21018 0.97279
1956.16184 0.97321
1954.11350 0.97415
1952.06516 0.97552
1950.01683 0.97729
1947.96849 0.97915
1945.92015 0.98125
1943.87182 0.98437
1941.82348 0.98867
1939.77514 0.99234
1937.72681 0.99520
1935.67847 0.99851
1933.63013 1.00250
1931.58179 1.00708
1929.53346 1.01162
1927.48512 1.01570
1925.43678 1.01954
1923.38845 1.02430
1921.34011 1.02912
1919.29177 1.03331
1917.24344 1.03884
1915.19510 1.04480
1913.14676 1.05016
1911.09842 1.05600
1909.05009 1.06256
1907.00175 1.06896
1904.95341 1.07535
1902.90508 1.08228
1900.85674 1.08969
1898.80840 1.09705
1896.76007 1.10495
1894.71173 1.11379
1892.66339 1.12168
1890.61505 1.12878
1888.56672 1.13640
1886.51838 1.14299
1884.47004 1.14849
1882.42171 1.15422
1880.37337 1.15983
1878.32503 1.16509
1876.27670 1.17022
1874.22836 1.17607
1872.18002 1.18243
1870.13168 1.19031
1868.08335 1.20222
1866.03501 1.21418
1863.98667 1.22420
1861.93834 1.23501
1859.89000 1.24742
1857.84166 1.26052
1855.79333 1.27453
1853.74499 1.29025
1851.69665 1.30817
1849.64831 1.32867
1847.59998 1.35202
1845.55164 1.38031
1843.50330 1.41902
1841.45497 1.45840
1839.40663 1.49639
1837.35829 1.54498
1835.30996 1.60459
1833.26162 1.66643
1831.21328 1.73794
1829.16494 1.83177
1827.11661 1.90971
1825.06827 1.96008
1823.01993 1.99582
1820.97160 2.01347
1818.92326 2.01899
1816.87492 2.01806
1814.82659 2.01244
1812.77825 2.00111
1810.72991 1.97958
1808.68157 1.94956
1806.63324 1.91754
1804.58490 1.88617
1802.53656 1.85489
1800.48823 1.82363
1798.43989 1.79874
1796.39155 1.78092
1794.34322 1.76574
1792.29488 1.74757
1790.24654 1.72973
1788.19820 1.71901
1786.14987 1.71088
1784.10153 1.70298
1782.05319 1.69754
1780.00486 1.69376
1777.95652 1.69018
1775.90818 1.68773
1773.85985 1.68596
1771.81151 1.68270
1769.76317 1.67949
1767.71483 1.67790
1765.66650 1.67747
1763.61816 1.67814
1761.56982 1.67997
1759.52149 1.68371
1757.47315 1.68848
1755.42481 1.69246
1753.37648 1.69624
1751.32814 1.70371
1749.27980 1.71584
1747.23146 1.72614
1745.18313 1.73435
1743.13479 1.74222
1741.08645 1.74942
1739.03812 1.75547
1736.98978 1.75889
1734.94144 1.76138
1732.89310 1.76606
1730.84477 1.76992
1728.79643 1.77352
1726.74809 1.77939
1724.69976 1.78737
1722.65142 1.79501
1720.60308 1.80042
1718.55475 1.80656
1716.50641 1.81503
1714.45807 1.82166
1712.40973 1.82795
1710.36140 1.83440
1708.31306 1.84187
1706.26472 1.85375
1704.21639 1.86856
1702.16805 1.88046
1700.11971 1.89301
1698.07138 1.90652
1696.02304 1.91922
1693.97470 1.92868
1691.92636 1.93614
1689.87803 1.94772
1687.82969 1.96154
1685.78135 1.97698
1683.73302 2.00190
1681.68468 2.01992
1679.63634 2.02878
1677.58801 2.03908
1675.53967 2.05533
1673.49133 2.07389
1671.44299 2.08980
1669.39466 2.10747
1667.34632 2.12221
1665.29798 2.13561
1663.24965 2.15652
1661.20131 2.17587
1659.15297 2.18675
1657.10464 2.19720
1655.05630 2.21348
1653.00796 2.23468
1650.95962 2.23570
1648.91129 2.24068
1646.86295 2.26087
1644.81461 2.27306
1642.76628 2.26918
1640.71794 2.26252
1638.66960 2.25649
1636.62127 2.24655
1634.57293 2.20764
1632.52459 2.17123
1630.47625 2.14307
1628.42792 2.11355
1626.37958 2.08443
1624.33124 2.04987
1622.28291 2.00545
1620.23457 1.97301
1618.18623 1.94518
1616.13790 1.89668
1614.08956 1.85187
1612.04122 1.81777
1609.99288 1.77954
1607.94455 1.73288
1605.89621 1.68389
1603.84787 1.63217
1601.79954 1.57494
1599.75120 1.51767
1597.70286 1.46241
1595.65453 1.40257
1593.60619 1.33699
1591.55785 1.27070
1589.50951 1.20363
1587.46118 1.13792
1585.41284 1.07471
1583.36450 1.01321
1581.31617 0.95644
1579.26783 0.90921
1577.21949 0.85613
1575.17116 0.79176
1573.12282 0.75756
1571.07448 0.73749
1569.02614 0.71541
1566.97781 0.70129
1564.92947 0.69483
1562.88113 0.69093
1560.83280 0.68852
1558.78446 0.68510
1556.73612 0.68540
1554.68779 0.68714
1552.63945 0.68863
1550.59111 0.69079
1548.54277 0.69349
1546.49444 0.69641
1544.44610 0.70014
1542.39776 0.70405
1540.34943 0.70681
1538.30109 0.71089
1536.25275 0.71390
1534.20442 0.71720
1532.15608 0.72130
1530.10774 0.72490
1528.05940 0.72866
1526.01107 0.73318
1523.96273 0.73709
1521.91439 0.74161
1519.86606 0.74742
1517.81772 0.75296
1515.76938 0.75982
1513.72105 0.76676
1511.67271 0.77438
1509.62437 0.78316
1507.57603 0.79999
1505.52770 0.82625
1503.47936 0.83890
1501.43102 0.84922
1499.38269 0.86222
1497.33435 0.87797
1495.28601 0.89119
1493.23768 0.89921
1491.18934 0.90694
1489.14100 0.91811
1487.09266 0.92709
1485.04433 0.93260
1482.99599 0.93794
1480.94765 0.94366
1478.89932 0.94854
1476.85098 0.95271
1474.80264 0.95749
1472.75431 0.96415
1470.70597 0.97089
1468.65763 0.97532
1466.60929 0.97899
1464.56096 0.98181
1462.51262 0.98369
1460.46428 0.98580
1458.41595 0.98975
1456.36761 0.99704
1454.31927 1.00259
1452.27094 1.00753
1450.22260 1.01341
1448.17426 1.02011
1446.12592 1.02611
1444.07759 1.03043
1442.02925 1.03378
1439.98091 1.03655
1437.93258 1.03852
1435.88424 1.03920
1433.83590 1.03837
1431.78757 1.03671
1429.73923 1.03419
1427.69089 1.03209
1425.64255 1.03194
1423.59422 1.03408
1421.54588 1.03976
1419.49754 1.05544
1417.44921 1.08399
1415.40087 1.10904
1413.35253 1.13040
1411.30420 1.14942
1409.25586 1.16193
1407.20752 1.16947
1405.15918 1.17854
1403.11085 1.18933
1401.06251 1.19879
1399.01417 1.20858
1396.96584 1.21799
1394.91750 1.22513
1392.86916 1.22994
1390.82083 1.23368
1388.77249 1.23851
1386.72415 1.24558
1384.67581 1.25161
1382.62748 1.25505
1380.57914 1.25620
1378.53080 1.25523
1376.48247 1.25256
1374.43413 1.24917
1372.38579 1.24845
1370.33746 1.25269
1368.28912 1.26090
1366.24078 1.26972
1364.19244 1.27800
1362.14411 1.28630
1360.09577 1.29162
1358.04743 1.29296
1355.99910 1.29200
1353.95076 1.28872
1351.90242 1.28294
1349.85409 1.27562
1347.80575 1.26819
1345.75741 1.26174
1343.70907 1.25663
1341.66074 1.25303
1339.61240 1.24995
1337.56406 1.24721
1335.51573 1.24613
1333.46739 1.24711
1331.41905 1.24915
1329.37072 1.25157
1327.32238 1.25487
1325.27404 1.25978
1323.22570 1.26631
1321.17737 1.27433
1319.12903 1.28460
1317.08069 1.29609
1315.03236 1.30642
1312.98402 1.31497
1310.93568 1.32229
1308.88735 1.32903
1306.83901 1.33518
1304.79067 1.33925
1302.74233 1.33981
1300.69400 1.33726
1298.64566 1.33370
1296.59732 1.33056
1294.54899 1.32772
1292.50065 1.32481
1290.45231 1.32089
1288.40398 1.31472
1286.35564 1.30594
1284.30730 1.29626
1282.25896 1.28776
1280.21063 1.28141
1278.16229 1.27703
1276.11395 1.27390
1274.06562 1.27109
1272.01728 1.26802
1269.96894 1.26562
1267.92061 1.26549
1265.87227 1.26752
1263.82393 1.26963
1261.77559 1.27003
1259.72726 1.26831
1257.67892 1.26563
1255.63058 1.26314
1253.58225 1.26091
1251.53391 1.25893
1249.48557 1.25691
1247.43724 1.25413
1245.38890 1.25092
1243.34056 1.24825
1241.29222 1.24654
1239.24389 1.24618
1237.19555 1.24762
1235.14721 1.25154
1233.09888 1.25758
1231.05054 1.26317
1229.00220 1.26540
1226.95387 1.26299
1224.90553 1.25589
1222.85719 1.24558
1220.80885 1.23476
1218.76052 1.22596
1216.71218 1.22043
1214.66384 1.21759
1212.61551 1.21642
1210.56717 1.21653
1208.51883 1.21740
1206.47050 1.21865
1204.42216 1.22093
1202.37382 1.22516
1200.32548 1.23163
1198.27715 1.23985
1196.22881 1.24845
1194.18047 1.25570
1192.13214 1.25995
1190.08380 1.26039
1188.03546 1.25780
1185.98713 1.25375
1183.93879 1.24884
1181.89045 1.24259
1179.84211 1.23522
1177.79378 1.22818
1175.74544 1.22276
1173.69710 1.21898
1171.64877 1.21572
1169.60043 1.21145
1167.55209 1.20559
1165.50376 1.19892
1163.45542 1.19269
1161.40708 1.18768
1159.35874 1.18431
1157.31041 1.18322
1155.26207 1.18499
1153.21373 1.18910
1151.16540 1.19377
1149.11706 1.19768
1147.06872 1.20001
1145.02038 1.19944
1142.97205 1.19538
1140.92371 1.18913
1138.87537 1.18338
1136.82704 1.18023
1134.77870 1.18020
1132.73036 1.18292
1130.68203 1.18697
1128.63369 1.19016
1126.58535 1.19137
1124.53701 1.19096
1122.48868 1.18968
1120.44034 1.18800
1118.39200 1.18588
1116.34367 1.18357
1114.29533 1.18190
1112.24699 1.18101
1110.19866 1.18138
1108.15032 1.18533
1106.10198 1.19558
1104.05364 1.21411
1102.00531 1.23978
1099.95697 1.25978
1097.90863 1.25674
1095.86030 1.23536
1093.81196 1.21500
1091.76362 1.20436
1089.71529 1.20102
1087.66695 1.19877
1085.61861 1.19368
1083.57027 1.18735
1081.52194 1.18292
1079.47360 1.18103
1077.42526 1.18046
1075.37693 1.18020
1073.32859 1.18014
1071.28025 1.17949
1069.23192 1.17669
1067.18358 1.17126
1065.13524 1.16370
1063.08690 1.15507
1061.03857 1.14691
1058.99023 1.14047
1056.94189 1.13639
1054.89356 1.13467
1052.84522 1.13501
1050.79688 1.13776
1048.74855 1.14325
1046.70021 1.15002
1044.65187 1.15568
1042.60353 1.15928
1040.55520 1.16146
1038.50686 1.16259
1036.45852 1.16226
1034.41019 1.16040
1032.36185 1.15756
1030.31351 1.15442
1028.26518 1.15125
1026.21684 1.14755
1024.16850 1.14237
1022.12016 1.13480
1020.07183 1.12539
1018.02349 1.11618
1015.97515 1.10900
1013.92682 1.10446
1011.87848 1.10138
1009.83014 1.09736
1007.78181 1.09133
1005.73347 1.08458
1003.68513 1.07854
1001.63679 1.07382
999.58846 1.07058
997.54012 1.06882
995.49178 1.06843
993.44345 1.06901
991.39511 1.07004
989.34677 1.07136
987.29844 1.07251
985.25010 1.07290
983.20176 1.07327
981.15342 1.07422
979.10509 1.07559
977.05675 1.07724
975.00841 1.07810
972.96008 1.07757
970.91174 1.07692
968.86340 1.07669
966.81507 1.07614
964.76673 1.07504
962.71839 1.07459
960.67005 1.07635
958.62172 1.07981
956.57338 1.08375
954.52504 1.08752
952.47671 1.09010
950.42837 1.09126
948.38003 1.09192
946.33170 1.09290
944.28336 1.09384
942.23502 1.09337
940.18668 1.09113
938.13835 1.08858
936.09001 1.08744
934.04167 1.08825
931.99334 1.08987
929.94500 1.09026
927.89666 1.08932
925.84833 1.08933
923.79999 1.09141
921.75165 1.09443
919.70331 1.09683
917.65498 1.09776
915.60664 1.09849
913.55830 1.10111
911.50997 1.10575
909.46163 1.11099
907.41329 1.11319
905.36496 1.10413
903.31662 1.07229
901.26828 1.01112
899.21994 0.93268
897.17161 0.86583
895.12327 0.83125
893.07493 0.82960
891.02660 0.85172
888.97826 0.89016
886.92992 0.94557
884.88159 1.02352
882.83325 1.11804
880.78491 1.20533
878.73657 1.26897
876.68824 1.31514
874.63990 1.34716
872.59156 1.35286
870.54323 1.32603
868.49489 1.28112
866.44655 1.23517
864.39822 1.19345
862.34988 1.15658
860.30154 1.13183
858.25320 1.13254
856.20487 1.17172
854.15653 1.23191
852.10819 1.24686
850.05986 1.20079
848.01152 1.14526
845.96318 1.10257
843.91485 1.07271
841.86651 1.05373
839.81817 1.04330
837.76983 1.03880
835.72150 1.03787
833.67316 1.03895
831.62482 1.04090
829.57649 1.04454
827.52815 1.05193
825.47981 1.06234
823.43148 1.07215
821.38314 1.08032
819.33480 1.08813
817.28646 1.09591
815.23813 1.10380
813.18979 1.11175
811.14145 1.11790
809.09312 1.12121
807.04478 1.12370
804.99644 1.12593
802.94811 1.12651
800.89977 1.12622
798.85143 1.12565
796.80309 1.12427
794.75476 1.12272
792.70642 1.12137
790.65808 1.12031
788.60975 1.11981
786.56141 1.12119
784.51307 1.12470
782.46474 1.12692
780.41640 1.12540
778.36806 1.12259
776.31972 1.12218
774.27139 1.12579
772.22305 1.13416
770.17471 1.14659
768.12638 1.16072
766.07804 1.17569
764.02970 1.19109
761.98137 1.20615
759.93303 1.22130
757.88469 1.23784
755.83635 1.25813
753.78802 1.28359
751.73968 1.31328
749.69134 1.34721
747.64301 1.38694
745.59467 1.43169
743.54633 1.48082
741.49800 1.53902
739.44966 1.61294
737.40132 1.70770
735.35298 1.81482
733.30465 1.86372
731.25631 1.77905
729.20797 1.66061
727.15964 1.60411
725.11130 1.59451
723.06296 1.58485
721.01463 1.55946
718.96629 1.52764
716.91795 1.49886
714.86961 1.47309
712.82128 1.44868
710.77294 1.42778
708.72460 1.41070
706.67627 1.39584
704.62793 1.38184
702.57959 1.36921
700.53126 1.36092
698.48292 1.35685
696.43458 1.35130
694.38624 1.34405
692.33791 1.34364
690.28957 1.35147
688.24123 1.35973
686.19290 1.36391
684.14456 1.36733
682.09622 1.37107
680.04789 1.36997
677.99955 1.36515
675.95121 1.36256
673.90287 1.36329
671.85454 1.36858
669.80620 1.37916
667.75786 1.38302
665.70953 1.37766
663.66119 1.37920
661.61285 1.38754
659.56452 1.39609
657.51618 1.40080
655.46784 1.40323
653.41950 1.40387
651.37117 1.40919
649.32283 1.42121
647.27449 1.42738
645.22616 1.42577
643.17782 1.42838
641.12948 1.43681
639.08115 1.43824
637.03281 1.42627
634.98447 1.41404
632.93613 1.41271
630.88780 1.41423
628.83946 1.41270
626.79112 1.41740
624.74279 1.43178
622.69445 1.44068
620.64611 1.43476
618.59778 1.43028
616.54944 1.43947
614.50110 1.44958
612.45276 1.45109
610.40443 1.44930
608.35609 1.45227
606.30775 1.47106
604.25942 1.50137
602.21108 1.52662
600.16274 1.55115
598.11441 1.57314
