3996.30549 1.00647
3994.25716 1.00796
3992.20882 1.00917
3990.16048 1.01031
3988.11215 1.01169
3986.06381 1.01321
3984.01547 1.01460
3981.96713 1.01569
3979.91880 1.01675
3977.87046 1.01774
3975.82212 1.01849
3973.77379 1.01881
3971.72545 1.01822
3969.67711 1.01712
3967.62878 1.01588
3965.58044 1.01428
3963.53210 1.01258
3961.48376 1.01099
3959.43543 1.00893
3957.38709 1.00633
3955.33875 1.00329
3953.29042 0.99991
3951.24208 0.99664
3949.19374 0.99364
3947.14541 0.99013
3945.09707 0.98561
3943.04873 0.98109
3941.00039 0.97673
3938.95206 0.97189
3936.90372 0.96697
3934.85538 0.96247
3932.80705 0.95875
3930.75871 0.95553
3928.71037 0.95143
3926.66204 0.94718
3924.61370 0.94456
3922.56536 0.94230
3920.51702 0.93888
3918.46869 0.93633
3916.42035 0.93538
3914.37201 0.93350
3912.32368 0.93046
3910.27534 0.92798
3908.22700 0.92600
3906.17867 0.92444
3904.13033 0.92571
3902.08199 0.92861
3900.03365 0.92946
3897.98532 0.92850
3895.93698 0.92547
3893.88864 0.92221
3891.84031 0.92260
3889.79197 0.92399
3887.74363 0.92130
3885.69530 0.92006
3883.64696 0.92159
3881.59862 0.92113
3879.55028 0.92145
3877.50195 0.91983
3875.45361 0.91650
3873.40527 0.91572
3871.35694 0.91657
3869.30860 0.91901
3867.26026 0.91930
3865.21193 0.91782
3863.16359 0.91964
3861.11525 0.91969
3859.06691 0.91612
3857.01858 0.91186
3854.97024 0.90908
3852.92190 0.91663
3850.87357 0.92330
3848.82523 0.91992
3846.77689 0.91537
3844.72856 0.91311
3842.68022 0.91340
3840.63188 0.91453
3838.58354 0.91742
3836.53521 0.92031
3834.48687 0.91909
3832.43853 0.91709
3830.39020 0.91595
3828.34186 0.91476
3826.29352 0.91417
3824.24519 0.91251
3822.19685 0.91109
3820.14851 0.91632
3818.10017 0.91848
3816.05184 0.91789
3814.00350 0.91872
3811.95516 0.91637
3809.90683 0.91253
3807.85849 0.91140
3805.81015 0.91413
3803.76182 0.91427
3801.71348 0.91577
3799.66514 0.92011
3797.61680 0.91931
3795.56847 0.91812
3793.52013 0.91724
3791.47179 0.91571
3789.42346 0.91490
3787.37512 0.91471
3785.32678 0.91587
3783.27845 0.91711
3781.23011 0.91632
3779.18177 0.91695
3777.13343 0.91836
3775.08510 0.91722
3773.03676 0.91542
3770.98842 0.91554
3768.94009 0.91832
3766.89175 0.91992
3764.84341 0.92017
3762.79508 0.91933
3760.74674 0.91820
3758.69840 0.92041
3756.65006 0.92211
3754.60173 0.91957
3752.55339 0.91736
3750.50505 0.92353
3748.45672 0.92941
3746.40838 0.92738
3744.36004 0.92924
3742.31171 0.93426
3740.26337 0.93361
3738.21503 0.93083
3736.16669 0.93192
3734.11836 0.93907
3732.07002 0.94328
3730.02168 0.94267
3727.97335 0.94098
3725.92501 0.94131
3723.87667 0.94319
3721.82834 0.94397
3719.78000 0.94395
3717.73166 0.94297
3715.68332 0.94071
3713.63499 0.93856
3711.58665 0.94155
3709.53831 0.94773
3707.48998 0.94740
3705.44164 0.94418
3703.39330 0.94213
3701.34497 0.94400
3699.29663 0.94626
3697.24829 0.94600
3695.19995 0.94513
3693.15162 0.94411
3691.10328 0.94498
3689.05494 0.95202
3687.00661 0.95706
3684.95827 0.95620
3682.90993 0.95465
3680.86160 0.95447
3678.81326 0.95503
3676.76492 0.95726
3674.71658 0.96491
3672.66825 0.96749
3670.61991 0.96749
3668.57157 0.97185
3666.52324 0.97265
3664.47490 0.97109
3662.42656 0.97135
3660.37823 0.97326
3658.32989 0.97570
3656.28155 0.98024
3654.23321 0.98399
3652.18488 0.98400
3650.13654 0.98733
3648.08820 1.00005
3646.03987 1.00540
3643.99153 1.00544
3641.94319 1.00635
3639.89486 1.00891
3637.84652 1.01190
3635.79818 1.01506
3633.74984 1.01873
3631.70151 1.02157
3629.65317 1.02604
3627.60483 1.03547
3625.55650 1.03882
3623.50816 1.03834
3621.45982 1.03875
3619.41149 1.04308
3617.36315 1.04936
3615.31481 1.05195
3613.26647 1.05367
3611.21814 1.05591
3609.16980 1.05732
3607.12146 1.05779
3605.07313 1.05655
3603.02479 1.05486
3600.97645 1.05450
3598.92812 1.05398
3596.87978 1.05166
3594.83144 1.04953
3592.78310 1.04825
3590.73477 1.04622
3588.68643 1.04484
3586.63809 1.04603
3584.58976 1.04586
3582.54142 1.04377
3580.49308 1.04209
3578.44475 1.04123
3576.39641 1.04083
3574.34807 1.04073
3572.29973 1.04027
3570.25140 1.03924
3568.20306 1.03956
3566.15472 1.04299
3564.10639 1.04415
3562.05805 1.04258
3560.00971 1.04152
3557.96138 1.04140
3555.91304 1.04148
3553.86470 1.04203
3551.81636 1.04333
3549.76803 1.04420
3547.71969 1.04510
3545.67135 1.04720
3543.62302 1.04860
3541.57468 1.04823
3539.52634 1.04790
3537.47801 1.04900
3535.42967 1.05080
3533.38133 1.05166
3531.33299 1.05236
3529.28466 1.05424
3527.23632 1.05653
3525.18798 1.05813
3523.13965 1.05906
3521.09131 1.05928
3519.04297 1.05948
3516.99464 1.06057
3514.94630 1.06221
3512.89796 1.06379
3510.84962 1.06544
3508.80129 1.06726
3506.75295 1.06873
3504.70461 1.07010
3502.65628 1.07152
3500.60794 1.07196
3498.55960 1.07209
3496.51127 1.07271
3494.46293 1.07329
3492.41459 1.07374
3490.36625 1.07455
3488.31792 1.07564
3486.26958 1.07650
3484.22124 1.07722
3482.17291 1.07858
3480.12457 1.08010
3478.07623 1.08076
3476.02789 1.08108
3473.97956 1.08165
3471.93122 1.08235
3469.88288 1.08316
3467.83455 1.08436
3465.78621 1.08552
3463.73787 1.08619
3461.68954 1.08684
3459.64120 1.08746
3457.59286 1.08797
3455.54452 1.08866
3453.49619 1.08926
3451.44785 1.08955
3449.39951 1.08995
3447.35118 1.09084
3445.30284 1.09161
3443.25450 1.09191
3441.20617 1.09218
3439.15783 1.09274
3437.10949 1.09363
3435.06115 1.09414
3433.01282 1.09408
3430.96448 1.09422
3428.91614 1.09452
3426.86781 1.09452
3424.81947 1.09467
3422.77113 1.09534
3420.72280 1.09593
3418.67446 1.09623
3416.62612 1.09643
3414.57778 1.09641
3412.52945 1.09611
3410.48111 1.09568
3408.43277 1.09555
3406.38444 1.09587
3404.33610 1.09628
3402.28776 1.09658
3400.23943 1.09699
3398.19109 1.09748
3396.14275 1.09760
3394.09441 1.09738
3392.04608 1.09701
3389.99774 1.09627
3387.94940 1.09557
3385.90107 1.09545
3383.85273 1.09569
3381.80439 1.09605
3379.75606 1.09636
3377.70772 1.09627
3375.65938 1.09595
3373.61104 1.09576
3371.56271 1.09550
3369.51437 1.09529
3367.46603 1.09563
3365.41770 1.09601
3363.36936 1.09574
3361.32102 1.09520
3359.27269 1.09473
3357.22435 1.09435
3355.17601 1.09415
3353.12767 1.09405
3351.07934 1.09376
3349.03100 1.09327
3346.98266 1.09288
3344.93433 1.09246
3342.88599 1.09169
3340.83765 1.09090
3338.78932 1.09048
3336.74098 1.09028
3334.69264 1.08992
3332.64430 1.08929
3330.59597 1.08873
3328.54763 1.08856
3326.49929 1.08842
3324.45096 1.08805
3322.40262 1.08776
3320.35428 1.08759
3318.30595 1.08738
3316.25761 1.08742
3314.20927 1.08774
3312.16093 1.08815
3310.11260 1.08888
3308.06426 1.08994
3306.01592 1.09092
3303.96759 1.09152
3301.91925 1.09177
3299.87091 1.09227
3297.82258 1.09324
3295.77424 1.09392
3293.72590 1.09404
3291.67756 1.09416
3289.62923 1.09451
3287.58089 1.09480
3285.53255 1.09485
3283.48422 1.09458
3281.43588 1.09413
3279.38754 1.09396
3277.33921 1.09413
3275.29087 1.09421
3273.24253 1.09410
3271.19419 1.09390
3269.14586 1.09380
3267.09752 1.09409
3265.04918 1.09459
3263.00085 1.09519
3260.95251 1.09627
3258.90417 1.09790
3256.85584 1.09955
3254.80750 1.10081
3252.75916 1.10181
3250.71082 1.10268
3248.66249 1.10321
3246.61415 1.10310
3244.56581 1.10262
3242.51748 1.10216
3240.46914 1.10146
3238.42080 1.10046
3236.37247 1.09967
3234.32413 1.09894
3232.27579 1.09763
3230.22745 1.09583
3228.17912 1.09397
3226.13078 1.09212
3224.08244 1.09055
3222.03411 1.08967
3219.98577 1.08924
3217.93743 1.08881
3215.88910 1.08821
3213.84076 1.08750
3211.79242 1.08666
3209.74408 1.08581
3207.69575 1.08509
3205.64741 1.08436
3203.59907 1.08378
3201.55074 1.08358
3199.50240 1.08358
3197.45406 1.08346
3195.40573 1.08303
3193.35739 1.08234
3191.30905 1.08157
3189.26071 1.08077
3187.21238 1.07998
3185.16404 1.07922
3183.11570 1.07808
3181.06737 1.07634
3179.01903 1.07425
3176.97069 1.07166
3174.92236 1.06860
3172.87402 1.06581
3170.82568 1.06353
3168.77734 1.06137
3166.72901 1.05933
3164.68067 1.05772
3162.63233 1.05657
3160.58400 1.05551
3158.53566 1.05455
3156.48732 1.05400
3154.43899 1.05371
3152.39065 1.05340
3150.34231 1.05319
3148.29397 1.05312
3146.24564 1.05308
3144.19730 1.05302
3142.14896 1.05300
3140.10063 1.05300
3138.05229 1.05296
3136.00395 1.05311
3133.95562 1.05354
3131.90728 1.05386
3129.85894 1.05398
3127.81060 1.05411
3125.76227 1.05438
3123.71393 1.05498
3121.66559 1.05597
3119.61726 1.05706
3117.56892 1.05796
3115.52058 1.05879
3113.47225 1.05966
3111.42391 1.06065
3109.37557 1.06173
3107.32723 1.06290
3105.27890 1.06433
3103.23056 1.06604
3101.18222 1.06776
3099.13389 1.06889
3097.08555 1.06984
3095.03721 1.07145
3092.98888 1.07355
3090.94054 1.07570
3088.89220 1.07779
3086.84386 1.07973
3084.79553 1.08191
3082.74719 1.08462
3080.69885 1.08756
3078.65052 1.09049
3076.60218 1.09326
3074.55384 1.09628
3072.50551 1.10000
3070.45717 1.10423
3068.40883 1.10861
3066.36049 1.11305
3064.31216 1.11759
3062.26382 1.12249
3060.21548 1.12797
3058.16715 1.13377
3056.11881 1.14006
3054.07047 1.14732
3052.02214 1.15537
3049.97380 1.16428
3047.92546 1.17481
3045.87712 1.18768
3043.82879 1.20365
3041.78045 1.22381
3039.73211 1.24978
3037.68378 1.28417
3035.63544 1.33042
3033.58710 1.39018
3031.53877 1.45959
3029.49043 1.52739
3027.44209 1.58138
3025.39375 1.61745
3023.34542 1.63759
3021.29708 1.64619
3019.24874 1.64575
3017.20041 1.63658
3015.15207 1.62185
3013.10373 1.60669
3011.05540 1.59399
3009.00706 1.58401
3006.95872 1.57621
3004.91038 1.57036
3002.86205 1.56734
3000.81371 1.56729
2998.76537 1.56861
2996.71704 1.56992
2994.66870 1.57026
2992.62036 1.56911
2990.57203 1.56555
2988.52369 1.55908
2986.47535 1.55080
2984.42701 1.54189
2982.37868 1.53257
2980.33034 1.52244
2978.28200 1.51203
2976.23367 1.50234
2974.18533 1.49290
2972.13699 1.48268
2970.08866 1.47225
2968.04032 1.46299
2965.99198 1.45539
2963.94364 1.44993
2961.89531 1.44755
2959.84697 1.44984
2957.79863 1.45791
2955.75030 1.46975
2953.70196 1.48117
2951.65362 1.48915
2949.60529 1.49391
2947.55695 1.49788
2945.50861 1.50270
2943.46027 1.50878
2941.41194 1.51578
2939.36360 1.52222
2937.31526 1.52694
2935.26693 1.53064
2933.21859 1.53481
2931.17025 1.54033
2929.12192 1.54658
2927.07358 1.55249
2925.02524 1.55872
2922.97690 1.56633
2920.92857 1.57540
2918.88023 1.58586
2916.83189 1.59823
2914.78356 1.61350
2912.73522 1.63331
2910.68688 1.65844
2908.63855 1.68622
2906.59021 1.71253
2904.54187 1.73613
2902.49353 1.75540
2900.44520 1.76687
2898.39686 1.77146
2896.34852 1.77164
2894.30019 1.76740
2892.25185 1.75980
2890.20351 1.75152
2888.15517 1.74256
2886.10684 1.73259
2884.05850 1.72231
2882.01016 1.71055
2879.96183 1.69675
2877.91349 1.68152
2875.86515 1.66501
2873.81682 1.64721
2871.76848 1.62873
2869.72014 1.61011
2867.67180 1.58973
2865.62347 1.56496
2863.57513 1.53605
2861.52679 1.50458
2859.47846 1.47068
2857.43012 1.43493
2855.38178 1.39918
2853.33345 1.36520
2851.28511 1.33321
2849.23677 1.30223
2847.18843 1.27217
2845.14010 1.24406
2843.09176 1.21872
2841.04342 1.19626
2838.99509 1.17641
2836.94675 1.15904
2834.89841 1.14394
2832.85008 1.13077
2830.80174 1.11971
2828.75340 1.11105
2826.70506 1.10503
2824.65673 1.10223
2822.60839 1.10308
2820.56005 1.10640
2818.51172 1.10890
2816.46338 1.10701
2814.41504 1.09904
2812.36671 1.08668
2810.31837 1.07345
2808.27003 1.06170
2806.22169 1.05205
2804.17336 1.04427
2802.12502 1.03810
2800.07668 1.03348
2798.02835 1.02997
2795.98001 1.02683
2793.93167 1.02399
2791.88334 1.02187
2789.83500 1.02046
2787.78666 1.01910
2785.73832 1.01760
2783.68999 1.01641
2781.64165 1.01566
2779.59331 1.01504
2777.54498 1.01425
2775.49664 1.01325
2773.44830 1.01226
2771.39997 1.01150
2769.35163 1.01096
2767.30329 1.01041
2765.25495 1.00980
2763.20662 1.00918
2761.15828 1.00860
2759.10994 1.00828
2757.06161 1.00809
2755.01327 1.00761
2752.96493 1.00708
2750.91660 1.00676
2748.86826 1.00653
2746.81992 1.00660
2744.77158 1.00722
2742.72325 1.00789
2740.67491 1.00833
2738.62657 1.00897
2736.57824 1.00976
2734.52990 1.01050
2732.48156 1.01138
2730.43323 1.01233
2728.38489 1.01345
2726.33655 1.01485
2724.28821 1.01616
2722.23988 1.01741
2720.19154 1.01884
2718.14320 1.02047
2716.09487 1.02259
2714.04653 1.02526
2711.99819 1.02804
2709.94986 1.03097
2707.90152 1.03444
2705.85318 1.03850
2703.80484 1.04262
2701.75651 1.04659
2699.70817 1.05073
2697.65983 1.05490
2695.61150 1.05881
2693.56316 1.06260
2691.51482 1.06648
2689.46649 1.07044
2687.41815 1.07441
2685.36981 1.07859
2683.32147 1.08330
2681.27314 1.08877
2679.22480 1.09540
2677.17646 1.10392
2675.12813 1.11505
2673.07979 1.12944
2671.03145 1.14738
2668.98312 1.16866
2666.93478 1.19284
2664.88644 1.21923
2662.83810 1.24673
2660.78977 1.27418
2658.74143 1.30101
2656.69309 1.32698
2654.64476 1.35189
2652.59642 1.37600
2650.54808 1.40018
2648.49975 1.42539
2646.45141 1.45151
2644.40307 1.47782
2642.35473 1.50514
2640.30640 1.53415
2638.25806 1.56284
2636.20972 1.58923
2634.16139 1.61452
2632.11305 1.63924
2630.06471 1.65934
2628.01638 1.66970
2625.96804 1.66675
2623.91970 1.65021
2621.87136 1.62521
2619.82303 1.59740
2617.77469 1.56899
2615.72635 1.54093
2613.67802 1.51527
2611.62968 1.49315
2609.58134 1.47447
2607.53301 1.45982
2605.48467 1.44965
2603.43633 1.44513
2601.38799 1.44949
2599.33966 1.46571
2597.29132 1.49439
2595.24298 1.53243
2593.19465 1.57393
2591.14631 1.61252
2589.09797 1.64403
2587.04964 1.66721
2585.00130 1.68306
2582.95296 1.69526
2580.90462 1.70696
2578.85629 1.71858
2576.80795 1.72897
2574.75961 1.73627
2572.71128 1.74035
2570.66294 1.74288
2568.61460 1.74720
2566.56627 1.75867
2564.51793 1.77921
2562.46959 1.80647
2560.42125 1.83845
2558.37292 1.87200
2556.32458 1.90421
2554.27624 1.93426
2552.22791 1.95753
2550.17957 1.97135
2548.13123 1.98006
2546.08290 1.98886
2544.03456 2.00042
2541.98622 2.01297
2539.93788 2.02408
2537.88955 2.03315
2535.84121 2.03900
2533.79287 2.04267
2531.74454 2.04634
2529.69620 2.04998
2527.64786 2.05268
2525.59953 2.05449
2523.55119 2.05368
2521.50285 2.04355
2519.45451 2.02055
2517.40618 1.98335
2515.35784 1.92980
2513.30950 1.86625
2511.26117 1.80316
2509.21283 1.74526
2507.16449 1.69237
2505.11616 1.64440
2503.06782 1.60142
2501.01948 1.56225
2498.97114 1.52494
2496.92281 1.48835
2494.87447 1.45264
2492.82613 1.41854
2490.77780 1.38686
2488.72946 1.35790
2486.68112 1.33171
2484.63279 1.30848
2482.58445 1.28777
2480.53611 1.26879
2478.48777 1.25134
2476.43944 1.23535
2474.39110 1.22072
2472.34276 1.20755
2470.29443 1.19561
2468.24609 1.18457
2466.19775 1.17439
2464.14942 1.16472
2462.10108 1.15517
2460.05274 1.14583
2458.00440 1.13683
2455.95607 1.12823
2453.90773 1.12023
2451.85939 1.11302
2449.81106 1.10651
2447.76272 1.10052
2445.71438 1.09483
2443.66605 1.08929
2441.61771 1.08427
2439.56937 1.07999
2437.52103 1.07645
2435.47270 1.07342
2433.42436 1.07039
2431.37602 1.06742
2429.32769 1.06516
2427.27935 1.06365
2425.23101 1.06231
2423.18268 1.06101
2421.13434 1.05998
2419.08600 1.05922
2417.03766 1.05864
2414.98933 1.05808
2412.94099 1.05759
2410.89265 1.05702
2408.84432 1.05535
2406.79598 1.05216
2404.74764 1.04835
2402.69931 1.04454
2400.65097 1.04098
2398.60263 1.03780
2396.55429 1.03482
2394.50596 1.03198
2392.45762 1.02953
2390.40928 1.02774
2388.36095 1.02662
2386.31261 1.02602
2384.26427 1.02618
2382.21594 1.02788
2380.16760 1.03165
2378.11926 1.03728
2376.07092 1.04436
2374.02259 1.05253
2371.97425 1.06085
2369.92591 1.06781
2367.87758 1.07249
2365.82924 1.07577
2363.78090 1.07903
2361.73257 1.08155
2359.68423 1.08287
2357.63589 1.08260
2355.58755 1.07952
2353.53922 1.07559
2351.49088 1.07145
2349.44254 1.06706
2347.39421 1.06495
2345.34587 1.06837
2343.29753 1.07654
2341.24920 1.08294
2339.20086 1.08593
2337.15252 1.08711
2335.10418 1.08714
2333.05585 1.08636
2331.00751 1.08537
2328.95917 1.08441
2326.91084 1.08300
2324.86250 1.08051
2322.81416 1.07745
2320.76582 1.07435
2318.71749 1.07100
2316.66915 1.06708
2314.62081 1.06229
2312.57248 1.05722
2310.52414 1.05240
2308.47580 1.04718
2306.42747 1.04072
2304.37913 1.03290
2302.33079 1.02432
2300.28245 1.01569
2298.23412 1.00823
2296.18578 1.00329
2294.13744 1.00090
2292.08911 1.00027
2290.04077 1.00113
2287.99243 1.00313
2285.94410 1.00565
2283.89576 1.00840
2281.84742 1.01168
2279.79908 1.01597
2277.75075 1.02086
2275.70241 1.02558
2273.65407 1.03011
2271.60574 1.03488
2269.55740 1.04013
2267.50906 1.04594
2265.46073 1.05197
2263.41239 1.05754
2261.36405 1.06235
2259.31571 1.06660
2257.26738 1.07035
2255.21904 1.07310
2253.17070 1.07441
2251.12237 1.07439
2249.07403 1.07294
2247.02569 1.06959
2244.97736 1.06431
2242.92902 1.05792
2240.88068 1.05139
2238.83234 1.04526
2236.78401 1.03952
2234.73567 1.03440
2232.68733 1.03050
2230.63900 1.02797
2228.59066 1.02689
2226.54232 1.02771
2224.49399 1.03052
2222.44565 1.03519
2220.39731 1.04163
2218.34897 1.04918
2216.30064 1.05693
2214.25230 1.06402
2212.20396 1.06982
2210.15563 1.07428
2208.10729 1.07796
2206.05895 1.08133
2204.01062 1.08465
2201.96228 1.08811
2199.91394 1.09199
2197.86560 1.09667
2195.81727 1.10208
2193.76893 1.10773
2191.72059 1.11340
2189.67226 1.11937
2187.62392 1.12579
2185.57558 1.13278
2183.52725 1.14034
2181.47891 1.14836
2179.43057 1.15693
2177.38223 1.16621
2175.33390 1.17563
2173.28556 1.18422
2171.23722 1.19153
2169.18889 1.19746
2167.14055 1.20157
2165.09221 1.20353
2163.04388 1.20374
2160.99554 1.20270
2158.94720 1.20068
2156.89886 1.19809
2154.85053 1.19500
2152.80219 1.19098
2150.75385 1.18538
2148.70552 1.17736
2146.65718 1.16655
2144.60884 1.15306
2142.56051 1.13744
2140.51217 1.12081
2138.46383 1.10432
2136.41549 1.08884
2134.36716 1.07494
2132.31882 1.06294
2130.27048 1.05292
2128.22215 1.04487
2126.17381 1.03821
2124.12547 1.03208
2122.07714 1.02648
2120.02880 1.02180
2117.98046 1.01777
2115.93212 1.01414
2113.88379 1.01123
2111.83545 1.00892
2109.78711 1.00659
2107.73878 1.00440
2105.69044 1.00273
2103.64210 1.00126
2101.59377 0.99981
2099.54543 0.99853
2097.49709 0.99770
2095.44875 0.99739
2093.40042 0.99713
2091.35208 0.99683
2089.30374 0.99685
2087.25541 0.99685
2085.20707 0.99646
2083.15873 0.99589
2081.11040 0.99560
2079.06206 0.99562
2077.01372 0.99542
2074.96538 0.99506
2072.91705 0.99496
2070.86871 0.99485
2068.82037 0.99452
2066.77204 0.99436
2064.72370 0.99445
2062.67536 0.99406
2060.62703 0.99304
2058.57869 0.99242
2056.53035 0.99247
2054.48201 0.99259
2052.43368 0.99263
2050.38534 0.99269
2048.33700 0.99278
2046.28867 0.99299
2044.24033 0.99334
2042.19199 0.99395
2040.14366 0.99460
2038.09532 0.99482
2036.04698 0.99479
2033.99864 0.99495
2031.95031 0.99543
2029.90197 0.99600
2027.85363 0.99639
2025.80530 0.99667
2023.75696 0.99709
2021.70862 0.99779
2019.66029 0.99880
2017.61195 1.00008
2015.56361 1.00115
2013.51527 1.00188
2011.46694 1.00267
2009.41860 1.00337
2007.37026 1.00392
2005.32193 1.00452
2003.27359 1.00545
2001.22525 1.00672
1999.17692 1.00825
1997.12858 1.00994
1995.08024 1.01193
1993.03190 1.01509
1990.98357 1.01947
1988.93523 1.02398
1986.88689 1.02956
1984.83856 1.03749
1982.79022 1.04837
1980.74188 1.06305
1978.69355 1.08119
1976.64521 1.09875
1974.59687 1.10781
1972.54853 1.10327
1970.50020 1.08881
1968.45186 1.07298
1966.40352 1.06119
1964.35519 1.05437
1962.30685 1.05122
1960.25851 1.05021
1958.21018 1.05026
1956.16184 1.05121
1954.11350 1.05288
1952.06516 1.05459
1950.01683 1.05651
1947.96849 1.05889
1945.92015 1.06146
1943.87182 1.06444
1941.82348 1.06853
1939.77514 1.07240
1937.72681 1.07578
1935.67847 1.07996
1933.63013 1.08477
1931.58179 1.08965
1929.53346 1.09422
1927.48512 1.09852
1925.43678 1.10270
1923.38845 1.10796
1921.34011 1.11351
1919.29177 1.11847
1917.24344 1.12456
1915.19510 1.13028
1913.14676 1.13502
1911.09842 1.14103
1909.05009 1.14924
1907.00175 1.15779
1904.95341 1.16560
1902.90508 1.17373
1900.85674 1.18253
1898.80840 1.19130
1896.76007 1.20085
1894.71173 1.21156
1892.66339 1.22086
1890.61505 1.22921
1888.56672 1.23794
1886.51838 1.24492
1884.47004 1.25069
1882.42171 1.25710
1880.37337 1.26375
1878.32503 1.27034
1876.27670 1.27678
1874.22836 1.28322
1872.18002 1.28971
1870.13168 1.29875
1868.08335 1.31282
1866.03501 1.32593
1863.98667 1.33665
1861.93834 1.34841
1859.89000 1.36226
1857.84166 1.37768
1855.79333 1.39455
1853.74499 1.41351
1851.69665 1.43572
1849.64831 1.46162
1847.59998 1.49132
1845.55164 1.52821
1843.50330 1.57985
1841.45497 1.63199
1839.40663 1.68156
1837.35829 1.74506
1835.30996 1.82281
1833.26162 1.90443
1831.21328 2.00074
1829.16494 2.13128
1827.11661 2.24677
1825.06827 2.32339
1823.01993 2.37516
1820.97160 2.39968
1818.92326 2.41033
1816.87492 2.41508
1814.82659 2.40944
1812.77825 2.38981
1810.72991 2.35694
1808.68157 2.31273
1806.63324 2.26324
1804.58490 2.21666
1802.53656 2.17008
1800.48823 2.11987
1798.43989 2.07887
1796.39155 2.04886
1794.34322 2.01991
1792.29488 1.98601
1790.24654 1.95748
1788.19820 1.94036
1786.14987 1.92608
1784.10153 1.91194
1782.05319 1.90097
1780.00486 1.89227
1777.95652 1.88420
1775.90818 1.87784
1773.85985 1.87218
1771.81151 1.86483
1769.76317 1.85837
1767.71483 1.85330
1765.66650 1.84958
1763.61816 1.84751
1761.56982 1.84537
1759.52149 1.84499
1757.47315 1.84739
1755.42481 1.84942
1753.37648 1.85118
1751.32814 1.85797
1749.27980 1.87110
1747.23146 1.88313
1745.18313 1.89279
1743.13479 1.90123
1741.08645 1.90765
1739.03812 1.91204
1736.98978 1.91387
1734.94144 1.91304
1732.89310 1.91592
1730.84477 1.92494
1728.79643 1.93395
1726.74809 1.94153
1724.69976 1.94935
1722.65142 1.95733
1720.60308 1.96296
1718.55475 1.96701
1716.50641 1.97338
1714.45807 1.98091
1712.40973 1.98664
1710.36140 1.99332
1708.31306 2.00211
1706.26472 2.01524
1704.21639 2.02943
1702.16805 2.03811
1700.11971 2.04877
1698.07138 2.06578
1696.02304 2.08261
1693.97470 2.09369
1691.92636 2.10136
1689.87803 2.11292
1687.82969 2.12598
1685.78135 2.13917
1683.73302 2.15983
1681.68468 2.17473
1679.63634 2.18633
1677.58801 2.20111
1675.53967 2.22060
1673.49133 2.23951
1671.44299 2.24968
1669.39466 2.26063
1667.34632 2.27550
1665.29798 2.29031
1663.24965 2.31220
1661.20131 2.33491
1659.15297 2.34733
1657.10464 2.35658
1655.05630 2.37012
1653.00796 2.39565
1650.95962 2.40875
1648.91129 2.41399
1646.86295 2.42351
1644.81461 2.43003
1642.76628 2.42990
1640.71794 2.42572
1638.66960 2.41557
1636.62127 2.39397
1634.57293 2.36432
1632.52459 2.34561
1630.47625 2.32867
1628.42792 2.30659
1626.37958 2.28385
1624.33124 2.26346
1622.28291 2.23770
1620.23457 2.21743
1618.18623 2.20518
1616.13790 2.18675
1614.08956 2.16645
1612.04122 2.15267
1609.99288 2.14083
1607.94455 2.12289
1605.89621 2.09789
1603.84787 2.06831
1601.79954 2.03263
1599.75120 1.99335
1597.70286 1.95504
1595.65453 1.91362
1593.60619 1.86365
1591.55785 1.80865
1589.50951 1.75209
1587.46118 1.69650
1585.41284 1.64281
1583.36450 1.59044
1581.31617 1.54175
1579.26783 1.50101
1577.21949 1.45317
1575.17116 1.39044
1573.12282 1.35487
1571.07448 1.33562
1569.02614 1.31980
1566.97781 1.31348
1564.92947 1.31417
1562.88113 1.31656
1560.83280 1.31995
1558.78446 1.33199
1556.73612 1.34527
1554.68779 1.35141
1552.63945 1.35848
1550.59111 1.36715
1548.54277 1.37677
1546.49444 1.38560
1544.44610 1.39592
1542.39776 1.40808
1540.34943 1.42246
1538.30109 1.43405
1536.25275 1.43881
1534.20442 1.44616
1532.15608 1.45646
1530.10774 1.46329
1528.05940 1.47032
1526.01107 1.48036
1523.96273 1.48941
1521.91439 1.49831
1519.86606 1.50689
1517.81772 1.51376
1515.76938 1.52180
1513.72105 1.52856
1511.67271 1.53456
1509.62437 1.54144
1507.57603 1.55700
1505.52770 1.57930
1503.47936 1.58709
1501.43102 1.59327
1499.38269 1.60182
1497.33435 1.61221
1495.28601 1.62028
1493.23768 1.62472
1491.18934 1.63048
1489.14100 1.64043
1487.09266 1.64739
1485.04433 1.65055
1482.99599 1.65352
1480.94765 1.65716
1478.89932 1.66099
1476.85098 1.66540
1474.80264 1.67111
1472.75431 1.67691
1470.70597 1.68039
1468.65763 1.68217
1466.60929 1.68472
1464.56096 1.68887
1462.51262 1.69218
1460.46428 1.69425
1458.41595 1.69863
1456.36761 1.70708
1454.31927 1.71089
1452.27094 1.71320
1450.22260 1.71643
1448.17426 1.72035
1446.12592 1.72334
1444.07759 1.72443
1442.02925 1.72448
1439.98091 1.72405
1437.93258 1.72298
1435.88424 1.72117
1433.83590 1.71852
1431.78757 1.71487
1429.73923 1.71025
1427.69089 1.70676
1425.64255 1.70710
1423.59422 1.71180
1421.54588 1.72112
1419.49754 1.74399
1417.44921 1.78301
1415.40087 1.81341
1413.35253 1.83643
1411.30420 1.85604
1409.25586 1.86865
1407.20752 1.87628
1405.15918 1.88509
1403.11085 1.89278
1401.06251 1.89656
1399.01417 1.89961
1396.96584 1.90148
1394.91750 1.89828
1392.86916 1.89208
1390.82083 1.88800
1388.77249 1.88500
1386.72415 1.88042
1384.67581 1.87457
1382.62748 1.86919
1380.57914 1.86417
1378.53080 1.85949
1376.48247 1.85472
1374.43413 1.84822
1372.38579 1.84029
1370.33746 1.83340
1368.28912 1.82615
1366.24078 1.81879
1364.19244 1.81360
1362.14411 1.80872
1360.09577 1.80238
1358.04743 1.79612
1355.99910 1.79114
1353.95076 1.78796
1351.90242 1.78553
1349.85409 1.78297
1347.80575 1.78158
1345.75741 1.78222
1343.70907 1.78403
1341.66074 1.78585
1339.61240 1.78487
1337.56406 1.77842
1335.51573 1.76955
1333.46739 1.76011
1331.41905 1.74885
1329.37072 1.73527
1327.32238 1.72212
1325.27404 1.71259
1323.22570 1.70643
1321.17737 1.70099
1319.12903 1.69429
1317.08069 1.68639
1315.03236 1.67831
1312.98402 1.67051
1310.93568 1.66432
1308.88735 1.66259
1306.83901 1.66645
1304.79067 1.67245
1302.74233 1.67723
1300.69400 1.67986
1298.64566 1.67967
1296.59732 1.67769
1294.54899 1.67521
1292.50065 1.67131
1290.45231 1.66514
1288.40398 1.65720
1286.35564 1.64779
1284.30730 1.63704
1282.25896 1.62594
1280.21063 1.61616
1278.16229 1.60882
1276.11395 1.60382
1274.06562 1.60130
1272.01728 1.60261
1269.96894 1.60839
1267.92061 1.61690
1265.87227 1.62465
1263.82393 1.62894
1261.77559 1.62910
1259.72726 1.62568
1257.67892 1.62071
1255.63058 1.61694
1253.58225 1.61560
1251.53391 1.61567
1249.48557 1.61612
1247.43724 1.61714
1245.38890 1.61932
1243.34056 1.62273
1241.29222 1.62700
1239.24389 1.63209
1237.19555 1.63846
1235.14721 1.64634
1233.09888 1.65396
1231.05054 1.65730
1229.00220 1.65298
1226.95387 1.64108
1224.90553 1.62352
1222.85719 1.60254
1220.80885 1.58144
1218.76052 1.56359
1216.71218 1.55123
1214.66384 1.54465
1212.61551 1.54215
1210.56717 1.54115
1208.51883 1.54040
1206.47050 1.54023
1204.42216 1.54178
1202.37382 1.54760
1200.32548 1.55952
1198.27715 1.57550
1196.22881 1.59133
1194.18047 1.60327
1192.13214 1.60920
1190.08380 1.60957
1188.03546 1.60593
1185.98713 1.59887
1183.93879 1.58904
1181.89045 1.57685
1179.84211 1.56199
1177.79378 1.54575
1175.74544 1.53105
1173.69710 1.51930
1171.64877 1.50916
1169.60043 1.49881
1167.55209 1.48789
1165.50376 1.47736
1163.45542 1.46831
1161.40708 1.46185
1159.35874 1.45916
1157.31041 1.46032
1155.26207 1.46432
1153.21373 1.46904
1151.16540 1.47244
1149.11706 1.47404
1147.06872 1.47373
1145.02038 1.47038
1142.97205 1.46283
1140.92371 1.45167
1138.87537 1.43968
1136.82704 1.43077
1134.77870 1.42714
1132.73036 1.42807
1130.68203 1.43162
1128.63369 1.43532
1126.58535 1.43684
1124.53701 1.43574
1122.48868 1.43316
1120.44034 1.43056
1118.39200 1.42891
1116.34367 1.42753
1114.29533 1.42487
1112.24699 1.42164
1110.19866 1.42111
1108.15032 1.42604
1106.10198 1.43895
1104.05364 1.46479
1102.00531 1.50337
1099.95697 1.53356
1097.90863 1.52707
1095.86030 1.49271
1093.81196 1.46190
1091.76362 1.44748
1089.71529 1.44379
1087.66695 1.43995
1085.61861 1.43072
1083.57027 1.41989
1081.52194 1.41244
1079.47360 1.40870
1077.42526 1.40668
1075.37693 1.40518
1073.32859 1.40420
1071.28025 1.40258
1069.23192 1.39736
1067.18358 1.38809
1065.13524 1.37778
1063.08690 1.36915
1061.03857 1.36280
1058.99023 1.35804
1056.94189 1.35462
1054.89356 1.35271
1052.84522 1.35268
1050.79688 1.35622
1048.74855 1.36439
1046.70021 1.37510
1044.65187 1.38467
1042.60353 1.39091
1040.55520 1.39446
1038.50686 1.39777
1036.45852 1.40198
1034.41019 1.40614
1032.36185 1.40860
1030.31351 1.40890
1028.26518 1.40824
1026.21684 1.40662
1024.16850 1.40176
1022.12016 1.39189
1020.07183 1.37833
1018.02349 1.36518
1015.97515 1.35571
1013.92682 1.34927
1011.87848 1.34362
1009.83014 1.33811
1007.78181 1.33309
1005.73347 1.32845
1003.68513 1.32387
1001.63679 1.31954
999.58846 1.31629
997.54012 1.31513
995.49178 1.31537
993.44345 1.31472
991.39511 1.31244
989.34677 1.31012
987.29844 1.30869
985.25010 1.30708
983.20176 1.30394
981.15342 1.29869
979.10509 1.29283
977.05675 1.28934
975.00841 1.28867
972.96008 1.28713
970.91174 1.28169
968.86340 1.27470
966.81507 1.27020
964.76673 1.26837
962.71839 1.26716
960.67005 1.26630
958.62172 1.26676
956.57338 1.26886
954.52504 1.27240
952.47671 1.27635
950.42837 1.27915
948.38003 1.28029
946.33170 1.28010
944.28336 1.27921
942.23502 1.27851
940.18668 1.27807
938.13835 1.27716
936.09001 1.27624
934.04167 1.27726
931.99334 1.28074
929.94500 1.28480
927.89666 1.28833
925.84833 1.29147
923.79999 1.29344
921.75165 1.29410
919.70331 1.29499
917.65498 1.29635
915.60664 1.29752
913.55830 1.30005
911.50997 1.30457
909.46163 1.30980
907.41329 1.31488
905.36496 1.31689
903.31662 1.31309
901.26828 1.30213
899.21994 1.28572
897.17161 1.28102
895.12327 1.31206
893.07493 1.38338
891.02660 1.47513
888.97826 1.56255
886.92992 1.63557
884.88159 1.69644
882.83325 1.75182
880.78491 1.80736
878.73657 1.86134
876.68824 1.90386
874.63990 1.91934
872.59156 1.89850
870.54323 1.84684
868.49489 1.77961
866.44655 1.70335
864.39822 1.62202
862.34988 1.54923
860.30154 1.49853
858.25320 1.48337
856.20487 1.52707
854.15653 1.61596
852.10819 1.62939
850.05986 1.52471
848.01152 1.41379
845.96318 1.33968
843.91485 1.29542
841.86651 1.27072
839.81817 1.25902
837.76983 1.25521
835.72150 1.25294
833.67316 1.24813
831.62482 1.24192
829.57649 1.23640
827.52815 1.23235
825.47981 1.23111
823.43148 1.23258
821.38314 1.23475
819.33480 1.23494
817.28646 1.23294
815.23813 1.23090
813.18979 1.22880
811.14145 1.22687
809.09312 1.22716
807.04478 1.22994
804.99644 1.23529
802.94811 1.24312
800.89977 1.24944
798.85143 1.25026
796.80309 1.24707
794.75476 1.24272
792.70642 1.23719
790.65808 1.23139
788.60975 1.22768
786.56141 1.22683
784.51307 1.22830
782.46474 1.23014
780.41640 1.22958
778.36806 1.22707
776.31972 1.22590
774.27139 1.22702
772.22305 1.22982
770.17471 1.23465
768.12638 1.24317
766.07804 1.25669
764.02970 1.27377
761.98137 1.29295
759.93303 1.31518
757.88469 1.34196
755.83635 1.37476
753.78802 1.41377
751.73968 1.45606
749.69134 1.50071
747.64301 1.55180
745.59467 1.61394
743.54633 1.69160
741.49800 1.79159
739.44966 1.92602
737.40132 2.10738
735.35298 2.33129
733.30465 2.52518
731.25631 2.52483
729.20797 2.39771
727.15964 2.29472
725.11130 2.21022
723.06296 2.11166
721.01463 2.00168
718.96629 1.90711
716.91795 1.84108
714.86961 1.79221
712.82128 1.75024
710.77294 1.71254
708.72460 1.67987
706.67627 1.65295
704.62793 1.62791
702.57959 1.60265
700.53126 1.58265
698.48292 1.57027
696.43458 1.56119
694.38624 1.55308
692.33791 1.54740
690.28957 1.54509
688.24123 1.54420
686.19290 1.54236
684.14456 1.54065
682.09622 1.54179
680.04789 1.54759
677.99955 1.55635
675.95121 1.56213
673.90287 1.56291
671.85454 1.56185
669.80620 1.56389
667.75786 1.57729
665.70953 1.59020
663.66119 1.59610
661.61285 1.60341
659.56452 1.61734
657.51618 1.63131
655.46784 1.63881
653.41950 1.64861
651.37117 1.65913
649.32283 1.66303
647.27449 1.66691
645.22616 1.66827
643.17782 1.66116
641.12948 1.65173
639.08115 1.64204
637.03281 1.62562
634.98447 1.61146
632.93613 1.61163
630.88780 1.60847
628.83946 1.59837
626.79112 1.59290
624.74279 1.58583
622.69445 1.58201
620.64611 1.58961
618.59778 1.60558
616.54944 1.62281
614.50110 1.64647
612.45276 1.67948
610.40443 1.68970
608.35609 1.68553
606.30775 1.71234
604.25942 1.75320
602.21108 1.76263
600.16274 1.76956
598.11441 1.79864
