3996.30549 0.96147
3994.25716 0.96262
3992.20882 0.96372
3990.16048 0.96483
3988.11215 0.96578
3986.06381 0.96678
3984.01547 0.96821
3981.96713 0.96939
3979.91880 0.96979
3977.87046 0.96998
3975.82212 0.97050
3973.77379 0.97102
3971.72545 0.97091
3969.67711 0.97014
3967.62878 0.96900
3965.58044 0.96787
3963.53210 0.96674
3961.48376 0.96516
3959.43543 0.96302
3957.38709 0.96091
3955.33875 0.95872
3953.29042 0.95602
3951.24208 0.95329
3949.19374 0.95095
3947.14541 0.94802
3945.09707 0.94422
3943.04873 0.94038
3941.00039 0.93652
3938.95206 0.93247
3936.90372 0.92850
3934.85538 0.92492
3932.80705 0.92231
3930.75871 0.92046
3928.71037 0.91752
3926.66204 0.91386
3924.61370 0.91110
3922.56536 0.90868
3920.51702 0.90594
3918.46869 0.90433
3916.42035 0.90381
3914.37201 0.90232
3912.32368 0.90004
3910.27534 0.89808
3908.22700 0.89631
3906.17867 0.89512
3904.13033 0.89635
3902.08199 0.89868
3900.03365 0.89942
3897.98532 0.89897
3895.93698 0.89676
3893.88864 0.89422
3891.84031 0.89445
3889.79197 0.89518
3887.74363 0.89303
3885.69530 0.89233
3883.64696 0.89329
3881.59862 0.89245
3879.55028 0.89283
3877.50195 0.89186
3875.45361 0.88914
3873.40527 0.88844
3871.35694 0.88925
3869.30860 0.89124
3867.26026 0.89145
3865.21193 0.89010
3863.16359 0.89146
3861.11525 0.89196
3859.06691 0.88962
3857.01858 0.88636
3854.97024 0.88407
3852.92190 0.89032
3850.87357 0.89545
3848.82523 0.89240
3846.77689 0.88842
3844.72856 0.88617
3842.68022 0.88644
3840.63188 0.88800
3838.58354 0.89087
3836.53521 0.89362
3834.48687 0.89265
3832.43853 0.89071
3830.39020 0.88962
3828.34186 0.88868
3826.29352 0.88843
3824.24519 0.88728
3822.19685 0.88599
3820.14851 0.89005
3818.10017 0.89190
3816.05184 0.89157
3814.00350 0.89211
3811.95516 0.88986
3809.90683 0.88655
3807.85849 0.88584
3805.81015 0.88872
3803.76182 0.88923
3801.71348 0.89004
3799.66514 0.89276
3797.61680 0.89190
3795.56847 0.89089
3793.52013 0.89011
3791.47179 0.88919
3789.42346 0.88918
3787.37512 0.88943
3785.32678 0.88996
3783.27845 0.89002
3781.23011 0.88903
3779.18177 0.88983
3777.13343 0.89130
3775.08510 0.89043
3773.03676 0.88882
3770.98842 0.88882
3768.94009 0.89145
3766.89175 0.89314
3764.84341 0.89319
3762.79508 0.89238
3760.74674 0.89168
3758.69840 0.89410
3756.65006 0.89626
3754.60173 0.89470
3752.55339 0.89323
3750.50505 0.89835
3748.45672 0.90296
3746.40838 0.90147
3744.36004 0.90309
3742.31171 0.90664
3740.26337 0.90582
3738.21503 0.90379
3736.16669 0.90509
3734.11836 0.91089
3732.07002 0.91334
3730.02168 0.91184
3727.97335 0.91025
3725.92501 0.91098
3723.87667 0.91338
3721.82834 0.91470
3719.78000 0.91421
3717.73166 0.91243
3715.68332 0.91023
3713.63499 0.90875
3711.58665 0.91151
3709.53831 0.91634
3707.48998 0.91592
3705.44164 0.91357
3703.39330 0.91217
3701.34497 0.91342
3699.29663 0.91477
3697.24829 0.91445
3695.19995 0.91416
3693.15162 0.91406
3691.10328 0.91509
3689.05494 0.92004
3687.00661 0.92332
3684.95827 0.92220
3682.90993 0.92057
3680.86160 0.92028
3678.81326 0.92093
3676.76492 0.92316
3674.71658 0.92993
3672.66825 0.93216
3670.61991 0.93212
3668.57157 0.93613
3666.52324 0.93722
3664.47490 0.93611
3662.42656 0.93643
3660.37823 0.93806
3658.32989 0.93994
3656.28155 0.94340
3654.23321 0.94664
3652.18488 0.94739
3650.13654 0.95129
3648.08820 0.96234
3646.03987 0.96637
3643.99153 0.96613
3641.94319 0.96680
3639.89486 0.96891
3637.84652 0.97143
3635.79818 0.97427
3633.74984 0.97758
3631.70151 0.98003
3629.65317 0.98349
3627.60483 0.99161
3625.55650 0.99539
3623.50816 0.99568
3621.45982 0.99639
3619.41149 1.00001
3617.36315 1.00492
3615.31481 1.00718
3613.26647 1.00889
3611.21814 1.01061
3609.16980 1.01187
3607.12146 1.01294
3605.07313 1.01239
3603.02479 1.01077
3600.97645 1.00977
3598.92812 1.00918
3596.87978 1.00825
3594.83144 1.00777
3592.78310 1.00730
3590.73477 1.00574
3588.68643 1.00458
3586.63809 1.00538
3584.58976 1.00510
3582.54142 1.00350
3580.49308 1.00245
3578.44475 1.00192
3576.39641 1.00147
3574.34807 1.00121
3572.29973 1.00089
3570.25140 1.00069
3568.20306 1.00216
3566.15472 1.00562
3564.10639 1.00637
3562.05805 1.00511
3560.00971 1.00420
3557.96138 1.00374
3555.91304 1.00356
3553.86470 1.00411
3551.81636 1.00549
3549.76803 1.00628
3547.71969 1.00667
3545.67135 1.00841
3543.62302 1.01024
3541.57468 1.01034
3539.52634 1.01013
3537.47801 1.01096
3535.42967 1.01218
3533.38133 1.01310
3531.33299 1.01432
3529.28466 1.01589
3527.23632 1.01739
3525.18798 1.01861
3523.13965 1.01943
3521.09131 1.01992
3519.04297 1.02043
3516.99464 1.02136
3514.94630 1.02271
3512.89796 1.02428
3510.84962 1.02581
3508.80129 1.02715
3506.75295 1.02812
3504.70461 1.02922
3502.65628 1.03069
3500.60794 1.03135
3498.55960 1.03166
3496.51127 1.03277
3494.46293 1.03417
3492.41459 1.03487
3490.36625 1.03507
3488.31792 1.03567
3486.26958 1.03679
3484.22124 1.03782
3482.17291 1.03895
3480.12457 1.04008
3478.07623 1.04068
3476.02789 1.04114
3473.97956 1.04173
3471.93122 1.04243
3469.88288 1.04314
3467.83455 1.04397
3465.78621 1.04490
3463.73787 1.04592
3461.68954 1.04717
3459.64120 1.04799
3457.59286 1.04801
3455.54452 1.04799
3453.49619 1.04857
3451.44785 1.04947
3449.39951 1.05045
3447.35118 1.05167
3445.30284 1.05276
3443.25450 1.05332
3441.20617 1.05346
3439.15783 1.05348
3437.10949 1.05377
3435.06115 1.05436
3433.01282 1.05507
3430.96448 1.05559
3428.91614 1.05579
3426.86781 1.05586
3424.81947 1.05617
3422.77113 1.05709
3420.72280 1.05826
3418.67446 1.05891
3416.62612 1.05899
3414.57778 1.05902
3412.52945 1.05894
3410.48111 1.05867
3408.43277 1.05841
3406.38444 1.05822
3404.33610 1.05825
3402.28776 1.05836
3400.23943 1.05831
3398.19109 1.05827
3396.14275 1.05834
3394.09441 1.05852
3392.04608 1.05871
3389.99774 1.05836
3387.94940 1.05771
3385.90107 1.05723
3383.85273 1.05662
3381.80439 1.05594
3379.75606 1.05568
3377.70772 1.05585
3375.65938 1.05621
3373.61104 1.05638
3371.56271 1.05609
3369.51437 1.05576
3367.46603 1.05568
3365.41770 1.05569
3363.36936 1.05585
3361.32102 1.05623
3359.27269 1.05649
3357.22435 1.05647
3355.17601 1.05626
3353.12767 1.05599
3351.07934 1.05552
3349.03100 1.05482
3346.98266 1.05431
3344.93433 1.05430
3342.88599 1.05436
3340.83765 1.05411
3338.78932 1.05368
3336.74098 1.05304
3334.69264 1.05220
3332.64430 1.05145
3330.59597 1.05069
3328.54763 1.05008
3326.49929 1.05020
3324.45096 1.05069
3322.40262 1.05073
3320.35428 1.05050
3318.30595 1.05049
3316.25761 1.05055
3314.20927 1.05077
3312.16093 1.05134
3310.11260 1.05205
3308.06426 1.05262
3306.01592 1.05276
3303.96759 1.05259
3301.91925 1.05269
3299.87091 1.05359
3297.82258 1.05503
3295.77424 1.05602
3293.72590 1.05634
3291.67756 1.05649
3289.62923 1.05632
3287.58089 1.05602
3285.53255 1.05602
3283.48422 1.05609
3281.43588 1.05595
3279.38754 1.05571
3277.33921 1.05578
3275.29087 1.05631
3273.24253 1.05705
3271.19419 1.05767
3269.14586 1.05797
3267.09752 1.05807
3265.04918 1.05812
3263.00085 1.05829
3260.95251 1.05864
3258.90417 1.05917
3256.85584 1.06019
3254.80750 1.06151
3252.75916 1.06242
3250.71082 1.06293
3248.66249 1.06348
3246.61415 1.06384
3244.56581 1.06366
3242.51748 1.06318
3240.46914 1.06248
3238.42080 1.06151
3236.37247 1.06041
3234.32413 1.05934
3232.27579 1.05821
3230.22745 1.05693
3228.17912 1.05559
3226.13078 1.05415
3224.08244 1.05287
3222.03411 1.05216
3219.98577 1.05173
3217.93743 1.05118
3215.88910 1.05054
3213.84076 1.04975
3211.79242 1.04867
3209.74408 1.04766
3207.69575 1.04692
3205.64741 1.04632
3203.59907 1.04589
3201.55074 1.04579
3199.50240 1.04565
3197.45406 1.04501
3195.40573 1.04448
3193.35739 1.04445
3191.30905 1.04396
3189.26071 1.04270
3187.21238 1.04170
3185.16404 1.04093
3183.11570 1.03977
3181.06737 1.03814
3179.01903 1.03596
3176.97069 1.03329
3174.92236 1.03048
3172.87402 1.02790
3170.82568 1.02560
3168.77734 1.02355
3166.72901 1.02185
3164.68067 1.02049
3162.63233 1.01939
3160.58400 1.01858
3158.53566 1.01771
3156.48732 1.01668
3154.43899 1.01628
3152.39065 1.01661
3150.34231 1.01681
3148.29397 1.01671
3146.24564 1.01669
3144.19730 1.01660
3142.14896 1.01627
3140.10063 1.01594
3138.05229 1.01572
3136.00395 1.01558
3133.95562 1.01580
3131.90728 1.01636
3129.85894 1.01666
3127.81060 1.01685
3125.76227 1.01758
3123.71393 1.01852
3121.66559 1.01904
3119.61726 1.01937
3117.56892 1.01952
3115.52058 1.01935
3113.47225 1.01941
3111.42391 1.02007
3109.37557 1.02115
3107.32723 1.02243
3105.27890 1.02375
3103.23056 1.02503
3101.18222 1.02612
3099.13389 1.02694
3097.08555 1.02781
3095.03721 1.02907
3092.98888 1.03057
3090.94054 1.03194
3088.89220 1.03333
3086.84386 1.03510
3084.79553 1.03723
3082.74719 1.03962
3080.69885 1.04229
3078.65052 1.04511
3076.60218 1.04789
3074.55384 1.05066
3072.50551 1.05365
3070.45717 1.05686
3068.40883 1.06018
3066.36049 1.06404
3064.31216 1.06850
3062.26382 1.07285
3060.21548 1.07719
3058.16715 1.08218
3056.11881 1.08785
3054.07047 1.09386
3052.02214 1.10056
3049.97380 1.10858
3047.92546 1.11802
3045.87712 1.12899
3043.82879 1.14232
3041.78045 1.15941
3039.73211 1.18199
3037.68378 1.21277
3035.63544 1.25527
3033.58710 1.31094
3031.53877 1.37611
3029.49043 1.44057
3027.44209 1.49302
3025.39375 1.52935
3023.34542 1.55093
3021.29708 1.55981
3019.24874 1.55817
3017.20041 1.54873
3015.15207 1.53492
3013.10373 1.52054
3011.05540 1.50759
3009.00706 1.49698
3006.95872 1.48942
3004.91038 1.48468
3002.86205 1.48249
3000.81371 1.48202
2998.76537 1.48205
2996.71704 1.48235
2994.66870 1.48284
2992.62036 1.48248
2990.57203 1.47967
2988.52369 1.47401
2986.47535 1.46628
2984.42701 1.45747
2982.37868 1.44885
2980.33034 1.44087
2978.28200 1.43232
2976.23367 1.42242
2974.18533 1.41181
2972.13699 1.40125
2970.08866 1.39171
2968.04032 1.38358
2965.99198 1.37684
2963.94364 1.37185
2961.89531 1.36940
2959.84697 1.37126
2957.79863 1.37841
2955.75030 1.38927
2953.70196 1.40040
2951.65362 1.40856
2949.60529 1.41321
2947.55695 1.41624
2945.50861 1.41959
2943.46027 1.42447
2941.41194 1.43117
2939.36360 1.43828
2937.31526 1.44425
2935.26693 1.44957
2933.21859 1.45506
2931.17025 1.46030
2929.12192 1.46565
2927.07358 1.47177
2925.02524 1.47845
2922.97690 1.48554
2920.92857 1.49341
2918.88023 1.50254
2916.83189 1.51380
2914.78356 1.52927
2912.73522 1.55039
2910.68688 1.57547
2908.63855 1.60155
2906.59021 1.62726
2904.54187 1.65065
2902.49353 1.66885
2900.44520 1.68080
2898.39686 1.68619
2896.34852 1.68647
2894.30019 1.68407
2892.25185 1.67915
2890.20351 1.67147
2888.15517 1.66193
2886.10684 1.65145
2884.05850 1.64024
2882.01016 1.62761
2879.96183 1.61289
2877.91349 1.59717
2875.86515 1.58180
2873.81682 1.56571
2871.76848 1.54769
2869.72014 1.52787
2867.67180 1.50640
2865.62347 1.48288
2863.57513 1.45626
2861.52679 1.42569
2859.47846 1.39296
2857.43012 1.36044
2855.38178 1.32828
2853.33345 1.29654
2851.28511 1.26605
2849.23677 1.23680
2847.18843 1.20829
2845.14010 1.18123
2843.09176 1.15705
2841.04342 1.13628
2838.99509 1.11842
2836.94675 1.10287
2834.89841 1.08940
2832.85008 1.07805
2830.80174 1.06866
2828.75340 1.06102
2826.70506 1.05530
2824.65673 1.05209
2822.60839 1.05201
2820.56005 1.05439
2818.51172 1.05637
2816.46338 1.05453
2814.41504 1.04757
2812.36671 1.03710
2810.31837 1.02589
2808.27003 1.01594
2806.22169 1.00791
2804.17336 1.00150
2802.12502 0.99627
2800.07668 0.99214
2798.02835 0.98887
2795.98001 0.98609
2793.93167 0.98365
2791.88334 0.98161
2789.83500 0.98006
2787.78666 0.97883
2785.73832 0.97773
2783.68999 0.97678
2781.64165 0.97598
2779.59331 0.97523
2777.54498 0.97455
2775.49664 0.97406
2773.44830 0.97360
2771.39997 0.97316
2769.35163 0.97287
2767.30329 0.97237
2765.25495 0.97154
2763.20662 0.97076
2761.15828 0.96997
2759.10994 0.96928
2757.06161 0.96910
2755.01327 0.96923
2752.96493 0.96933
2750.91660 0.96952
2748.86826 0.96988
2746.81992 0.97015
2744.77158 0.97018
2742.72325 0.97018
2740.67491 0.97029
2738.62657 0.97052
2736.57824 0.97091
2734.52990 0.97153
2732.48156 0.97229
2730.43323 0.97315
2728.38489 0.97411
2726.33655 0.97496
2724.28821 0.97563
2722.23988 0.97646
2720.19154 0.97777
2718.14320 0.97949
2716.09487 0.98129
2714.04653 0.98316
2711.99819 0.98523
2709.94986 0.98758
2707.90152 0.99032
2705.85318 0.99355
2703.80484 0.99731
2701.75651 1.00113
2699.70817 1.00445
2697.65983 1.00724
2695.61150 1.00997
2693.56316 1.01303
2691.51482 1.01647
2689.46649 1.02014
2687.41815 1.02380
2685.36981 1.02742
2683.32147 1.03149
2681.27314 1.03651
2679.22480 1.04262
2677.17646 1.05007
2675.12813 1.05949
2673.07979 1.07140
2671.03145 1.08615
2668.98312 1.10398
2666.93478 1.12479
2664.88644 1.14788
2662.83810 1.17213
2660.78977 1.19687
2658.74143 1.22173
2656.69309 1.24613
2654.64476 1.26996
2652.59642 1.29390
2650.54808 1.31796
2648.49975 1.34166
2646.45141 1.36586
2644.40307 1.39164
2642.35473 1.41864
2640.30640 1.44627
2638.25806 1.47375
2636.20972 1.50041
2634.16139 1.52624
2632.11305 1.55047
2630.06471 1.57014
2628.01638 1.58033
2625.96804 1.57726
2623.91970 1.56161
2621.87136 1.53740
2619.82303 1.50955
2617.77469 1.48182
2615.72635 1.45551
2613.67802 1.43134
2611.62968 1.41011
2609.58134 1.39196
2607.53301 1.37710
2605.48467 1.36634
2603.43633 1.36135
2601.38799 1.36457
2599.33966 1.37880
2597.29132 1.40508
2595.24298 1.44082
2593.19465 1.48064
2591.14631 1.51882
2589.09797 1.55067
2587.04964 1.57386
2585.00130 1.59028
2582.95296 1.60347
2580.90462 1.61515
2578.85629 1.62589
2576.80795 1.63525
2574.75961 1.64176
2572.71128 1.64517
2570.66294 1.64785
2568.61460 1.65330
2566.56627 1.66446
2564.51793 1.68365
2562.46959 1.71115
2560.42125 1.74406
2558.37292 1.77852
2556.32458 1.81215
2554.27624 1.84256
2552.22791 1.86551
2550.17957 1.87972
2548.13123 1.88933
2546.08290 1.89773
2544.03456 1.90570
2541.98622 1.91495
2539.93788 1.92592
2537.88955 1.93665
2535.84121 1.94569
2533.79287 1.95136
2531.74454 1.95436
2529.69620 1.95689
2527.64786 1.95868
2525.59953 1.95978
2523.55119 1.95911
2521.50285 1.95113
2519.45451 1.93010
2517.40618 1.89292
2515.35784 1.84041
2513.30950 1.77893
2511.26117 1.71637
2509.21283 1.65871
2507.16449 1.60758
2505.11616 1.56139
2503.06782 1.51908
2501.01948 1.48016
2498.97114 1.44341
2496.92281 1.40736
2494.87447 1.37206
2492.82613 1.33881
2490.77780 1.30827
2488.72946 1.28092
2486.68112 1.25675
2484.63279 1.23489
2482.58445 1.21516
2480.53611 1.19761
2478.48777 1.18180
2476.43944 1.16725
2474.39110 1.15367
2472.34276 1.14123
2470.29443 1.12994
2468.24609 1.11948
2466.19775 1.10982
2464.14942 1.10114
2462.10108 1.09328
2460.05274 1.08576
2458.00440 1.07819
2455.95607 1.07058
2453.90773 1.06343
2451.85939 1.05719
2449.81106 1.05158
2447.76272 1.04630
2445.71438 1.04139
2443.66605 1.03701
2441.61771 1.03339
2439.56937 1.03053
2437.52103 1.02812
2435.47270 1.02581
2433.42436 1.02347
2431.37602 1.02104
2429.32769 1.01871
2427.27935 1.01686
2425.23101 1.01527
2423.18268 1.01365
2421.13434 1.01229
2419.08600 1.01141
2417.03766 1.01079
2414.98933 1.01021
2412.94099 1.00973
2410.89265 1.00936
2408.84432 1.00839
2406.79598 1.00592
2404.74764 1.00229
2402.69931 0.99853
2400.65097 0.99525
2398.60263 0.99252
2396.55429 0.99016
2394.50596 0.98812
2392.45762 0.98646
2390.40928 0.98493
2388.36095 0.98348
2386.31261 0.98263
2384.26427 0.98321
2382.21594 0.98568
2380.16760 0.98981
2378.11926 0.99522
2376.07092 1.00172
2374.02259 1.00956
2371.97425 1.01846
2369.92591 1.02639
2367.87758 1.03147
2365.82924 1.03493
2363.78090 1.03882
2361.73257 1.04210
2359.68423 1.04370
2357.63589 1.04290
2355.58755 1.03891
2353.53922 1.03337
2351.49088 1.02772
2349.44254 1.02342
2347.39421 1.02297
2345.34587 1.02897
2343.29753 1.03851
2341.24920 1.04384
2339.20086 1.04571
2337.15252 1.04651
2335.10418 1.04592
2333.05585 1.04414
2331.00751 1.04273
2328.95917 1.04191
2326.91084 1.03996
2324.86250 1.03636
2322.81416 1.03268
2320.76582 1.02958
2318.71749 1.02598
2316.66915 1.02177
2314.62081 1.01780
2312.57248 1.01456
2310.52414 1.01141
2308.47580 1.00716
2306.42747 1.00152
2304.37913 0.99483
2302.33079 0.98756
2300.28245 0.98039
2298.23412 0.97439
2296.18578 0.97037
2294.13744 0.96828
2292.08911 0.96783
2290.04077 0.96855
2287.99243 0.96984
2285.94410 0.97132
2283.89576 0.97320
2281.84742 0.97586
2279.79908 0.97931
2277.75075 0.98319
2275.70241 0.98736
2273.65407 0.99162
2271.60574 0.99603
2269.55740 1.00084
2267.50906 1.00586
2265.46073 1.01078
2263.41239 1.01552
2261.36405 1.02000
2259.31571 1.02388
2257.26738 1.02693
2255.21904 1.02912
2253.17070 1.03040
2251.12237 1.03054
2249.07403 1.02920
2247.02569 1.02629
2244.97736 1.02215
2242.92902 1.01726
2240.88068 1.01186
2238.83234 1.00649
2236.78401 1.00169
2234.73567 0.99754
2232.68733 0.99423
2230.63900 0.99197
2228.59066 0.99101
2226.54232 0.99170
2224.49399 0.99423
2222.44565 0.99844
2220.39731 1.00402
2218.34897 1.01040
2216.30064 1.01685
2214.25230 1.02243
2212.20396 1.02679
2210.15563 1.03024
2208.10729 1.03315
2206.05895 1.03597
2204.01062 1.03895
2201.96228 1.04208
2199.91394 1.04556
2197.86560 1.04979
2195.81727 1.05480
2193.76893 1.06027
2191.72059 1.06590
2189.67226 1.07155
2187.62392 1.07723
2185.57558 1.08327
2183.52725 1.09011
2181.47891 1.09779
2179.43057 1.10596
2177.38223 1.11440
2175.33390 1.12290
2173.28556 1.13086
2171.23722 1.13747
2169.18889 1.14209
2167.14055 1.14468
2165.09221 1.14567
2163.04388 1.14547
2160.99554 1.14444
2158.94720 1.14306
2156.89886 1.14144
2154.85053 1.13915
2152.80219 1.13575
2150.75385 1.13090
2148.70552 1.12447
2146.65718 1.11616
2144.60884 1.10540
2142.56051 1.09221
2140.51217 1.07748
2138.46383 1.06236
2136.41549 1.04815
2134.36716 1.03565
2132.31882 1.02499
2130.27048 1.01595
2128.22215 1.00838
2126.17381 1.00239
2124.12547 0.99768
2122.07714 0.99349
2120.02880 0.98969
2117.98046 0.98640
2115.93212 0.98356
2113.88379 0.98104
2111.83545 0.97879
2109.78711 0.97694
2107.73878 0.97552
2105.69044 0.97434
2103.64210 0.97343
2101.59377 0.97276
2099.54543 0.97215
2097.49709 0.97165
2095.44875 0.97139
2093.40042 0.97106
2091.35208 0.97050
2089.30374 0.97020
2087.25541 0.97023
2085.20707 0.97024
2083.15873 0.97026
2081.11040 0.97026
2079.06206 0.97028
2077.01372 0.97037
2074.96538 0.97052
2072.91705 0.97068
2070.86871 0.97067
2068.82037 0.97041
2066.77204 0.97027
2064.72370 0.97039
2062.67536 0.97029
2060.62703 0.97002
2058.57869 0.97023
2056.53035 0.97103
2054.48201 0.97183
2052.43368 0.97206
2050.38534 0.97191
2048.33700 0.97184
2046.28867 0.97206
2044.24033 0.97234
2042.19199 0.97265
2040.14366 0.97287
2038.09532 0.97270
2036.04698 0.97262
2033.99864 0.97295
2031.95031 0.97352
2029.90197 0.97443
2027.85363 0.97551
2025.80530 0.97642
2023.75696 0.97714
2021.70862 0.97790
2019.66029 0.97877
2017.61195 0.97992
2015.56361 0.98089
2013.51527 0.98113
2011.46694 0.98133
2009.41860 0.98187
2007.37026 0.98275
2005.32193 0.98399
2003.27359 0.98531
2001.22525 0.98640
1999.17692 0.98748
1997.12858 0.98868
1995.08024 0.99009
1993.03190 0.99244
1990.98357 0.99594
1988.93523 0.99977
1986.88689 1.00391
1984.83856 1.00941
1982.79022 1.01817
1980.74188 1.03111
1978.69355 1.04681
1976.64521 1.06163
1974.59687 1.06964
1972.54853 1.06699
1970.50020 1.05658
1968.45186 1.04477
1966.40352 1.03541
1964.35519 1.02965
1962.30685 1.02715
1960.25851 1.02690
1958.21018 1.02786
1956.16184 1.02946
1954.11350 1.03129
1952.06516 1.03297
1950.01683 1.03470
1947.96849 1.03656
1945.92015 1.03861
1943.87182 1.04126
1941.82348 1.04464
1939.77514 1.04749
1937.72681 1.05026
1935.67847 1.05433
1933.63013 1.05911
1931.58179 1.06381
1929.53346 1.06826
1927.48512 1.07260
1925.43678 1.07663
1923.38845 1.08106
1921.34011 1.08535
1919.29177 1.08939
1917.24344 1.09488
1915.19510 1.10031
1913.14676 1.10516
1911.09842 1.11116
1909.05009 1.11846
1907.00175 1.12573
1904.95341 1.13284
1902.90508 1.14028
1900.85674 1.14790
1898.80840 1.15527
1896.76007 1.16293
1894.71173 1.17125
1892.66339 1.17863
1890.61505 1.18562
1888.56672 1.19341
1886.51838 1.20026
1884.47004 1.20614
1882.42171 1.21185
1880.37337 1.21696
1878.32503 1.22211
1876.27670 1.22763
1874.22836 1.23334
1872.18002 1.23893
1870.13168 1.24653
1868.08335 1.25850
1866.03501 1.26953
1863.98667 1.27842
1861.93834 1.28885
1859.89000 1.30166
1857.84166 1.31555
1855.79333 1.33063
1853.74499 1.34769
1851.69665 1.36732
1849.64831 1.38990
1847.59998 1.41533
1845.55164 1.44673
1843.50330 1.49154
1841.45497 1.53727
1839.40663 1.58148
1837.35829 1.63902
1835.30996 1.71001
1833.26162 1.78533
1831.21328 1.87600
1829.16494 2.00151
1827.11661 2.11535
1825.06827 2.19311
1823.01993 2.24496
1820.97160 2.27030
1818.92326 2.28180
1816.87492 2.28355
1814.82659 2.27712
1812.77825 2.26202
1810.72991 2.23124
1808.68157 2.18931
1806.63324 2.14408
1804.58490 2.09879
1802.53656 2.05417
1800.48823 2.00803
1798.43989 1.96936
1796.39155 1.94086
1794.34322 1.91480
1792.29488 1.88457
1790.24654 1.85716
1788.19820 1.83887
1786.14987 1.82337
1784.10153 1.80989
1782.05319 1.80033
1780.00486 1.79146
1777.95652 1.78317
1775.90818 1.77728
1773.85985 1.77218
1771.81151 1.76530
1769.76317 1.75868
1767.71483 1.75355
1765.66650 1.74968
1763.61816 1.74854
1761.56982 1.74899
1759.52149 1.74956
1757.47315 1.75168
1755.42481 1.75442
1753.37648 1.75616
1751.32814 1.76080
1749.27980 1.77179
1747.23146 1.78297
1745.18313 1.79139
1743.13479 1.79949
1741.08645 1.80758
1739.03812 1.81489
1736.98978 1.82119
1734.94144 1.83019
1732.89310 1.84233
1730.84477 1.84777
1728.79643 1.85176
1726.74809 1.85710
1724.69976 1.86307
1722.65142 1.86860
1720.60308 1.87242
1718.55475 1.87710
1716.50641 1.88654
1714.45807 1.89445
1712.40973 1.89982
1710.36140 1.90602
1708.31306 1.91408
1706.26472 1.92710
1704.21639 1.94263
1702.16805 1.95446
1700.11971 1.96944
1698.07138 1.98691
1696.02304 2.00047
1693.97470 2.00923
1691.92636 2.01502
1689.87803 2.02493
1687.82969 2.03781
1685.78135 2.05259
1683.73302 2.08151
1681.68468 2.10363
1679.63634 2.11188
1677.58801 2.12142
1675.53967 2.13894
1673.49133 2.15609
1671.44299 2.16543
1669.39466 2.17677
1667.34632 2.19037
1665.29798 2.20355
1663.24965 2.21882
1661.20131 2.23129
1659.15297 2.24155
1657.10464 2.25559
1655.05630 2.27936
1653.00796 2.31137
1650.95962 2.31131
1648.91129 2.31282
1646.86295 2.32441
1644.81461 2.32541
1642.76628 2.32452
1640.71794 2.32642
1638.66960 2.32535
1636.62127 2.31318
1634.57293 2.27427
1632.52459 2.24350
1630.47625 2.22528
1628.42792 2.20831
1626.37958 2.18879
1624.33124 2.16690
1622.28291 2.14320
1620.23457 2.12784
1618.18623 2.11713
1616.13790 2.09730
1614.08956 2.07925
1612.04122 2.06981
1609.99288 2.06009
1607.94455 2.04087
1605.89621 2.01461
1603.84787 1.98571
1601.79954 1.95217
1599.75120 1.91553
1597.70286 1.87842
1595.65453 1.83653
1593.60619 1.78617
1591.55785 1.73029
1589.50951 1.67105
1587.46118 1.61172
1585.41284 1.55317
1583.36450 1.49430
1581.31617 1.43834
1579.26783 1.39088
1577.21949 1.33388
1575.17116 1.25932
1573.12282 1.21834
1571.07448 1.19657
1569.02614 1.17696
1566.97781 1.16660
1564.92947 1.16382
1562.88113 1.16348
1560.83280 1.16510
1558.78446 1.16988
1556.73612 1.17230
1554.68779 1.17210
1552.63945 1.17313
1550.59111 1.17601
1548.54277 1.17993
1546.49444 1.18453
1544.44610 1.19144
1542.39776 1.20041
1540.34943 1.20926
1538.30109 1.21587
1536.25275 1.21988
1534.20442 1.22657
1532.15608 1.23552
1530.10774 1.24156
1528.05940 1.24755
1526.01107 1.25519
1523.96273 1.26182
1521.91439 1.26928
1519.86606 1.27683
1517.81772 1.28246
1515.76938 1.28881
1513.72105 1.29447
1511.67271 1.30079
1509.62437 1.30868
1507.57603 1.32023
1505.52770 1.33202
1503.47936 1.33699
1501.43102 1.34209
1499.38269 1.34896
1497.33435 1.35806
1495.28601 1.36643
1493.23768 1.37152
1491.18934 1.37732
1489.14100 1.38617
1487.09266 1.39127
1485.04433 1.39312
1482.99599 1.39565
1480.94765 1.39945
1478.89932 1.40325
1476.85098 1.40689
1474.80264 1.41157
1472.75431 1.41589
1470.70597 1.41719
1468.65763 1.41767
1466.60929 1.41958
1464.56096 1.42292
1462.51262 1.42562
1460.46428 1.42777
1458.41595 1.43104
1456.36761 1.43566
1454.31927 1.43739
1452.27094 1.43786
1450.22260 1.43876
1448.17426 1.44067
1446.12592 1.44252
1444.07759 1.44367
1442.02925 1.44471
1439.98091 1.44563
1437.93258 1.44619
1435.88424 1.44651
1433.83590 1.44641
1431.78757 1.44634
1429.73923 1.44648
1427.69089 1.44698
1425.64255 1.44982
1423.59422 1.45700
1421.54588 1.46897
1419.49754 1.49367
1417.44921 1.53349
1415.40087 1.56497
1413.35253 1.58996
1411.30420 1.61159
1409.25586 1.62555
1407.20752 1.63440
1405.15918 1.64554
1403.11085 1.65780
1401.06251 1.66709
1399.01417 1.67545
1396.96584 1.68355
1394.91750 1.68984
1392.86916 1.69335
1390.82083 1.69623
1388.77249 1.70073
1386.72415 1.70646
1384.67581 1.71098
1382.62748 1.71551
1380.57914 1.71950
1378.53080 1.72158
1376.48247 1.72310
1374.43413 1.72432
1372.38579 1.72297
1370.33746 1.71853
1368.28912 1.71149
1366.24078 1.70519
1364.19244 1.70254
1362.14411 1.70173
1360.09577 1.70127
1358.04743 1.70048
1355.99910 1.69811
1353.95076 1.69297
1351.90242 1.68650
1349.85409 1.68179
1347.80575 1.67945
1345.75741 1.67734
1343.70907 1.67573
1341.66074 1.67671
1339.61240 1.67770
1337.56406 1.67321
1335.51573 1.66443
1333.46739 1.65491
1331.41905 1.64594
1329.37072 1.63804
1327.32238 1.63123
1325.27404 1.62532
1323.22570 1.61996
1321.17737 1.61431
1319.12903 1.60773
1317.08069 1.60149
1315.03236 1.59746
1312.98402 1.59633
1310.93568 1.59909
1308.88735 1.60600
1306.83901 1.61529
1304.79067 1.62341
1302.74233 1.62790
1300.69400 1.62833
1298.64566 1.62447
1296.59732 1.61692
1294.54899 1.60900
1292.50065 1.60308
1290.45231 1.59770
1288.40398 1.59000
1286.35564 1.57863
1284.30730 1.56512
1282.25896 1.55222
1280.21063 1.54287
1278.16229 1.53827
1276.11395 1.53709
1274.06562 1.53734
1272.01728 1.53893
1269.96894 1.54291
1267.92061 1.54814
1265.87227 1.55197
1263.82393 1.55286
1261.77559 1.55058
1259.72726 1.54597
1257.67892 1.54145
1255.63058 1.53845
1253.58225 1.53651
1251.53391 1.53505
1249.48557 1.53335
1247.43724 1.53139
1245.38890 1.53027
1243.34056 1.53051
1241.29222 1.53190
1239.24389 1.53543
1237.19555 1.54197
1235.14721 1.55025
1233.09888 1.55817
1231.05054 1.56353
1229.00220 1.56403
1226.95387 1.55797
1224.90553 1.54401
1222.85719 1.52321
1220.80885 1.50061
1218.76052 1.48144
1216.71218 1.46805
1214.66384 1.45983
1212.61551 1.45494
1210.56717 1.45253
1208.51883 1.45310
1206.47050 1.45604
1204.42216 1.46016
1202.37382 1.46670
1200.32548 1.47679
1198.27715 1.48886
1196.22881 1.50045
1194.18047 1.50855
1192.13214 1.51074
1190.08380 1.50765
1188.03546 1.50176
1185.98713 1.49474
1183.93879 1.48695
1181.89045 1.47734
1179.84211 1.46432
1177.79378 1.44957
1175.74544 1.43718
1173.69710 1.42825
1171.64877 1.42027
1169.60043 1.41064
1167.55209 1.39892
1165.50376 1.38641
1163.45542 1.37490
1161.40708 1.36580
1159.35874 1.36010
1157.31041 1.35824
1155.26207 1.35945
1153.21373 1.36219
1151.16540 1.36464
1149.11706 1.36551
1147.06872 1.36509
1145.02038 1.36300
1142.97205 1.35712
1140.92371 1.34727
1138.87537 1.33654
1136.82704 1.32786
1134.77870 1.32223
1132.73036 1.32036
1130.68203 1.32263
1128.63369 1.32718
1126.58535 1.33077
1124.53701 1.33177
1122.48868 1.33090
1120.44034 1.32985
1118.39200 1.32959
1116.34367 1.32945
1114.29533 1.32826
1112.24699 1.32700
1110.19866 1.32904
1108.15032 1.33687
1106.10198 1.35249
1104.05364 1.37984
1102.00531 1.41847
1099.95697 1.44898
1097.90863 1.44435
1095.86030 1.41265
1093.81196 1.38382
1091.76362 1.37002
1089.71529 1.36647
1087.66695 1.36341
1085.61861 1.35558
1083.57027 1.34607
1081.52194 1.33913
1079.47360 1.33527
1077.42526 1.33257
1075.37693 1.32907
1073.32859 1.32492
1071.28025 1.32002
1069.23192 1.31264
1067.18358 1.30269
1065.13524 1.29218
1063.08690 1.28340
1061.03857 1.27715
1058.99023 1.27252
1056.94189 1.26913
1054.89356 1.26758
1052.84522 1.26835
1050.79688 1.27153
1048.74855 1.27739
1046.70021 1.28533
1044.65187 1.29294
1042.60353 1.29898
1040.55520 1.30424
1038.50686 1.30837
1036.45852 1.31053
1034.41019 1.31149
1032.36185 1.31218
1030.31351 1.31304
1028.26518 1.31414
1026.21684 1.31389
1024.16850 1.30972
1022.12016 1.30130
1020.07183 1.29127
1018.02349 1.28256
1015.97515 1.27681
1013.92682 1.27332
1011.87848 1.26982
1009.83014 1.26538
1007.78181 1.26082
1005.73347 1.25654
1003.68513 1.25200
1001.63679 1.24774
999.58846 1.24505
997.54012 1.24438
995.49178 1.24508
993.44345 1.24500
991.39511 1.24203
989.34677 1.23658
987.29844 1.23025
985.25010 1.22423
983.20176 1.21966
981.15342 1.21658
979.10509 1.21422
977.05675 1.21271
975.00841 1.21181
972.96008 1.21011
970.91174 1.20683
968.86340 1.20323
966.81507 1.20039
964.76673 1.19801
962.71839 1.19671
960.67005 1.19711
958.62172 1.19808
956.57338 1.19966
954.52504 1.20301
952.47671 1.20710
950.42837 1.21037
948.38003 1.21292
946.33170 1.21465
944.28336 1.21514
942.23502 1.21409
940.18668 1.21230
938.13835 1.21189
936.09001 1.21378
934.04167 1.21781
931.99334 1.22378
929.94500 1.22979
927.89666 1.23331
925.84833 1.23442
923.79999 1.23496
921.75165 1.23684
919.70331 1.24036
917.65498 1.24432
915.60664 1.24898
913.55830 1.25410
911.50997 1.25778
909.46163 1.26049
907.41329 1.26409
905.36496 1.26540
903.31662 1.25522
901.26828 1.22558
899.21994 1.18520
897.17161 1.16217
895.12327 1.17505
893.07493 1.21613
891.02660 1.26695
888.97826 1.31706
886.92992 1.36632
884.88159 1.41834
882.83325 1.47500
880.78491 1.53562
878.73657 1.59747
876.68824 1.65348
874.63990 1.68925
872.59156 1.69444
870.54323 1.67367
868.49489 1.63530
866.44655 1.58200
864.39822 1.51856
862.34988 1.45762
860.30154 1.41325
858.25320 1.39984
856.20487 1.44042
854.15653 1.52356
852.10819 1.54108
850.05986 1.44777
848.01152 1.34083
845.96318 1.26617
843.91485 1.22226
841.86651 1.19895
839.81817 1.18558
837.76983 1.17535
835.72150 1.16770
833.67316 1.16379
831.62482 1.16294
829.57649 1.16605
827.52815 1.17334
825.47981 1.18160
823.43148 1.18698
821.38314 1.18828
819.33480 1.18711
817.28646 1.18529
815.23813 1.18307
813.18979 1.18150
811.14145 1.18148
809.09312 1.18127
807.04478 1.18045
804.99644 1.18108
802.94811 1.18379
800.89977 1.18771
798.85143 1.19128
796.80309 1.19275
794.75476 1.19240
792.70642 1.19077
790.65808 1.18740
788.60975 1.18358
786.56141 1.18231
784.51307 1.18406
782.46474 1.18538
780.41640 1.18385
778.36806 1.18139
776.31972 1.18133
774.27139 1.18469
772.22305 1.19109
770.17471 1.20114
768.12638 1.21536
766.07804 1.23191
764.02970 1.24806
761.98137 1.26284
759.93303 1.27761
757.88469 1.29541
755.83635 1.31929
753.78802 1.35033
751.73968 1.38822
749.69134 1.43270
747.64301 1.48188
745.59467 1.53662
743.54633 1.60450
741.49800 1.69562
739.44966 1.82121
737.40132 1.99153
735.35298 2.20270
733.30465 2.36618
731.25631 2.31574
729.20797 2.16794
727.15964 2.07445
725.11130 2.01673
723.06296 1.94225
721.01463 1.84981
718.96629 1.76878
716.91795 1.71515
714.86961 1.67782
712.82128 1.63954
710.77294 1.59821
708.72460 1.56283
706.67627 1.53784
704.62793 1.52115
702.57959 1.50743
700.53126 1.49271
698.48292 1.48061
696.43458 1.47590
694.38624 1.47647
692.33791 1.47726
690.28957 1.47660
688.24123 1.47660
686.19290 1.47845
684.14456 1.47984
682.09622 1.48145
680.04789 1.48651
677.99955 1.49094
675.95121 1.49330
673.90287 1.50140
671.85454 1.51590
669.80620 1.53596
667.75786 1.55911
665.70953 1.56450
663.66119 1.56459
661.61285 1.56916
659.56452 1.57968
657.51618 1.59551
655.46784 1.60839
653.41950 1.62235
651.37117 1.65081
649.32283 1.67503
647.27449 1.67406
645.22616 1.66060
643.17782 1.64751
641.12948 1.64008
639.08115 1.63786
637.03281 1.63356
634.98447 1.61836
632.93613 1.59808
630.88780 1.58755
628.83946 1.58750
626.79112 1.59191
624.74279 1.59939
622.69445 1.60287
620.64611 1.59757
618.59778 1.59724
616.54944 1.59948
614.50110 1.59677
612.45276 1.61657
610.40443 1.66277
608.35609 1.69236
606.30775 1.69216
604.25942 1.69903
602.21108 1.72803
600.16274 1.74423
598.11441 1.73971
