3996.30549 1.01172
3994.25716 1.01342
3992.20882 1.01509
3990.16048 1.01639
3988.11215 1.01738
3986.06381 1.01810
3984.01547 1.01924
3981.96713 1.02078
3979.91880 1.02176
3977.87046 1.02199
3975.82212 1.02214
3973.77379 1.02224
3971.72545 1.02217
3969.67711 1.02175
3967.62878 1.02033
3965.58044 1.01833
3963.53210 1.01675
3961.48376 1.01541
3959.43543 1.01349
3957.38709 1.01129
3955.33875 1.00916
3953.29042 1.00656
3951.24208 1.00349
3949.19374 1.00047
3947.14541 0.99712
3945.09707 0.99311
3943.04873 0.98926
3941.00039 0.98525
3938.95206 0.98040
3936.90372 0.97548
3934.85538 0.97102
3932.80705 0.96736
3930.75871 0.96477
3928.71037 0.96151
3926.66204 0.95747
3924.61370 0.95465
3922.56536 0.95216
3920.51702 0.94850
3918.46869 0.94585
3916.42035 0.94525
3914.37201 0.94385
3912.32368 0.94104
3910.27534 0.93855
3908.22700 0.93649
3906.17867 0.93502
3904.13033 0.93631
3902.08199 0.93894
3900.03365 0.93957
3897.98532 0.93866
3895.93698 0.93574
3893.88864 0.93239
3891.84031 0.93257
3889.79197 0.93351
3887.74363 0.93034
3885.69530 0.92889
3883.64696 0.93053
3881.59862 0.93045
3879.55028 0.93163
3877.50195 0.93095
3875.45361 0.92819
3873.40527 0.92754
3871.35694 0.92831
3869.30860 0.93037
3867.26026 0.93007
3865.21193 0.92810
3863.16359 0.92976
3861.11525 0.93072
3859.06691 0.92825
3857.01858 0.92422
3854.97024 0.92127
3852.92190 0.92946
3850.87357 0.93590
3848.82523 0.93187
3846.77689 0.92708
3844.72856 0.92467
3842.68022 0.92469
3840.63188 0.92522
3838.58354 0.92739
3836.53521 0.93068
3834.48687 0.93037
3832.43853 0.92901
3830.39020 0.92803
3828.34186 0.92676
3826.29352 0.92640
3824.24519 0.92511
3822.19685 0.92388
3820.14851 0.92882
3818.10017 0.93008
3816.05184 0.92877
3814.00350 0.92959
3811.95516 0.92751
3809.90683 0.92391
3807.85849 0.92308
3805.81015 0.92590
3803.76182 0.92557
3801.71348 0.92635
3799.66514 0.93047
3797.61680 0.93030
3795.56847 0.92992
3793.52013 0.92912
3791.47179 0.92702
3789.42346 0.92564
3787.37512 0.92522
3785.32678 0.92606
3783.27845 0.92691
3781.23011 0.92634
3779.18177 0.92791
3777.13343 0.93046
3775.08510 0.92990
3773.03676 0.92827
3770.98842 0.92836
3768.94009 0.93080
3766.89175 0.93202
3764.84341 0.93200
3762.79508 0.93088
3760.74674 0.92966
3758.69840 0.93243
3756.65006 0.93508
3754.60173 0.93274
3752.55339 0.92964
3750.50505 0.93458
3748.45672 0.94054
3746.40838 0.93937
3744.36004 0.94139
3742.31171 0.94498
3740.26337 0.94332
3738.21503 0.94054
3736.16669 0.94229
3734.11836 0.95024
3732.07002 0.95412
3730.02168 0.95233
3727.97335 0.94995
3725.92501 0.95035
3723.87667 0.95263
3721.82834 0.95388
3719.78000 0.95410
3717.73166 0.95296
3715.68332 0.95053
3713.63499 0.94854
3711.58665 0.95173
3709.53831 0.95724
3707.48998 0.95633
3705.44164 0.95300
3703.39330 0.95073
3701.34497 0.95194
3699.29663 0.95354
3697.24829 0.95288
3695.19995 0.95181
3693.15162 0.95083
3691.10328 0.95191
3689.05494 0.95924
3687.00661 0.96421
3684.95827 0.96283
3682.90993 0.96066
3680.86160 0.96005
3678.81326 0.96055
3676.76492 0.96270
3674.71658 0.96967
3672.66825 0.97188
3670.61991 0.97249
3668.57157 0.97783
3666.52324 0.97878
3664.47490 0.97708
3662.42656 0.97708
3660.37823 0.97842
3658.32989 0.98013
3656.28155 0.98424
3654.23321 0.98765
3652.18488 0.98681
3650.13654 0.98861
3648.08820 1.00050
3646.03987 1.00617
3643.99153 1.00604
3641.94319 1.00631
3639.89486 1.00845
3637.84652 1.01181
3635.79818 1.01531
3633.74984 1.01854
3631.70151 1.02052
3629.65317 1.02435
3627.60483 1.03425
3625.55650 1.03801
3623.50816 1.03730
3621.45982 1.03708
3619.41149 1.04047
3617.36315 1.04624
3615.31481 1.04916
3613.26647 1.05114
3611.21814 1.05285
3609.16980 1.05423
3607.12146 1.05585
3605.07313 1.05535
3603.02479 1.05339
3600.97645 1.05207
3598.92812 1.05070
3596.87978 1.04858
3594.83144 1.04683
3592.78310 1.04482
3590.73477 1.04171
3588.68643 1.04007
3586.63809 1.04195
3584.58976 1.04195
3582.54142 1.03957
3580.49308 1.03776
3578.44475 1.03687
3576.39641 1.03635
3574.34807 1.03600
3572.29973 1.03544
3570.25140 1.03443
3568.20306 1.03456
3566.15472 1.03780
3564.10639 1.03911
3562.05805 1.03758
3560.00971 1.03647
3557.96138 1.03640
3555.91304 1.03642
3553.86470 1.03660
3551.81636 1.03751
3549.76803 1.03809
3547.71969 1.03846
3545.67135 1.04007
3543.62302 1.04150
3541.57468 1.04132
3539.52634 1.04100
3537.47801 1.04184
3535.42967 1.04331
3533.38133 1.04400
3531.33299 1.04417
3529.28466 1.04513
3527.23632 1.04696
3525.18798 1.04865
3523.13965 1.04998
3521.09131 1.05065
3519.04297 1.05084
3516.99464 1.05133
3514.94630 1.05199
3512.89796 1.05253
3510.84962 1.05330
3508.80129 1.05469
3506.75295 1.05610
3504.70461 1.05726
3502.65628 1.05845
3500.60794 1.05870
3498.55960 1.05832
3496.51127 1.05892
3494.46293 1.06028
3492.41459 1.06130
3490.36625 1.06210
3488.31792 1.06300
3486.26958 1.06368
3484.22124 1.06419
3482.17291 1.06513
3480.12457 1.06627
3478.07623 1.06669
3476.02789 1.06694
3473.97956 1.06776
3471.93122 1.06889
3469.88288 1.07006
3467.83455 1.07094
3465.78621 1.07110
3463.73787 1.07105
3461.68954 1.07167
3459.64120 1.07244
3457.59286 1.07293
3455.54452 1.07343
3453.49619 1.07360
3451.44785 1.07361
3449.39951 1.07425
3447.35118 1.07547
3445.30284 1.07642
3443.25450 1.07692
3441.20617 1.07740
3439.15783 1.07791
3437.10949 1.07853
3435.06115 1.07902
3433.01282 1.07908
3430.96448 1.07899
3428.91614 1.07923
3426.86781 1.07980
3424.81947 1.08017
3422.77113 1.08067
3420.72280 1.08149
3418.67446 1.08179
3416.62612 1.08171
3414.57778 1.08207
3412.52945 1.08266
3410.48111 1.08282
3408.43277 1.08226
3406.38444 1.08163
3404.33610 1.08190
3402.28776 1.08261
3400.23943 1.08266
3398.19109 1.08230
3396.14275 1.08215
3394.09441 1.08205
3392.04608 1.08196
3389.99774 1.08185
3387.94940 1.08129
3385.90107 1.08035
3383.85273 1.07981
3381.80439 1.07978
3379.75606 1.07963
3377.70772 1.07943
3375.65938 1.07941
3373.61104 1.07953
3371.56271 1.07984
3369.51437 1.08006
3367.46603 1.08003
3365.41770 1.08007
3363.36936 1.08040
3361.32102 1.08070
3359.27269 1.08030
3357.22435 1.07945
3355.17601 1.07911
3353.12767 1.07939
3351.07934 1.07979
3349.03100 1.07994
3346.98266 1.07988
3344.93433 1.07987
3342.88599 1.07970
3340.83765 1.07893
3338.78932 1.07793
3336.74098 1.07702
3334.69264 1.07596
3332.64430 1.07499
3330.59597 1.07438
3328.54763 1.07431
3326.49929 1.07470
3324.45096 1.07502
3322.40262 1.07525
3320.35428 1.07573
3318.30595 1.07624
3316.25761 1.07626
3314.20927 1.07623
3312.16093 1.07690
3310.11260 1.07798
3308.06426 1.07889
3306.01592 1.07945
3303.96759 1.07981
3301.91925 1.08020
3299.87091 1.08077
3297.82258 1.08161
3295.77424 1.08238
3293.72590 1.08285
3291.67756 1.08339
3289.62923 1.08408
3287.58089 1.08452
3285.53255 1.08471
3283.48422 1.08487
3281.43588 1.08481
3279.38754 1.08455
3277.33921 1.08435
3275.29087 1.08439
3273.24253 1.08488
3271.19419 1.08553
3269.14586 1.08579
3267.09752 1.08576
3265.04918 1.08592
3263.00085 1.08639
3260.95251 1.08686
3258.90417 1.08742
3256.85584 1.08860
3254.80750 1.09001
3252.75916 1.09072
3250.71082 1.09111
3248.66249 1.09193
3246.61415 1.09278
3244.56581 1.09311
3242.51748 1.09292
3240.46914 1.09239
3238.42080 1.09172
3236.37247 1.09110
3234.32413 1.09039
3232.27579 1.08940
3230.22745 1.08818
3228.17912 1.08685
3226.13078 1.08580
3224.08244 1.08518
3222.03411 1.08472
3219.98577 1.08426
3217.93743 1.08378
3215.88910 1.08320
3213.84076 1.08250
3211.79242 1.08172
3209.74408 1.08103
3207.69575 1.08046
3205.64741 1.08012
3203.59907 1.08025
3201.55074 1.08053
3199.50240 1.08042
3197.45406 1.07991
3195.40573 1.07929
3193.35739 1.07881
3191.30905 1.07837
3189.26071 1.07778
3187.21238 1.07700
3185.16404 1.07584
3183.11570 1.07429
3181.06737 1.07256
3179.01903 1.07073
3176.97069 1.06858
3174.92236 1.06588
3172.87402 1.06288
3170.82568 1.06012
3168.77734 1.05813
3166.72901 1.05669
3164.68067 1.05517
3162.63233 1.05390
3160.58400 1.05336
3158.53566 1.05326
3156.48732 1.05324
3154.43899 1.05327
3152.39065 1.05333
3150.34231 1.05311
3148.29397 1.05270
3146.24564 1.05250
3144.19730 1.05233
3142.14896 1.05223
3140.10063 1.05235
3138.05229 1.05256
3136.00395 1.05287
3133.95562 1.05335
3131.90728 1.05373
3129.85894 1.05395
3127.81060 1.05441
3125.76227 1.05508
3123.71393 1.05574
3121.66559 1.05642
3119.61726 1.05694
3117.56892 1.05740
3115.52058 1.05832
3113.47225 1.05935
3111.42391 1.06008
3109.37557 1.06083
3107.32723 1.06184
3105.27890 1.06312
3103.23056 1.06439
3101.18222 1.06533
3099.13389 1.06622
3097.08555 1.06760
3095.03721 1.06945
3092.98888 1.07129
3090.94054 1.07286
3088.89220 1.07440
3086.84386 1.07625
3084.79553 1.07833
3082.74719 1.08053
3080.69885 1.08328
3078.65052 1.08680
3076.60218 1.09033
3074.55384 1.09351
3072.50551 1.09686
3070.45717 1.10060
3068.40883 1.10484
3066.36049 1.10961
3064.31216 1.11443
3062.26382 1.11919
3060.21548 1.12429
3058.16715 1.13004
3056.11881 1.13667
3054.07047 1.14375
3052.02214 1.15118
3049.97380 1.15993
3047.92546 1.17049
3045.87712 1.18270
3043.82879 1.19733
3041.78045 1.21579
3039.73211 1.23917
3037.68378 1.26998
3035.63544 1.31176
3033.58710 1.36557
3031.53877 1.42755
3029.49043 1.48820
3027.44209 1.53773
3025.39375 1.57330
3023.34542 1.59589
3021.29708 1.60659
3019.24874 1.60787
3017.20041 1.60265
3015.15207 1.59257
3013.10373 1.57989
3011.05540 1.56762
3009.00706 1.55782
3006.95872 1.55080
3004.91038 1.54570
3002.86205 1.54216
3000.81371 1.54086
2998.76537 1.54154
2996.71704 1.54290
2994.66870 1.54390
2992.62036 1.54296
2990.57203 1.53978
2988.52369 1.53546
2986.47535 1.52942
2984.42701 1.52158
2982.37868 1.51401
2980.33034 1.50707
2978.28200 1.49919
2976.23367 1.49000
2974.18533 1.47984
2972.13699 1.46960
2970.08866 1.46049
2968.04032 1.45203
2965.99198 1.44432
2963.94364 1.43857
2961.89531 1.43559
2959.84697 1.43705
2957.79863 1.44379
2955.75030 1.45394
2953.70196 1.46382
2951.65362 1.47093
2949.60529 1.47546
2947.55695 1.47869
2945.50861 1.48223
2943.46027 1.48736
2941.41194 1.49408
2939.36360 1.50130
2937.31526 1.50728
2935.26693 1.51168
2933.21859 1.51615
2931.17025 1.52164
2929.12192 1.52771
2927.07358 1.53399
2925.02524 1.54026
2922.97690 1.54719
2920.92857 1.55580
2918.88023 1.56532
2916.83189 1.57535
2914.78356 1.58789
2912.73522 1.60396
2910.68688 1.62321
2908.63855 1.64536
2906.59021 1.66746
2904.54187 1.68643
2902.49353 1.70235
2900.44520 1.71418
2898.39686 1.71973
2896.34852 1.72007
2894.30019 1.71764
2892.25185 1.71293
2890.20351 1.70648
2888.15517 1.69942
2886.10684 1.69203
2884.05850 1.68383
2882.01016 1.67406
2879.96183 1.66244
2877.91349 1.64908
2875.86515 1.63437
2873.81682 1.61911
2871.76848 1.60348
2869.72014 1.58695
2867.67180 1.56859
2865.62347 1.54740
2863.57513 1.52333
2861.52679 1.49616
2859.47846 1.46615
2857.43012 1.43429
2855.38178 1.40166
2853.33345 1.36958
2851.28511 1.33808
2849.23677 1.30670
2847.18843 1.27627
2845.14010 1.24801
2843.09176 1.22232
2841.04342 1.19917
2838.99509 1.17903
2836.94675 1.16190
2834.89841 1.14675
2832.85008 1.13342
2830.80174 1.12250
2828.75340 1.11377
2826.70506 1.10733
2824.65673 1.10417
2822.60839 1.10463
2820.56005 1.10747
2818.51172 1.10973
2816.46338 1.10779
2814.41504 1.10012
2812.36671 1.08875
2810.31837 1.07666
2808.27003 1.06583
2806.22169 1.05706
2804.17336 1.05000
2802.12502 1.04414
2800.07668 1.03937
2798.02835 1.03547
2795.98001 1.03216
2793.93167 1.02961
2791.88334 1.02773
2789.83500 1.02602
2787.78666 1.02431
2785.73832 1.02282
2783.68999 1.02175
2781.64165 1.02086
2779.59331 1.02010
2777.54498 1.01966
2775.49664 1.01926
2773.44830 1.01856
2771.39997 1.01769
2769.35163 1.01690
2767.30329 1.01627
2765.25495 1.01582
2763.20662 1.01536
2761.15828 1.01468
2759.10994 1.01415
2757.06161 1.01401
2755.01327 1.01387
2752.96493 1.01360
2750.91660 1.01354
2748.86826 1.01387
2746.81992 1.01435
2744.77158 1.01470
2742.72325 1.01508
2740.67491 1.01573
2738.62657 1.01649
2736.57824 1.01717
2734.52990 1.01781
2732.48156 1.01853
2730.43323 1.01941
2728.38489 1.02053
2726.33655 1.02178
2724.28821 1.02285
2722.23988 1.02398
2720.19154 1.02548
2718.14320 1.02705
2716.09487 1.02849
2714.04653 1.03023
2711.99819 1.03271
2709.94986 1.03576
2707.90152 1.03908
2705.85318 1.04271
2703.80484 1.04667
2701.75651 1.05066
2699.70817 1.05434
2697.65983 1.05772
2695.61150 1.06104
2693.56316 1.06436
2691.51482 1.06769
2689.46649 1.07123
2687.41815 1.07505
2685.36981 1.07903
2683.32147 1.08344
2681.27314 1.08892
2679.22480 1.09591
2677.17646 1.10453
2675.12813 1.11528
2673.07979 1.12906
2671.03145 1.14611
2668.98312 1.16599
2666.93478 1.18849
2664.88644 1.21343
2662.83810 1.23972
2660.78977 1.26603
2658.74143 1.29190
2656.69309 1.31709
2654.64476 1.34139
2652.59642 1.36516
2650.54808 1.38916
2648.49975 1.41336
2646.45141 1.43716
2644.40307 1.46076
2642.35473 1.48520
2640.30640 1.51113
2638.25806 1.53763
2636.20972 1.56320
2634.16139 1.58652
2632.11305 1.60630
2630.06471 1.62210
2628.01638 1.63206
2625.96804 1.63176
2623.91970 1.61990
2621.87136 1.60049
2619.82303 1.57765
2617.77469 1.55334
2615.72635 1.52881
2613.67802 1.50520
2611.62968 1.48378
2609.58134 1.46572
2607.53301 1.45098
2605.48467 1.43976
2603.43633 1.43417
2601.38799 1.43660
2599.33966 1.44903
2597.29132 1.47231
2595.24298 1.50453
2593.19465 1.54094
2591.14631 1.57559
2589.09797 1.60401
2587.04964 1.62537
2585.00130 1.64111
2582.95296 1.65300
2580.90462 1.66316
2578.85629 1.67303
2576.80795 1.68246
2574.75961 1.69026
2572.71128 1.69511
2570.66294 1.69803
2568.61460 1.70256
2566.56627 1.71077
2564.51793 1.72375
2562.46959 1.74316
2560.42125 1.76743
2558.37292 1.79225
2556.32458 1.81558
2554.27624 1.83669
2552.22791 1.85363
2550.17957 1.86508
2548.13123 1.87193
2546.08290 1.87700
2544.03456 1.88182
2541.98622 1.88687
2539.93788 1.89361
2537.88955 1.90056
2535.84121 1.90475
2533.79287 1.90662
2531.74454 1.90876
2529.69620 1.91225
2527.64786 1.91569
2525.59953 1.91655
2523.55119 1.91341
2521.50285 1.90648
2519.45451 1.89425
2517.40618 1.87261
2515.35784 1.84008
2513.30950 1.80044
2511.26117 1.75703
2509.21283 1.71233
2507.16449 1.66946
2505.11616 1.62873
2503.06782 1.58938
2501.01948 1.55207
2498.97114 1.51635
2496.92281 1.48118
2494.87447 1.44719
2492.82613 1.41513
2490.77780 1.38485
2488.72946 1.35670
2486.68112 1.33110
2484.63279 1.30808
2482.58445 1.28755
2480.53611 1.26892
2478.48777 1.25175
2476.43944 1.23602
2474.39110 1.22142
2472.34276 1.20800
2470.29443 1.19585
2468.24609 1.18455
2466.19775 1.17410
2464.14942 1.16460
2462.10108 1.15551
2460.05274 1.14658
2458.00440 1.13805
2455.95607 1.13005
2453.90773 1.12262
2451.85939 1.11575
2449.81106 1.10931
2447.76272 1.10318
2445.71438 1.09752
2443.66605 1.09271
2441.61771 1.08850
2439.56937 1.08455
2437.52103 1.08121
2435.47270 1.07842
2433.42436 1.07574
2431.37602 1.07302
2429.32769 1.07042
2427.27935 1.06822
2425.23101 1.06634
2423.18268 1.06482
2421.13434 1.06397
2419.08600 1.06371
2417.03766 1.06339
2414.98933 1.06274
2412.94099 1.06210
2410.89265 1.06141
2408.84432 1.05988
2406.79598 1.05713
2404.74764 1.05358
2402.69931 1.04963
2400.65097 1.04571
2398.60263 1.04234
2396.55429 1.03977
2394.50596 1.03760
2392.45762 1.03551
2390.40928 1.03399
2388.36095 1.03327
2386.31261 1.03313
2384.26427 1.03377
2382.21594 1.03588
2380.16760 1.03974
2378.11926 1.04485
2376.07092 1.05089
2374.02259 1.05763
2371.97425 1.06422
2369.92591 1.07025
2367.87758 1.07579
2365.82924 1.08117
2363.78090 1.08563
2361.73257 1.08748
2359.68423 1.08763
2357.63589 1.08635
2355.58755 1.08390
2353.53922 1.08025
2351.49088 1.07549
2349.44254 1.07189
2347.39421 1.07188
2345.34587 1.07738
2343.29753 1.08563
2341.24920 1.09027
2339.20086 1.09233
2337.15252 1.09395
2335.10418 1.09418
2333.05585 1.09333
2331.00751 1.09257
2328.95917 1.09113
2326.91084 1.08884
2324.86250 1.08646
2322.81416 1.08427
2320.76582 1.08172
2318.71749 1.07792
2316.66915 1.07327
2314.62081 1.06872
2312.57248 1.06480
2310.52414 1.06090
2308.47580 1.05566
2306.42747 1.04901
2304.37913 1.04147
2302.33079 1.03326
2300.28245 1.02508
2298.23412 1.01804
2296.18578 1.01310
2294.13744 1.01062
2292.08911 1.01009
2290.04077 1.01087
2287.99243 1.01267
2285.94410 1.01503
2283.89576 1.01783
2281.84742 1.02123
2279.79908 1.02502
2277.75075 1.02894
2275.70241 1.03300
2273.65407 1.03708
2271.60574 1.04142
2269.55740 1.04646
2267.50906 1.05205
2265.46073 1.05770
2263.41239 1.06308
2261.36405 1.06803
2259.31571 1.07238
2257.26738 1.07602
2255.21904 1.07873
2253.17070 1.08001
2251.12237 1.07964
2249.07403 1.07770
2247.02569 1.07435
2244.97736 1.06989
2242.92902 1.06461
2240.88068 1.05871
2238.83234 1.05269
2236.78401 1.04712
2234.73567 1.04244
2232.68733 1.03900
2230.63900 1.03677
2228.59066 1.03595
2226.54232 1.03690
2224.49399 1.03943
2222.44565 1.04343
2220.39731 1.04928
2218.34897 1.05665
2216.30064 1.06456
2214.25230 1.07191
2212.20396 1.07755
2210.15563 1.08125
2208.10729 1.08439
2206.05895 1.08789
2204.01062 1.09144
2201.96228 1.09514
2199.91394 1.09917
2197.86560 1.10347
2195.81727 1.10832
2193.76893 1.11384
2191.72059 1.11966
2189.67226 1.12571
2187.62392 1.13256
2185.57558 1.14047
2183.52725 1.14892
2181.47891 1.15738
2179.43057 1.16596
2177.38223 1.17504
2175.33390 1.18438
2173.28556 1.19294
2171.23722 1.19988
2169.18889 1.20482
2167.14055 1.20781
2165.09221 1.20903
2163.04388 1.20863
2160.99554 1.20716
2158.94720 1.20556
2156.89886 1.20404
2154.85053 1.20163
2152.80219 1.19769
2150.75385 1.19232
2148.70552 1.18526
2146.65718 1.17583
2144.60884 1.16359
2142.56051 1.14891
2140.51217 1.13269
2138.46383 1.11624
2136.41549 1.10102
2134.36716 1.08777
2132.31882 1.07640
2130.27048 1.06662
2128.22215 1.05837
2126.17381 1.05164
2124.12547 1.04593
2122.07714 1.04093
2120.02880 1.03657
2117.98046 1.03277
2115.93212 1.02948
2113.88379 1.02678
2111.83545 1.02462
2109.78711 1.02273
2107.73878 1.02099
2105.69044 1.01948
2103.64210 1.01801
2101.59377 1.01639
2099.54543 1.01483
2097.49709 1.01354
2095.44875 1.01242
2093.40042 1.01149
2091.35208 1.01087
2089.30374 1.01038
2087.25541 1.00978
2085.20707 1.00905
2083.15873 1.00831
2081.11040 1.00770
2079.06206 1.00718
2077.01372 1.00676
2074.96538 1.00658
2072.91705 1.00644
2070.86871 1.00623
2068.82037 1.00612
2066.77204 1.00631
2064.72370 1.00692
2062.67536 1.00755
2060.62703 1.00774
2058.57869 1.00762
2056.53035 1.00755
2054.48201 1.00769
2052.43368 1.00799
2050.38534 1.00834
2048.33700 1.00859
2046.28867 1.00893
2044.24033 1.00963
2042.19199 1.01043
2040.14366 1.01103
2038.09532 1.01140
2036.04698 1.01183
2033.99864 1.01244
2031.95031 1.01289
2029.90197 1.01299
2027.85363 1.01299
2025.80530 1.01331
2023.75696 1.01367
2021.70862 1.01365
2019.66029 1.01367
2017.61195 1.01439
2015.56361 1.01507
2013.51527 1.01492
2011.46694 1.01451
2009.41860 1.01453
2007.37026 1.01521
2005.32193 1.01632
2003.27359 1.01768
2001.22525 1.01930
1999.17692 1.02106
1997.12858 1.02254
1995.08024 1.02398
1993.03190 1.02661
1990.98357 1.03043
1988.93523 1.03427
1986.88689 1.03889
1984.83856 1.04563
1982.79022 1.05569
1980.74188 1.07009
1978.69355 1.08784
1976.64521 1.10476
1974.59687 1.11359
1972.54853 1.10967
1970.50020 1.09659
1968.45186 1.08228
1966.40352 1.07157
1964.35519 1.06508
1962.30685 1.06163
1960.25851 1.06050
1958.21018 1.06079
1956.16184 1.06165
1954.11350 1.06295
1952.06516 1.06469
1950.01683 1.06693
1947.96849 1.06924
1945.92015 1.07138
1943.87182 1.07426
1941.82348 1.07831
1939.77514 1.08135
1937.72681 1.08361
1935.67847 1.08699
1933.63013 1.09129
1931.58179 1.09612
1929.53346 1.10129
1927.48512 1.10631
1925.43678 1.11075
1923.38845 1.11588
1921.34011 1.12109
1919.29177 1.12560
1917.24344 1.13154
1915.19510 1.13750
1913.14676 1.14249
1911.09842 1.14872
1909.05009 1.15697
1907.00175 1.16521
1904.95341 1.17258
1902.90508 1.18007
1900.85674 1.18821
1898.80840 1.19675
1896.76007 1.20629
1894.71173 1.21670
1892.66339 1.22554
1890.61505 1.23353
1888.56672 1.24233
1886.51838 1.24965
1884.47004 1.25546
1882.42171 1.26115
1880.37337 1.26652
1878.32503 1.27238
1876.27670 1.27867
1874.22836 1.28503
1872.18002 1.29143
1870.13168 1.30026
1868.08335 1.31458
1866.03501 1.32809
1863.98667 1.33851
1861.93834 1.34975
1859.89000 1.36286
1857.84166 1.37746
1855.79333 1.39431
1853.74499 1.41389
1851.69665 1.43585
1849.64831 1.46016
1847.59998 1.48773
1845.55164 1.52308
1843.50330 1.57282
1841.45497 1.62129
1839.40663 1.66704
1837.35829 1.72614
1835.30996 1.79804
1833.26162 1.87297
1831.21328 1.95847
1829.16494 2.06779
1827.11661 2.16131
1825.06827 2.22277
1823.01993 2.25990
1820.97160 2.27262
1818.92326 2.27556
1816.87492 2.27714
1814.82659 2.27387
1812.77825 2.26366
1810.72991 2.24582
1808.68157 2.21873
1806.63324 2.18544
1804.58490 2.15027
1802.53656 2.11415
1800.48823 2.07585
1798.43989 2.04292
1796.39155 2.01880
1794.34322 1.99795
1792.29488 1.97397
1790.24654 1.95114
1788.19820 1.93517
1786.14987 1.92039
1784.10153 1.90516
1782.05319 1.89318
1780.00486 1.88314
1777.95652 1.87464
1775.90818 1.86953
1773.85985 1.86564
1771.81151 1.85893
1769.76317 1.85056
1767.71483 1.84228
1765.66650 1.83521
1763.61816 1.83196
1761.56982 1.83292
1759.52149 1.83568
1757.47315 1.83660
1755.42481 1.83526
1753.37648 1.83536
1751.32814 1.84138
1749.27980 1.85436
1747.23146 1.86697
1745.18313 1.87729
1743.13479 1.88713
1741.08645 1.89505
1739.03812 1.90121
1736.98978 1.90689
1734.94144 1.91383
1732.89310 1.92277
1730.84477 1.92799
1728.79643 1.93189
1726.74809 1.93731
1724.69976 1.94512
1722.65142 1.95320
1720.60308 1.95883
1718.55475 1.96540
1716.50641 1.97543
1714.45807 1.97912
1712.40973 1.97943
1710.36140 1.98322
1708.31306 1.99195
1706.26472 2.00532
1704.21639 2.01824
1702.16805 2.02694
1700.11971 2.04075
1698.07138 2.05991
1696.02304 2.07671
1693.97470 2.08864
1691.92636 2.09525
1689.87803 2.10643
1687.82969 2.12419
1685.78135 2.14524
1683.73302 2.17829
1681.68468 2.20405
1679.63634 2.21589
1677.58801 2.22511
1675.53967 2.24095
1673.49133 2.26300
1671.44299 2.28298
1669.39466 2.31008
1667.34632 2.33043
1665.29798 2.34195
1663.24965 2.36195
1661.20131 2.38568
1659.15297 2.40037
1657.10464 2.40975
1655.05630 2.42582
1653.00796 2.45884
1650.95962 2.46199
1648.91129 2.45776
1646.86295 2.47050
1644.81461 2.48911
1642.76628 2.49763
1640.71794 2.50319
1638.66960 2.50787
1636.62127 2.50274
1634.57293 2.45502
1632.52459 2.41295
1630.47625 2.38686
1628.42792 2.36172
1626.37958 2.33756
1624.33124 2.31155
1622.28291 2.27680
1620.23457 2.25393
1618.18623 2.23763
1616.13790 2.19767
1614.08956 2.15389
1612.04122 2.12291
1609.99288 2.09449
1607.94455 2.06173
1605.89621 2.02494
1603.84787 1.98320
1601.79954 1.93342
1599.75120 1.87953
1597.70286 1.82623
1595.65453 1.76821
1593.60619 1.70184
1591.55785 1.62996
1589.50951 1.55326
1587.46118 1.47587
1585.41284 1.40032
1583.36450 1.32784
1581.31617 1.26325
1579.26783 1.21091
1577.21949 1.15005
1575.17116 1.07020
1573.12282 1.02309
1571.07448 0.99300
1569.02614 0.96242
1566.97781 0.94554
1564.92947 0.94015
1562.88113 0.93816
1560.83280 0.93815
1558.78446 0.94063
1556.73612 0.94445
1554.68779 0.94699
1552.63945 0.94997
1550.59111 0.95388
1548.54277 0.95815
1546.49444 0.96246
1544.44610 0.96827
1542.39776 0.97547
1540.34943 0.98197
1538.30109 0.98679
1536.25275 0.98965
1534.20442 0.99390
1532.15608 0.99954
1530.10774 1.00397
1528.05940 1.00882
1526.01107 1.01503
1523.96273 1.02027
1521.91439 1.02527
1519.86606 1.03050
1517.81772 1.03557
1515.76938 1.04235
1513.72105 1.04926
1511.67271 1.05714
1509.62437 1.06714
1507.57603 1.08626
1505.52770 1.11129
1503.47936 1.12181
1501.43102 1.13128
1499.38269 1.14405
1497.33435 1.15989
1495.28601 1.17265
1493.23768 1.18007
1491.18934 1.18780
1489.14100 1.19876
1487.09266 1.20705
1485.04433 1.21253
1482.99599 1.21841
1480.94765 1.22512
1478.89932 1.23110
1476.85098 1.23679
1474.80264 1.24375
1472.75431 1.25092
1470.70597 1.25515
1468.65763 1.25775
1466.60929 1.26197
1464.56096 1.26830
1462.51262 1.27341
1460.46428 1.27745
1458.41595 1.28427
1456.36761 1.29322
1454.31927 1.29602
1452.27094 1.29788
1450.22260 1.30102
1448.17426 1.30525
1446.12592 1.30898
1444.07759 1.31139
1442.02925 1.31331
1439.98091 1.31552
1437.93258 1.31820
1435.88424 1.32090
1433.83590 1.32228
1431.78757 1.32354
1429.73923 1.32563
1427.69089 1.32820
1425.64255 1.33205
1423.59422 1.33844
1421.54588 1.34788
1419.49754 1.36744
1417.44921 1.40055
1415.40087 1.42869
1413.35253 1.45265
1411.30420 1.47418
1409.25586 1.48870
1407.20752 1.49850
1405.15918 1.51038
1403.11085 1.52323
1401.06251 1.53468
1399.01417 1.54780
1396.96584 1.56014
1394.91750 1.56790
1392.86916 1.57109
1390.82083 1.57210
1388.77249 1.57305
1386.72415 1.57442
1384.67581 1.57563
1382.62748 1.57747
1380.57914 1.58013
1378.53080 1.58293
1376.48247 1.58602
1374.43413 1.59085
1372.38579 1.59468
1370.33746 1.59468
1368.28912 1.59300
1366.24078 1.59176
1364.19244 1.59184
1362.14411 1.59257
1360.09577 1.59337
1358.04743 1.59394
1355.99910 1.59385
1353.95076 1.59245
1351.90242 1.59104
1349.85409 1.59029
1347.80575 1.58892
1345.75741 1.58708
1343.70907 1.58571
1341.66074 1.58523
1339.61240 1.58558
1337.56406 1.58520
1335.51573 1.58248
1333.46739 1.57849
1331.41905 1.57416
1329.37072 1.56918
1327.32238 1.56313
1325.27404 1.55656
1323.22570 1.55102
1321.17737 1.54827
1319.12903 1.54909
1317.08069 1.55188
1315.03236 1.55383
1312.98402 1.55355
1310.93568 1.55284
1308.88735 1.55446
1306.83901 1.55835
1304.79067 1.56216
1302.74233 1.56454
1300.69400 1.56530
1298.64566 1.56481
1296.59732 1.56423
1294.54899 1.56358
1292.50065 1.56159
1290.45231 1.55843
1288.40398 1.55503
1286.35564 1.55059
1284.30730 1.54447
1282.25896 1.53716
1280.21063 1.52962
1278.16229 1.52264
1276.11395 1.51686
1274.06562 1.51267
1272.01728 1.51035
1269.96894 1.51033
1267.92061 1.51210
1265.87227 1.51444
1263.82393 1.51646
1261.77559 1.51752
1259.72726 1.51734
1257.67892 1.51639
1255.63058 1.51524
1253.58225 1.51429
1251.53391 1.51358
1249.48557 1.51287
1247.43724 1.51252
1245.38890 1.51310
1243.34056 1.51456
1241.29222 1.51678
1239.24389 1.52062
1237.19555 1.52678
1235.14721 1.53472
1233.09888 1.54250
1231.05054 1.54731
1229.00220 1.54682
1226.95387 1.54022
1224.90553 1.52783
1222.85719 1.51120
1220.80885 1.49351
1218.76052 1.47784
1216.71218 1.46562
1214.66384 1.45726
1212.61551 1.45318
1210.56717 1.45271
1208.51883 1.45422
1206.47050 1.45701
1204.42216 1.46129
1202.37382 1.46792
1200.32548 1.47749
1198.27715 1.48897
1196.22881 1.50046
1194.18047 1.50988
1192.13214 1.51571
1190.08380 1.51782
1188.03546 1.51669
1185.98713 1.51295
1183.93879 1.50762
1181.89045 1.50068
1179.84211 1.49123
1177.79378 1.47983
1175.74544 1.46812
1173.69710 1.45763
1171.64877 1.44927
1169.60043 1.44236
1167.55209 1.43506
1165.50376 1.42665
1163.45542 1.41786
1161.40708 1.40953
1159.35874 1.40259
1157.31041 1.39852
1155.26207 1.39840
1153.21373 1.40096
1151.16540 1.40387
1149.11706 1.40642
1147.06872 1.40864
1145.02038 1.40898
1142.97205 1.40550
1140.92371 1.39848
1138.87537 1.38928
1136.82704 1.38035
1134.77870 1.37508
1132.73036 1.37445
1130.68203 1.37623
1128.63369 1.37767
1126.58535 1.37748
1124.53701 1.37615
1122.48868 1.37514
1120.44034 1.37522
1118.39200 1.37493
1116.34367 1.37221
1114.29533 1.36734
1112.24699 1.36205
1110.19866 1.35889
1108.15032 1.36173
1106.10198 1.37499
1104.05364 1.40212
1102.00531 1.44063
1099.95697 1.47306
1097.90863 1.47489
1095.86030 1.44918
1093.81196 1.42209
1091.76362 1.40727
1089.71529 1.40202
1087.66695 1.39768
1085.61861 1.38860
1083.57027 1.37749
1081.52194 1.36974
1079.47360 1.36660
1077.42526 1.36575
1075.37693 1.36408
1073.32859 1.35974
1071.28025 1.35334
1069.23192 1.34599
1067.18358 1.33768
1065.13524 1.32868
1063.08690 1.32100
1061.03857 1.31615
1058.99023 1.31306
1056.94189 1.31053
1054.89356 1.30948
1052.84522 1.31157
1050.79688 1.31701
1048.74855 1.32493
1046.70021 1.33389
1044.65187 1.34183
1042.60353 1.34782
1040.55520 1.35242
1038.50686 1.35583
1036.45852 1.35799
1034.41019 1.35923
1032.36185 1.35883
1030.31351 1.35550
1028.26518 1.35048
1026.21684 1.34577
1024.16850 1.34065
1022.12016 1.33365
1020.07183 1.32615
1018.02349 1.32058
1015.97515 1.31705
1013.92682 1.31417
1011.87848 1.31071
1009.83014 1.30654
1007.78181 1.30294
1005.73347 1.30009
1003.68513 1.29658
1001.63679 1.29296
999.58846 1.29124
997.54012 1.29180
995.49178 1.29360
993.44345 1.29490
991.39511 1.29400
989.34677 1.29103
987.29844 1.28678
985.25010 1.28106
983.20176 1.27459
981.15342 1.27035
979.10509 1.27033
977.05675 1.27299
975.00841 1.27508
972.96008 1.27433
970.91174 1.27058
968.86340 1.26499
966.81507 1.25900
964.76673 1.25375
962.71839 1.25013
960.67005 1.24907
958.62172 1.25038
956.57338 1.25306
954.52504 1.25708
952.47671 1.26304
950.42837 1.27026
948.38003 1.27664
946.33170 1.28005
944.28336 1.27953
942.23502 1.27601
940.18668 1.27131
938.13835 1.26768
936.09001 1.26761
934.04167 1.27114
931.99334 1.27542
929.94500 1.27829
927.89666 1.27996
925.84833 1.28062
923.79999 1.27884
921.75165 1.27496
919.70331 1.27311
917.65498 1.27533
915.60664 1.27910
913.55830 1.28290
911.50997 1.28725
909.46163 1.29167
907.41329 1.29627
905.36496 1.29882
903.31662 1.28801
901.26828 1.24495
899.21994 1.16961
897.17161 1.10344
895.12327 1.08518
893.07493 1.11573
891.02660 1.17405
888.97826 1.24311
886.92992 1.31969
884.88159 1.40911
882.83325 1.51009
880.78491 1.60601
878.73657 1.67910
876.68824 1.72316
874.63990 1.73612
872.59156 1.72064
870.54323 1.68131
868.49489 1.62687
866.44655 1.56776
864.39822 1.50914
862.34988 1.45701
860.30154 1.41749
858.25320 1.40335
856.20487 1.43936
854.15653 1.51373
852.10819 1.53701
850.05986 1.47272
848.01152 1.38722
845.96318 1.31564
843.91485 1.26513
841.86651 1.23629
839.81817 1.22424
837.76983 1.22292
835.72150 1.22616
833.67316 1.22979
831.62482 1.23233
829.57649 1.23216
827.52815 1.22987
825.47981 1.22762
823.43148 1.22643
821.38314 1.22739
819.33480 1.22957
817.28646 1.23063
815.23813 1.23096
813.18979 1.23208
811.14145 1.23344
809.09312 1.23471
807.04478 1.23681
804.99644 1.23989
802.94811 1.24207
800.89977 1.24152
798.85143 1.23929
796.80309 1.23685
794.75476 1.23470
792.70642 1.23300
790.65808 1.23075
788.60975 1.22767
786.56141 1.22497
784.51307 1.22196
782.46474 1.21762
780.41640 1.21379
778.36806 1.21242
776.31972 1.21399
774.27139 1.21959
772.22305 1.23024
770.17471 1.24405
768.12638 1.25916
766.07804 1.27598
764.02970 1.29395
761.98137 1.31176
759.93303 1.32972
757.88469 1.34805
755.83635 1.36870
753.78802 1.39519
751.73968 1.42971
749.69134 1.47416
747.64301 1.52754
745.59467 1.58998
743.54633 1.66614
741.49800 1.75737
739.44966 1.86772
737.40132 2.00698
735.35298 2.16267
733.30465 2.24273
731.25631 2.15067
729.20797 2.01311
727.15964 1.94285
725.11130 1.92494
723.06296 1.90650
721.01463 1.86264
718.96629 1.80539
716.91795 1.75287
714.86961 1.70859
712.82128 1.66940
710.77294 1.63452
708.72460 1.60516
706.67627 1.58074
704.62793 1.55735
702.57959 1.53271
700.53126 1.51208
698.48292 1.50018
696.43458 1.49443
694.38624 1.49312
692.33791 1.49819
690.28957 1.50748
688.24123 1.51420
686.19290 1.51436
684.14456 1.51098
682.09622 1.50878
680.04789 1.50747
677.99955 1.50622
675.95121 1.50920
673.90287 1.51840
671.85454 1.52899
669.80620 1.53425
667.75786 1.53316
665.70953 1.53883
663.66119 1.55018
661.61285 1.56457
659.56452 1.58087
657.51618 1.59646
655.46784 1.61400
653.41950 1.63198
651.37117 1.64300
649.32283 1.65136
647.27449 1.66023
645.22616 1.66449
643.17782 1.66463
641.12948 1.66506
639.08115 1.66504
637.03281 1.65593
634.98447 1.64793
632.93613 1.65385
630.88780 1.64905
628.83946 1.62445
626.79112 1.60824
624.74279 1.60883
622.69445 1.60399
620.64611 1.59183
618.59778 1.59869
616.54944 1.62277
614.50110 1.63603
612.45276 1.64648
610.40443 1.68119
608.35609 1.72979
606.30775 1.76401
604.25942 1.77904
602.21108 1.78614
600.16274 1.81093
598.11441 1.85446
