3996.30549 0.99362
3994.25716 0.99498
3992.20882 0.99613
3990.16048 0.99751
3988.11215 0.99889
3986.06381 0.99994
3984.01547 1.00094
3981.96713 1.00180
3979.91880 1.00233
3977.87046 1.00271
3975.82212 1.00336
3973.77379 1.00402
3971.72545 1.00404
3969.67711 1.00356
3967.62878 1.00260
3965.58044 1.00111
3963.53210 0.99963
3961.48376 0.99840
3959.43543 0.99689
3957.38709 0.99476
3955.33875 0.99228
3953.29042 0.98971
3951.24208 0.98698
3949.19374 0.98422
3947.14541 0.98111
3945.09707 0.97751
3943.04873 0.97399
3941.00039 0.97036
3938.95206 0.96625
3936.90372 0.96202
3934.85538 0.95802
3932.80705 0.95475
3930.75871 0.95206
3928.71037 0.94832
3926.66204 0.94414
3924.61370 0.94139
3922.56536 0.93916
3920.51702 0.93635
3918.46869 0.93462
3916.42035 0.93409
3914.37201 0.93233
3912.32368 0.92935
3910.27534 0.92685
3908.22700 0.92505
3906.17867 0.92440
3904.13033 0.92667
3902.08199 0.92945
3900.03365 0.92978
3897.98532 0.92878
3895.93698 0.92616
3893.88864 0.92316
3891.84031 0.92274
3889.79197 0.92329
3887.74363 0.92108
3885.69530 0.92018
3883.64696 0.92141
3881.59862 0.92091
3879.55028 0.92143
3877.50195 0.92058
3875.45361 0.91815
3873.40527 0.91795
3871.35694 0.91903
3869.30860 0.92093
3867.26026 0.92139
3865.21193 0.92057
3863.16359 0.92166
3861.11525 0.92080
3859.06691 0.91725
3857.01858 0.91333
3854.97024 0.91105
3852.92190 0.91869
3850.87357 0.92467
3848.82523 0.92113
3846.77689 0.91660
3844.72856 0.91428
3842.68022 0.91458
3840.63188 0.91567
3838.58354 0.91843
3836.53521 0.92156
3834.48687 0.92061
3832.43853 0.91868
3830.39020 0.91775
3828.34186 0.91698
3826.29352 0.91689
3824.24519 0.91620
3822.19685 0.91558
3820.14851 0.91996
3818.10017 0.92175
3816.05184 0.92118
3814.00350 0.92100
3811.95516 0.91817
3809.90683 0.91465
3807.85849 0.91392
3805.81015 0.91688
3803.76182 0.91772
3801.71348 0.91979
3799.66514 0.92375
3797.61680 0.92256
3795.56847 0.92088
3793.52013 0.91960
3791.47179 0.91804
3789.42346 0.91733
3787.37512 0.91737
3785.32678 0.91863
3783.27845 0.92001
3781.23011 0.91977
3779.18177 0.92061
3777.13343 0.92182
3775.08510 0.92071
3773.03676 0.91892
3770.98842 0.91887
3768.94009 0.92168
3766.89175 0.92366
3764.84341 0.92395
3762.79508 0.92282
3760.74674 0.92143
3758.69840 0.92329
3756.65006 0.92514
3754.60173 0.92363
3752.55339 0.92252
3750.50505 0.92781
3748.45672 0.93237
3746.40838 0.93067
3744.36004 0.93198
3742.31171 0.93590
3740.26337 0.93522
3738.21503 0.93287
3736.16669 0.93430
3734.11836 0.94120
3732.07002 0.94455
3730.02168 0.94296
3727.97335 0.94090
3725.92501 0.94132
3723.87667 0.94340
3721.82834 0.94444
3719.78000 0.94428
3717.73166 0.94296
3715.68332 0.94066
3713.63499 0.93860
3711.58665 0.94105
3709.53831 0.94649
3707.48998 0.94643
3705.44164 0.94381
3703.39330 0.94197
3701.34497 0.94314
3699.29663 0.94481
3697.24829 0.94462
3695.19995 0.94406
3693.15162 0.94356
3691.10328 0.94442
3689.05494 0.94943
3687.00661 0.95278
3684.95827 0.95193
3682.90993 0.95079
3680.86160 0.95091
3678.81326 0.95147
3676.76492 0.95269
3674.71658 0.95842
3672.66825 0.96101
3670.61991 0.96185
3668.57157 0.96664
3666.52324 0.96770
3664.47490 0.96630
3662.42656 0.96635
3660.37823 0.96792
3658.32989 0.97011
3656.28155 0.97407
3654.23321 0.97727
3652.18488 0.97703
3650.13654 0.97952
3648.08820 0.99100
3646.03987 0.99632
3643.99153 0.99647
3641.94319 0.99715
3639.89486 0.99928
3637.84652 1.00187
3635.79818 1.00447
3633.74984 1.00738
3631.70151 1.00970
3629.65317 1.01346
3627.60483 1.02197
3625.55650 1.02541
3623.50816 1.02552
3621.45982 1.02682
3619.41149 1.03118
3617.36315 1.03598
3615.31481 1.03783
3613.26647 1.03913
3611.21814 1.04055
3609.16980 1.04186
3607.12146 1.04307
3605.07313 1.04249
3603.02479 1.04081
3600.97645 1.03957
3598.92812 1.03842
3596.87978 1.03718
3594.83144 1.03678
3592.78310 1.03607
3590.73477 1.03413
3588.68643 1.03308
3586.63809 1.03397
3584.58976 1.03335
3582.54142 1.03157
3580.49308 1.03041
3578.44475 1.02971
3576.39641 1.02915
3574.34807 1.02919
3572.29973 1.02934
3570.25140 1.02911
3568.20306 1.03032
3566.15472 1.03390
3564.10639 1.03455
3562.05805 1.03288
3560.00971 1.03177
3557.96138 1.03124
3555.91304 1.03100
3553.86470 1.03177
3551.81636 1.03338
3549.76803 1.03431
3547.71969 1.03549
3545.67135 1.03800
3543.62302 1.03932
3541.57468 1.03855
3539.52634 1.03784
3537.47801 1.03844
3535.42967 1.03959
3533.38133 1.04025
3531.33299 1.04136
3529.28466 1.04350
3527.23632 1.04529
3525.18798 1.04615
3523.13965 1.04666
3521.09131 1.04674
3519.04297 1.04696
3516.99464 1.04781
3514.94630 1.04859
3512.89796 1.04908
3510.84962 1.05000
3508.80129 1.05136
3506.75295 1.05207
3504.70461 1.05264
3502.65628 1.05380
3500.60794 1.05449
3498.55960 1.05491
3496.51127 1.05589
3494.46293 1.05706
3492.41459 1.05789
3490.36625 1.05849
3488.31792 1.05937
3486.26958 1.06031
3484.22124 1.06088
3482.17291 1.06183
3480.12457 1.06319
3478.07623 1.06394
3476.02789 1.06428
3473.97956 1.06472
3471.93122 1.06528
3469.88288 1.06592
3467.83455 1.06675
3465.78621 1.06778
3463.73787 1.06874
3461.68954 1.06946
3459.64120 1.06976
3457.59286 1.06948
3455.54452 1.06903
3453.49619 1.06911
3451.44785 1.06969
3449.39951 1.07064
3447.35118 1.07188
3445.30284 1.07286
3443.25450 1.07353
3441.20617 1.07422
3439.15783 1.07459
3437.10949 1.07487
3435.06115 1.07542
3433.01282 1.07588
3430.96448 1.07599
3428.91614 1.07624
3426.86781 1.07687
3424.81947 1.07715
3422.77113 1.07708
3420.72280 1.07740
3418.67446 1.07796
3416.62612 1.07813
3414.57778 1.07791
3412.52945 1.07782
3410.48111 1.07815
3408.43277 1.07837
3406.38444 1.07822
3404.33610 1.07819
3402.28776 1.07829
3400.23943 1.07820
3398.19109 1.07782
3396.14275 1.07750
3394.09441 1.07758
3392.04608 1.07773
3389.99774 1.07761
3387.94940 1.07767
3385.90107 1.07796
3383.85273 1.07772
3381.80439 1.07726
3379.75606 1.07744
3377.70772 1.07768
3375.65938 1.07737
3373.61104 1.07686
3371.56271 1.07649
3369.51437 1.07631
3367.46603 1.07612
3365.41770 1.07584
3363.36936 1.07558
3361.32102 1.07546
3359.27269 1.07557
3357.22435 1.07554
3355.17601 1.07519
3353.12767 1.07479
3351.07934 1.07430
3349.03100 1.07361
3346.98266 1.07309
3344.93433 1.07274
3342.88599 1.07209
3340.83765 1.07150
3338.78932 1.07129
3336.74098 1.07082
3334.69264 1.06983
3332.64430 1.06886
3330.59597 1.06838
3328.54763 1.06832
3326.49929 1.06833
3324.45096 1.06846
3322.40262 1.06866
3320.35428 1.06850
3318.30595 1.06803
3316.25761 1.06773
3314.20927 1.06784
3312.16093 1.06814
3310.11260 1.06872
3308.06426 1.06955
3306.01592 1.07001
3303.96759 1.07027
3301.91925 1.07071
3299.87091 1.07130
3297.82258 1.07192
3295.77424 1.07241
3293.72590 1.07276
3291.67756 1.07294
3289.62923 1.07292
3287.58089 1.07261
3285.53255 1.07201
3283.48422 1.07170
3281.43588 1.07195
3279.38754 1.07230
3277.33921 1.07260
3275.29087 1.07291
3273.24253 1.07315
3271.19419 1.07318
3269.14586 1.07307
3267.09752 1.07335
3265.04918 1.07401
3263.00085 1.07458
3260.95251 1.07522
3258.90417 1.07621
3256.85584 1.07744
3254.80750 1.07855
3252.75916 1.07927
3250.71082 1.07973
3248.66249 1.08015
3246.61415 1.08048
3244.56581 1.08050
3242.51748 1.08008
3240.46914 1.07931
3238.42080 1.07833
3236.37247 1.07743
3234.32413 1.07677
3232.27579 1.07596
3230.22745 1.07476
3228.17912 1.07349
3226.13078 1.07226
3224.08244 1.07108
3222.03411 1.07022
3219.98577 1.06971
3217.93743 1.06938
3215.88910 1.06906
3213.84076 1.06860
3211.79242 1.06803
3209.74408 1.06756
3207.69575 1.06704
3205.64741 1.06623
3203.59907 1.06539
3201.55074 1.06486
3199.50240 1.06448
3197.45406 1.06405
3195.40573 1.06357
3193.35739 1.06301
3191.30905 1.06251
3189.26071 1.06174
3187.21238 1.06053
3185.16404 1.05950
3183.11570 1.05897
3181.06737 1.05821
3179.01903 1.05638
3176.97069 1.05373
3174.92236 1.05106
3172.87402 1.04866
3170.82568 1.04640
3168.77734 1.04424
3166.72901 1.04255
3164.68067 1.04192
3162.63233 1.04209
3160.58400 1.04196
3158.53566 1.04111
3156.48732 1.04022
3154.43899 1.03991
3152.39065 1.04002
3150.34231 1.03997
3148.29397 1.03963
3146.24564 1.03943
3144.19730 1.03952
3142.14896 1.03960
3140.10063 1.03933
3138.05229 1.03873
3136.00395 1.03834
3133.95562 1.03846
3131.90728 1.03892
3129.85894 1.03944
3127.81060 1.03995
3125.76227 1.04053
3123.71393 1.04125
3121.66559 1.04208
3119.61726 1.04286
3117.56892 1.04341
3115.52058 1.04384
3113.47225 1.04454
3111.42391 1.04578
3109.37557 1.04705
3107.32723 1.04791
3105.27890 1.04883
3103.23056 1.05006
3101.18222 1.05153
3099.13389 1.05313
3097.08555 1.05468
3095.03721 1.05630
3092.98888 1.05796
3090.94054 1.05939
3088.89220 1.06089
3086.84386 1.06278
3084.79553 1.06479
3082.74719 1.06674
3080.69885 1.06866
3078.65052 1.07068
3076.60218 1.07304
3074.55384 1.07587
3072.50551 1.07896
3070.45717 1.08207
3068.40883 1.08541
3066.36049 1.08929
3064.31216 1.09346
3062.26382 1.09739
3060.21548 1.10129
3058.16715 1.10586
3056.11881 1.11122
3054.07047 1.11712
3052.02214 1.12351
3049.97380 1.13077
3047.92546 1.13953
3045.87712 1.15004
3043.82879 1.16289
3041.78045 1.17907
3039.73211 1.19969
3037.68378 1.22730
3035.63544 1.26527
3033.58710 1.31466
3031.53877 1.37140
3029.49043 1.42580
3027.44209 1.46930
3025.39375 1.49974
3023.34542 1.51813
3021.29708 1.52683
3019.24874 1.52725
3017.20041 1.52021
3015.15207 1.50912
3013.10373 1.49749
3011.05540 1.48669
3009.00706 1.47808
3006.95872 1.47187
3004.91038 1.46716
3002.86205 1.46431
3000.81371 1.46325
2998.76537 1.46320
2996.71704 1.46362
2994.66870 1.46370
2992.62036 1.46282
2990.57203 1.46112
2988.52369 1.45781
2986.47535 1.45183
2984.42701 1.44455
2982.37868 1.43753
2980.33034 1.43069
2978.28200 1.42341
2976.23367 1.41513
2974.18533 1.40615
2972.13699 1.39749
2970.08866 1.38967
2968.04032 1.38248
2965.99198 1.37591
2963.94364 1.37093
2961.89531 1.36876
2959.84697 1.37059
2957.79863 1.37693
2955.75030 1.38624
2953.70196 1.39500
2951.65362 1.40078
2949.60529 1.40452
2947.55695 1.40784
2945.50861 1.41155
2943.46027 1.41665
2941.41194 1.42304
2939.36360 1.42954
2937.31526 1.43554
2935.26693 1.44062
2933.21859 1.44464
2931.17025 1.44847
2929.12192 1.45284
2927.07358 1.45774
2925.02524 1.46327
2922.97690 1.46924
2920.92857 1.47551
2918.88023 1.48294
2916.83189 1.49213
2914.78356 1.50341
2912.73522 1.51803
2910.68688 1.53749
2908.63855 1.56064
2906.59021 1.58306
2904.54187 1.60161
2902.49353 1.61571
2900.44520 1.62579
2898.39686 1.63165
2896.34852 1.63247
2894.30019 1.62939
2892.25185 1.62386
2890.20351 1.61668
2888.15517 1.60903
2886.10684 1.60119
2884.05850 1.59189
2882.01016 1.58064
2879.96183 1.56879
2877.91349 1.55652
2875.86515 1.54280
2873.81682 1.52796
2871.76848 1.51283
2869.72014 1.49764
2867.67180 1.48139
2865.62347 1.46260
2863.57513 1.44100
2861.52679 1.41628
2859.47846 1.38883
2857.43012 1.36066
2855.38178 1.33315
2853.33345 1.30647
2851.28511 1.28029
2849.23677 1.25426
2847.18843 1.22856
2845.14010 1.20386
2843.09176 1.18117
2841.04342 1.16120
2838.99509 1.14371
2836.94675 1.12830
2834.89841 1.11495
2832.85008 1.10357
2830.80174 1.09426
2828.75340 1.08705
2826.70506 1.08194
2824.65673 1.07929
2822.60839 1.07937
2820.56005 1.08161
2818.51172 1.08366
2816.46338 1.08197
2814.41504 1.07495
2812.36671 1.06442
2810.31837 1.05324
2808.27003 1.04321
2806.22169 1.03504
2804.17336 1.02866
2802.12502 1.02364
2800.07668 1.01968
2798.02835 1.01661
2795.98001 1.01415
2793.93167 1.01209
2791.88334 1.01023
2789.83500 1.00859
2787.78666 1.00724
2785.73832 1.00623
2783.68999 1.00565
2781.64165 1.00522
2779.59331 1.00461
2777.54498 1.00386
2775.49664 1.00302
2773.44830 1.00208
2771.39997 1.00125
2769.35163 1.00072
2767.30329 1.00031
2765.25495 0.99972
2763.20662 0.99916
2761.15828 0.99886
2759.10994 0.99870
2757.06161 0.99866
2755.01327 0.99868
2752.96493 0.99879
2750.91660 0.99923
2748.86826 0.99978
2746.81992 1.00009
2744.77158 1.00034
2742.72325 1.00062
2740.67491 1.00073
2738.62657 1.00068
2736.57824 1.00092
2734.52990 1.00166
2732.48156 1.00249
2730.43323 1.00312
2728.38489 1.00380
2726.33655 1.00473
2724.28821 1.00570
2722.23988 1.00684
2720.19154 1.00844
2718.14320 1.01028
2716.09487 1.01210
2714.04653 1.01392
2711.99819 1.01583
2709.94986 1.01818
2707.90152 1.02125
2705.85318 1.02459
2703.80484 1.02768
2701.75651 1.03059
2699.70817 1.03353
2697.65983 1.03650
2695.61150 1.03961
2693.56316 1.04295
2691.51482 1.04646
2689.46649 1.05022
2687.41815 1.05415
2685.36981 1.05840
2683.32147 1.06319
2681.27314 1.06847
2679.22480 1.07427
2677.17646 1.08120
2675.12813 1.09036
2673.07979 1.10225
2671.03145 1.11679
2668.98312 1.13416
2666.93478 1.15411
2664.88644 1.17584
2662.83810 1.19847
2660.78977 1.22114
2658.74143 1.24320
2656.69309 1.26447
2654.64476 1.28534
2652.59642 1.30604
2650.54808 1.32651
2648.49975 1.34692
2646.45141 1.36772
2644.40307 1.38911
2642.35473 1.41122
2640.30640 1.43469
2638.25806 1.45878
2636.20972 1.48108
2634.16139 1.50115
2632.11305 1.52047
2630.06471 1.53757
2628.01638 1.54751
2625.96804 1.54641
2623.91970 1.53432
2621.87136 1.51477
2619.82303 1.49204
2617.77469 1.46862
2615.72635 1.44611
2613.67802 1.42586
2611.62968 1.40805
2609.58134 1.39248
2607.53301 1.37946
2605.48467 1.36999
2603.43633 1.36571
2601.38799 1.36830
2599.33966 1.37974
2597.29132 1.40129
2595.24298 1.43117
2593.19465 1.46436
2591.14631 1.49506
2589.09797 1.51984
2587.04964 1.53851
2585.00130 1.55276
2582.95296 1.56461
2580.90462 1.57478
2578.85629 1.58331
2576.80795 1.59037
2574.75961 1.59602
2572.71128 1.60017
2570.66294 1.60294
2568.61460 1.60677
2566.56627 1.61499
2564.51793 1.62915
2562.46959 1.64991
2560.42125 1.67570
2558.37292 1.70291
2556.32458 1.72951
2554.27624 1.75319
2552.22791 1.77098
2550.17957 1.78322
2548.13123 1.79245
2546.08290 1.80045
2544.03456 1.80773
2541.98622 1.81466
2539.93788 1.82187
2537.88955 1.82927
2535.84121 1.83578
2533.79287 1.84078
2531.74454 1.84392
2529.69620 1.84514
2527.64786 1.84611
2525.59953 1.84723
2523.55119 1.84643
2521.50285 1.84007
2519.45451 1.82415
2517.40618 1.79624
2515.35784 1.75651
2513.30950 1.70822
2511.26117 1.65703
2509.21283 1.60914
2507.16449 1.56690
2505.11616 1.52856
2503.06782 1.49300
2501.01948 1.45998
2498.97114 1.42833
2496.92281 1.39742
2494.87447 1.36795
2492.82613 1.34030
2490.77780 1.31435
2488.72946 1.29061
2486.68112 1.26947
2484.63279 1.25047
2482.58445 1.23302
2480.53611 1.21695
2478.48777 1.20247
2476.43944 1.18945
2474.39110 1.17723
2472.34276 1.16569
2470.29443 1.15506
2468.24609 1.14563
2466.19775 1.13746
2464.14942 1.13003
2462.10108 1.12276
2460.05274 1.11565
2458.00440 1.10871
2455.95607 1.10178
2453.90773 1.09511
2451.85939 1.08919
2449.81106 1.08390
2447.76272 1.07880
2445.71438 1.07415
2443.66605 1.07036
2441.61771 1.06698
2439.56937 1.06372
2437.52103 1.06095
2435.47270 1.05862
2433.42436 1.05630
2431.37602 1.05388
2429.32769 1.05140
2427.27935 1.04902
2425.23101 1.04713
2423.18268 1.04583
2421.13434 1.04494
2419.08600 1.04436
2417.03766 1.04404
2414.98933 1.04398
2412.94099 1.04401
2410.89265 1.04362
2408.84432 1.04196
2406.79598 1.03885
2404.74764 1.03534
2402.69931 1.03246
2400.65097 1.03021
2398.60263 1.02795
2396.55429 1.02561
2394.50596 1.02346
2392.45762 1.02164
2390.40928 1.02022
2388.36095 1.01920
2386.31261 1.01885
2384.26427 1.01958
2382.21594 1.02168
2380.16760 1.02524
2378.11926 1.03003
2376.07092 1.03600
2374.02259 1.04292
2371.97425 1.04955
2369.92591 1.05518
2367.87758 1.06068
2365.82924 1.06597
2363.78090 1.06928
2361.73257 1.07058
2359.68423 1.07212
2357.63589 1.07198
2355.58755 1.06807
2353.53922 1.06339
2351.49088 1.05898
2349.44254 1.05574
2347.39421 1.05590
2345.34587 1.06089
2343.29753 1.06852
2341.24920 1.07461
2339.20086 1.07780
2337.15252 1.07803
2335.10418 1.07658
2333.05585 1.07464
2331.00751 1.07300
2328.95917 1.07162
2326.91084 1.07127
2324.86250 1.07187
2322.81416 1.07108
2320.76582 1.06751
2318.71749 1.06272
2316.66915 1.05859
2314.62081 1.05511
2312.57248 1.05181
2310.52414 1.04819
2308.47580 1.04361
2306.42747 1.03797
2304.37913 1.03149
2302.33079 1.02450
2300.28245 1.01743
2298.23412 1.01120
2296.18578 1.00685
2294.13744 1.00473
2292.08911 1.00432
2290.04077 1.00499
2287.99243 1.00652
2285.94410 1.00839
2283.89576 1.01041
2281.84742 1.01293
2279.79908 1.01611
2277.75075 1.01965
2275.70241 1.02324
2273.65407 1.02695
2271.60574 1.03117
2269.55740 1.03593
2267.50906 1.04064
2265.46073 1.04509
2263.41239 1.04961
2261.36405 1.05412
2259.31571 1.05814
2257.26738 1.06133
2255.21904 1.06345
2253.17070 1.06454
2251.12237 1.06446
2249.07403 1.06298
2247.02569 1.05997
2244.97736 1.05531
2242.92902 1.04957
2240.88068 1.04361
2238.83234 1.03833
2236.78401 1.03413
2234.73567 1.03062
2232.68733 1.02752
2230.63900 1.02531
2228.59066 1.02465
2226.54232 1.02554
2224.49399 1.02775
2222.44565 1.03142
2220.39731 1.03654
2218.34897 1.04281
2216.30064 1.04960
2214.25230 1.05597
2212.20396 1.06130
2210.15563 1.06556
2208.10729 1.06918
2206.05895 1.07257
2204.01062 1.07574
2201.96228 1.07882
2199.91394 1.08195
2197.86560 1.08524
2195.81727 1.08933
2193.76893 1.09438
2191.72059 1.09975
2189.67226 1.10554
2187.62392 1.11187
2185.57558 1.11827
2183.52725 1.12492
2181.47891 1.13238
2179.43057 1.14045
2177.38223 1.14871
2175.33390 1.15704
2173.28556 1.16504
2171.23722 1.17192
2169.18889 1.17691
2167.14055 1.17986
2165.09221 1.18111
2163.04388 1.18129
2160.99554 1.18080
2158.94720 1.17981
2156.89886 1.17856
2154.85053 1.17684
2152.80219 1.17402
2150.75385 1.16937
2148.70552 1.16265
2146.65718 1.15389
2144.60884 1.14295
2142.56051 1.12985
2140.51217 1.11540
2138.46383 1.10085
2136.41549 1.08710
2134.36716 1.07493
2132.31882 1.06471
2130.27048 1.05624
2128.22215 1.04914
2126.17381 1.04315
2124.12547 1.03802
2122.07714 1.03365
2120.02880 1.02996
2117.98046 1.02648
2115.93212 1.02303
2113.88379 1.02003
2111.83545 1.01766
2109.78711 1.01585
2107.73878 1.01442
2105.69044 1.01319
2103.64210 1.01218
2101.59377 1.01141
2099.54543 1.01066
2097.49709 1.00965
2095.44875 1.00861
2093.40042 1.00802
2091.35208 1.00798
2089.30374 1.00822
2087.25541 1.00814
2085.20707 1.00762
2083.15873 1.00705
2081.11040 1.00660
2079.06206 1.00628
2077.01372 1.00625
2074.96538 1.00656
2072.91705 1.00697
2070.86871 1.00748
2068.82037 1.00801
2066.77204 1.00830
2064.72370 1.00844
2062.67536 1.00853
2060.62703 1.00865
2058.57869 1.00862
2056.53035 1.00840
2054.48201 1.00836
2052.43368 1.00862
2050.38534 1.00901
2048.33700 1.00936
2046.28867 1.00958
2044.24033 1.00995
2042.19199 1.01063
2040.14366 1.01139
2038.09532 1.01214
2036.04698 1.01295
2033.99864 1.01357
2031.95031 1.01400
2029.90197 1.01442
2027.85363 1.01497
2025.80530 1.01596
2023.75696 1.01707
2021.70862 1.01749
2019.66029 1.01762
2017.61195 1.01850
2015.56361 1.01955
2013.51527 1.01998
2011.46694 1.02046
2009.41860 1.02136
2007.37026 1.02220
2005.32193 1.02271
2003.27359 1.02315
2001.22525 1.02398
1999.17692 1.02525
1997.12858 1.02659
1995.08024 1.02814
1993.03190 1.03080
1990.98357 1.03440
1988.93523 1.03784
1986.88689 1.04196
1984.83856 1.04823
1982.79022 1.05739
1980.74188 1.07002
1978.69355 1.08552
1976.64521 1.10024
1974.59687 1.10776
1972.54853 1.10451
1970.50020 1.09380
1968.45186 1.08200
1966.40352 1.07271
1964.35519 1.06681
1962.30685 1.06418
1960.25851 1.06398
1958.21018 1.06455
1956.16184 1.06502
1954.11350 1.06591
1952.06516 1.06745
1950.01683 1.06963
1947.96849 1.07213
1945.92015 1.07440
1943.87182 1.07703
1941.82348 1.08100
1939.77514 1.08463
1937.72681 1.08737
1935.67847 1.09053
1933.63013 1.09419
1931.58179 1.09843
1929.53346 1.10311
1927.48512 1.10769
1925.43678 1.11198
1923.38845 1.11742
1921.34011 1.12311
1919.29177 1.12781
1917.24344 1.13349
1915.19510 1.13903
1913.14676 1.14399
1911.09842 1.15036
1909.05009 1.15793
1907.00175 1.16474
1904.95341 1.17106
1902.90508 1.17779
1900.85674 1.18518
1898.80840 1.19292
1896.76007 1.20086
1894.71173 1.20906
1892.66339 1.21656
1890.61505 1.22445
1888.56672 1.23351
1886.51838 1.24074
1884.47004 1.24579
1882.42171 1.24997
1880.37337 1.25394
1878.32503 1.25906
1876.27670 1.26499
1874.22836 1.27078
1872.18002 1.27632
1870.13168 1.28391
1868.08335 1.29579
1866.03501 1.30663
1863.98667 1.31528
1861.93834 1.32555
1859.89000 1.33838
1857.84166 1.35235
1855.79333 1.36727
1853.74499 1.38396
1851.69665 1.40333
1849.64831 1.42566
1847.59998 1.45071
1845.55164 1.48156
1843.50330 1.52403
1841.45497 1.56546
1839.40663 1.60532
1837.35829 1.65783
1835.30996 1.72202
1833.26162 1.78813
1831.21328 1.86482
1829.16494 1.96713
1827.11661 2.05666
1825.06827 2.11988
1823.01993 2.16410
1820.97160 2.18281
1818.92326 2.18945
1816.87492 2.19324
1814.82659 2.19258
1812.77825 2.18253
1810.72991 2.15818
1808.68157 2.12089
1806.63324 2.07895
1804.58490 2.03924
1802.53656 2.00292
1800.48823 1.96778
1798.43989 1.93731
1796.39155 1.91386
1794.34322 1.89338
1792.29488 1.86793
1790.24654 1.84273
1788.19820 1.82664
1786.14987 1.81444
1784.10153 1.80363
1782.05319 1.79489
1780.00486 1.78812
1777.95652 1.78400
1775.90818 1.78133
1773.85985 1.77823
1771.81151 1.77239
1769.76317 1.76430
1767.71483 1.75739
1765.66650 1.75356
1763.61816 1.75247
1761.56982 1.75209
1759.52149 1.75239
1757.47315 1.75505
1755.42481 1.75964
1753.37648 1.76356
1751.32814 1.76939
1749.27980 1.78036
1747.23146 1.79014
1745.18313 1.79675
1743.13479 1.80417
1741.08645 1.81229
1739.03812 1.81815
1736.98978 1.82182
1734.94144 1.82668
1732.89310 1.83404
1730.84477 1.83967
1728.79643 1.84472
1726.74809 1.84997
1724.69976 1.85641
1722.65142 1.86289
1720.60308 1.86661
1718.55475 1.87118
1716.50641 1.88365
1714.45807 1.89377
1712.40973 1.89821
1710.36140 1.90452
1708.31306 1.91432
1706.26472 1.92836
1704.21639 1.94380
1702.16805 1.95699
1700.11971 1.97560
1698.07138 1.99072
1696.02304 1.99871
1693.97470 2.01040
1691.92636 2.02219
1689.87803 2.03666
1687.82969 2.05160
1685.78135 2.06690
1683.73302 2.09191
1681.68468 2.10763
1679.63634 2.11576
1677.58801 2.12850
1675.53967 2.14697
1673.49133 2.16074
1671.44299 2.16710
1669.39466 2.18105
1667.34632 2.19789
1665.29798 2.20885
1663.24965 2.22537
1661.20131 2.24678
1659.15297 2.26023
1657.10464 2.27070
1655.05630 2.28811
1653.00796 2.31421
1650.95962 2.31936
1648.91129 2.32464
1646.86295 2.34368
1644.81461 2.35028
1642.76628 2.34101
1640.71794 2.32792
1638.66960 2.31104
1636.62127 2.28799
1634.57293 2.25172
1632.52459 2.22303
1630.47625 2.19982
1628.42792 2.17269
1626.37958 2.14228
1624.33124 2.11249
1622.28291 2.08257
1620.23457 2.06310
1618.18623 2.04815
1616.13790 2.01961
1614.08956 1.99122
1612.04122 1.97037
1609.99288 1.94859
1607.94455 1.92238
1605.89621 1.89263
1603.84787 1.85788
1601.79954 1.81863
1599.75120 1.77884
1597.70286 1.73765
1595.65453 1.68767
1593.60619 1.62692
1591.55785 1.56064
1589.50951 1.49003
1587.46118 1.41809
1585.41284 1.34734
1583.36450 1.27948
1581.31617 1.21979
1579.26783 1.17250
1577.21949 1.11795
1575.17116 1.04718
1573.12282 1.00807
1571.07448 0.98659
1569.02614 0.96660
1566.97781 0.95649
1564.92947 0.95490
1562.88113 0.95606
1560.83280 0.95869
1558.78446 0.96623
1556.73612 0.97469
1554.68779 0.97855
1552.63945 0.98248
1550.59111 0.98734
1548.54277 0.99279
1546.49444 0.99831
1544.44610 1.00529
1542.39776 1.01379
1540.34943 1.02171
1538.30109 1.02687
1536.25275 1.02994
1534.20442 1.03502
1532.15608 1.04181
1530.10774 1.04708
1528.05940 1.05282
1526.01107 1.06007
1523.96273 1.06643
1521.91439 1.07388
1519.86606 1.08203
1517.81772 1.08857
1515.76938 1.09560
1513.72105 1.10223
1511.67271 1.11011
1509.62437 1.11981
1507.57603 1.13759
1505.52770 1.16360
1503.47936 1.17645
1501.43102 1.18798
1499.38269 1.20272
1497.33435 1.21929
1495.28601 1.23117
1493.23768 1.23790
1491.18934 1.24558
1489.14100 1.25677
1487.09266 1.26481
1485.04433 1.26994
1482.99599 1.27589
1480.94765 1.28283
1478.89932 1.28890
1476.85098 1.29467
1474.80264 1.30161
1472.75431 1.30834
1470.70597 1.31287
1468.65763 1.31661
1466.60929 1.32148
1464.56096 1.32719
1462.51262 1.33173
1460.46428 1.33563
1458.41595 1.34147
1456.36761 1.34868
1454.31927 1.35191
1452.27094 1.35466
1450.22260 1.35819
1448.17426 1.36230
1446.12592 1.36559
1444.07759 1.36773
1442.02925 1.36981
1439.98091 1.37239
1437.93258 1.37547
1435.88424 1.37872
1433.83590 1.38097
1431.78757 1.38268
1429.73923 1.38421
1427.69089 1.38597
1425.64255 1.38972
1423.59422 1.39710
1421.54588 1.40872
1419.49754 1.43193
1417.44921 1.46870
1415.40087 1.49763
1413.35253 1.52068
1411.30420 1.54054
1409.25586 1.55398
1407.20752 1.56389
1405.15918 1.57566
1403.11085 1.58685
1401.06251 1.59545
1399.01417 1.60433
1396.96584 1.61223
1394.91750 1.61711
1392.86916 1.61959
1390.82083 1.62233
1388.77249 1.62803
1386.72415 1.63626
1384.67581 1.64069
1382.62748 1.64113
1380.57914 1.64109
1378.53080 1.64279
1376.48247 1.64611
1374.43413 1.64985
1372.38579 1.65160
1370.33746 1.64973
1368.28912 1.64519
1366.24078 1.64046
1364.19244 1.63706
1362.14411 1.63403
1360.09577 1.63170
1358.04743 1.62856
1355.99910 1.62240
1353.95076 1.61290
1351.90242 1.60243
1349.85409 1.59454
1347.80575 1.59039
1345.75741 1.58668
1343.70907 1.58079
1341.66074 1.57437
1339.61240 1.56928
1337.56406 1.56622
1335.51573 1.56514
1333.46739 1.56460
1331.41905 1.56151
1329.37072 1.55408
1327.32238 1.54367
1325.27404 1.53356
1323.22570 1.52710
1321.17737 1.52556
1319.12903 1.52778
1317.08069 1.53200
1315.03236 1.53724
1312.98402 1.54232
1310.93568 1.54578
1308.88735 1.54769
1306.83901 1.54906
1304.79067 1.54991
1302.74233 1.54868
1300.69400 1.54400
1298.64566 1.53720
1296.59732 1.53057
1294.54899 1.52545
1292.50065 1.52208
1290.45231 1.51917
1288.40398 1.51434
1286.35564 1.50629
1284.30730 1.49595
1282.25896 1.48468
1280.21063 1.47357
1278.16229 1.46319
1276.11395 1.45413
1274.06562 1.44796
1272.01728 1.44607
1269.96894 1.44834
1267.92061 1.45342
1265.87227 1.45936
1263.82393 1.46368
1261.77559 1.46453
1259.72726 1.46279
1257.67892 1.46070
1255.63058 1.45924
1253.58225 1.45897
1251.53391 1.45995
1249.48557 1.46152
1247.43724 1.46396
1245.38890 1.46820
1243.34056 1.47425
1241.29222 1.48042
1239.24389 1.48553
1237.19555 1.49035
1235.14721 1.49574
1233.09888 1.50135
1231.05054 1.50540
1229.00220 1.50500
1226.95387 1.49860
1224.90553 1.48702
1222.85719 1.47242
1220.80885 1.45788
1218.76052 1.44608
1216.71218 1.43795
1214.66384 1.43298
1212.61551 1.43054
1210.56717 1.42978
1208.51883 1.42933
1206.47050 1.42920
1204.42216 1.43155
1202.37382 1.43883
1200.32548 1.45171
1198.27715 1.46764
1196.22881 1.48255
1194.18047 1.49371
1192.13214 1.49991
1190.08380 1.50121
1188.03546 1.49918
1185.98713 1.49520
1183.93879 1.48901
1181.89045 1.47931
1179.84211 1.46569
1177.79378 1.45032
1175.74544 1.43636
1173.69710 1.42493
1171.64877 1.41497
1169.60043 1.40505
1167.55209 1.39399
1165.50376 1.38222
1163.45542 1.37225
1161.40708 1.36575
1159.35874 1.36289
1157.31041 1.36356
1155.26207 1.36644
1153.21373 1.36941
1151.16540 1.37152
1149.11706 1.37266
1147.06872 1.37259
1145.02038 1.37088
1142.97205 1.36670
1140.92371 1.35971
1138.87537 1.35146
1136.82704 1.34509
1134.77870 1.34320
1132.73036 1.34599
1130.68203 1.35156
1128.63369 1.35753
1126.58535 1.36169
1124.53701 1.36269
1122.48868 1.36054
1120.44034 1.35643
1118.39200 1.35178
1116.34367 1.34730
1114.29533 1.34338
1112.24699 1.34037
1110.19866 1.33967
1108.15032 1.34375
1106.10198 1.35509
1104.05364 1.37698
1102.00531 1.40913
1099.95697 1.43559
1097.90863 1.43354
1095.86030 1.40738
1093.81196 1.38128
1091.76362 1.36740
1089.71529 1.36315
1087.66695 1.36012
1085.61861 1.35329
1083.57027 1.34511
1081.52194 1.33911
1079.47360 1.33495
1077.42526 1.33103
1075.37693 1.32718
1073.32859 1.32422
1071.28025 1.32207
1069.23192 1.31936
1067.18358 1.31527
1065.13524 1.31025
1063.08690 1.30535
1061.03857 1.30116
1058.99023 1.29734
1056.94189 1.29373
1054.89356 1.29082
1052.84522 1.29017
1050.79688 1.29445
1048.74855 1.30488
1046.70021 1.31802
1044.65187 1.32808
1042.60353 1.33259
1040.55520 1.33344
1038.50686 1.33289
1036.45852 1.33208
1034.41019 1.33224
1032.36185 1.33328
1030.31351 1.33350
1028.26518 1.33210
1026.21684 1.32856
1024.16850 1.32205
1022.12016 1.31263
1020.07183 1.30188
1018.02349 1.29225
1015.97515 1.28460
1013.92682 1.27777
1011.87848 1.27138
1009.83014 1.26579
1007.78181 1.26030
1005.73347 1.25421
1003.68513 1.24816
1001.63679 1.24320
999.58846 1.23955
997.54012 1.23652
995.49178 1.23420
993.44345 1.23299
991.39511 1.23193
989.34677 1.22972
987.29844 1.22688
985.25010 1.22500
983.20176 1.22414
981.15342 1.22382
979.10509 1.22453
977.05675 1.22658
975.00841 1.22914
972.96008 1.23058
970.91174 1.23025
968.86340 1.22932
966.81507 1.22867
964.76673 1.22802
962.71839 1.22720
960.67005 1.22654
958.62172 1.22661
956.57338 1.22830
954.52504 1.23262
952.47671 1.23932
950.42837 1.24599
948.38003 1.25001
946.33170 1.25092
944.28336 1.25028
942.23502 1.24981
940.18668 1.24934
938.13835 1.24836
936.09001 1.24695
934.04167 1.24550
931.99334 1.24513
929.94500 1.24678
927.89666 1.25017
925.84833 1.25351
923.79999 1.25550
921.75165 1.25692
919.70331 1.25911
917.65498 1.26091
915.60664 1.26072
913.55830 1.25963
911.50997 1.25872
909.46163 1.25791
907.41329 1.25570
905.36496 1.24808
903.31662 1.22863
901.26828 1.18995
899.21994 1.14084
897.17161 1.11201
895.12327 1.12510
893.07493 1.17568
891.02660 1.24523
888.97826 1.31737
886.92992 1.39003
884.88159 1.47319
882.83325 1.56786
880.78491 1.65684
878.73657 1.72255
876.68824 1.75933
874.63990 1.76460
872.59156 1.73958
870.54323 1.68954
868.49489 1.62384
866.44655 1.55651
864.39822 1.49674
862.34988 1.44665
860.30154 1.40948
858.25320 1.39623
856.20487 1.43216
854.15653 1.51008
852.10819 1.52676
850.05986 1.43990
848.01152 1.34260
845.96318 1.27604
843.91485 1.23734
841.86651 1.21671
839.81817 1.20463
837.76983 1.19778
835.72150 1.19565
833.67316 1.19668
831.62482 1.19841
829.57649 1.19833
827.52815 1.19688
825.47981 1.19627
823.43148 1.19721
821.38314 1.19936
819.33480 1.20034
817.28646 1.19858
815.23813 1.19551
813.18979 1.19236
811.14145 1.18911
809.09312 1.18664
807.04478 1.18679
804.99644 1.18911
802.94811 1.19231
800.89977 1.19594
798.85143 1.19855
796.80309 1.19867
794.75476 1.19579
792.70642 1.19107
790.65808 1.18654
788.60975 1.18405
786.56141 1.18599
784.51307 1.19220
782.46474 1.19861
780.41640 1.20215
778.36806 1.20338
776.31972 1.20418
774.27139 1.20683
772.22305 1.21364
770.17471 1.22460
768.12638 1.23778
766.07804 1.25181
764.02970 1.26653
761.98137 1.28219
759.93303 1.29995
757.88469 1.32139
755.83635 1.34820
753.78802 1.38182
751.73968 1.42116
749.69134 1.46420
747.64301 1.51103
745.59467 1.56372
743.54633 1.62469
741.49800 1.69823
739.44966 1.79527
737.40132 1.93255
735.35298 2.10720
733.30465 2.23250
731.25631 2.19894
729.20797 2.10484
727.15964 2.04470
725.11130 1.98931
723.06296 1.90690
721.01463 1.81598
718.96629 1.74276
716.91795 1.69567
714.86961 1.66511
712.82128 1.63699
710.77294 1.60679
708.72460 1.57841
706.67627 1.55276
704.62793 1.52830
702.57959 1.50696
700.53126 1.49118
698.48292 1.47895
696.43458 1.46817
694.38624 1.46076
692.33791 1.45861
690.28957 1.45997
688.24123 1.46241
686.19290 1.46289
684.14456 1.45991
682.09622 1.45920
680.04789 1.46370
677.99955 1.46945
675.95121 1.47423
673.90287 1.47818
671.85454 1.48432
669.80620 1.49485
667.75786 1.49843
665.70953 1.49390
663.66119 1.49955
661.61285 1.51545
659.56452 1.53081
657.51618 1.53787
655.46784 1.53841
653.41950 1.53312
651.37117 1.53329
649.32283 1.55150
647.27449 1.57483
645.22616 1.58640
643.17782 1.59120
641.12948 1.59271
639.08115 1.58899
637.03281 1.58436
634.98447 1.58386
632.93613 1.58557
630.88780 1.57601
628.83946 1.55932
626.79112 1.55694
624.74279 1.56926
622.69445 1.58557
620.64611 1.60255
618.59778 1.61756
616.54944 1.63037
614.50110 1.63476
612.45276 1.64207
610.40443 1.67404
608.35609 1.70898
606.30775 1.72443
604.25942 1.73580
602.21108 1.75205
600.16274 1.77088
598.11441 1.80322
