3996.30549 0.95330
3994.25716 0.95510
3992.20882 0.95621
3990.16048 0.95688
3988.11215 0.95799
3986.06381 0.95945
3984.01547 0.96075
3981.96713 0.96166
3979.91880 0.96216
3977.87046 0.96248
3975.82212 0.96301
3973.77379 0.96339
3971.72545 0.96309
3969.67711 0.96244
3967.62878 0.96161
3965.58044 0.96053
3963.53210 0.95919
3961.48376 0.95751
3959.43543 0.95546
3957.38709 0.95308
3955.33875 0.95035
3953.29042 0.94765
3951.24208 0.94537
3949.19374 0.94317
3947.14541 0.94014
3945.09707 0.93638
3943.04873 0.93287
3941.00039 0.92943
3938.95206 0.92555
3936.90372 0.92154
3934.85538 0.91767
3932.80705 0.91428
3930.75871 0.91126
3928.71037 0.90737
3926.66204 0.90336
3924.61370 0.90091
3922.56536 0.89881
3920.51702 0.89595
3918.46869 0.89433
3916.42035 0.89399
3914.37201 0.89216
3912.32368 0.88933
3910.27534 0.88728
3908.22700 0.88574
3906.17867 0.88444
3904.13033 0.88517
3902.08199 0.88719
3900.03365 0.88789
3897.98532 0.88745
3895.93698 0.88506
3893.88864 0.88213
3891.84031 0.88197
3889.79197 0.88251
3887.74363 0.88020
3885.69530 0.87947
3883.64696 0.88103
3881.59862 0.88094
3879.55028 0.88133
3877.50195 0.87979
3875.45361 0.87679
3873.40527 0.87625
3871.35694 0.87731
3869.30860 0.87941
3867.26026 0.87961
3865.21193 0.87827
3863.16359 0.87955
3861.11525 0.87990
3859.06691 0.87744
3857.01858 0.87384
3854.97024 0.87087
3852.92190 0.87686
3850.87357 0.88302
3848.82523 0.88051
3846.77689 0.87667
3844.72856 0.87465
3842.68022 0.87471
3840.63188 0.87531
3838.58354 0.87755
3836.53521 0.88039
3834.48687 0.87962
3832.43853 0.87812
3830.39020 0.87738
3828.34186 0.87619
3826.29352 0.87540
3824.24519 0.87429
3822.19685 0.87380
3820.14851 0.87880
3818.10017 0.88062
3816.05184 0.87965
3814.00350 0.87977
3811.95516 0.87752
3809.90683 0.87437
3807.85849 0.87415
3805.81015 0.87730
3803.76182 0.87724
3801.71348 0.87785
3799.66514 0.88187
3797.61680 0.88203
3795.56847 0.88118
3793.52013 0.88009
3791.47179 0.87850
3789.42346 0.87756
3787.37512 0.87718
3785.32678 0.87786
3783.27845 0.87853
3781.23011 0.87808
3779.18177 0.87923
3777.13343 0.88064
3775.08510 0.87960
3773.03676 0.87796
3770.98842 0.87782
3768.94009 0.88009
3766.89175 0.88165
3764.84341 0.88201
3762.79508 0.88124
3760.74674 0.88037
3758.69840 0.88303
3756.65006 0.88531
3754.60173 0.88352
3752.55339 0.88192
3750.50505 0.88760
3748.45672 0.89302
3746.40838 0.89152
3744.36004 0.89232
3742.31171 0.89517
3740.26337 0.89427
3738.21503 0.89228
3736.16669 0.89377
3734.11836 0.89995
3732.07002 0.90310
3730.02168 0.90238
3727.97335 0.90115
3725.92501 0.90179
3723.87667 0.90364
3721.82834 0.90454
3719.78000 0.90461
3717.73166 0.90371
3715.68332 0.90183
3713.63499 0.90019
3711.58665 0.90259
3709.53831 0.90721
3707.48998 0.90686
3705.44164 0.90456
3703.39330 0.90308
3701.34497 0.90405
3699.29663 0.90506
3697.24829 0.90474
3695.19995 0.90454
3693.15162 0.90409
3691.10328 0.90470
3689.05494 0.91015
3687.00661 0.91386
3684.95827 0.91279
3682.90993 0.91157
3680.86160 0.91187
3678.81326 0.91268
3676.76492 0.91403
3674.71658 0.91945
3672.66825 0.92195
3670.61991 0.92248
3668.57157 0.92601
3666.52324 0.92687
3664.47490 0.92635
3662.42656 0.92732
3660.37823 0.92898
3658.32989 0.93045
3656.28155 0.93385
3654.23321 0.93729
3652.18488 0.93765
3650.13654 0.94025
3648.08820 0.95063
3646.03987 0.95543
3643.99153 0.95559
3641.94319 0.95639
3639.89486 0.95858
3637.84652 0.96112
3635.79818 0.96387
3633.74984 0.96714
3631.70151 0.96971
3629.65317 0.97296
3627.60483 0.98028
3625.55650 0.98396
3623.50816 0.98447
3621.45982 0.98532
3619.41149 0.98884
3617.36315 0.99342
3615.31481 0.99552
3613.26647 0.99706
3611.21814 0.99840
3609.16980 0.99933
3607.12146 1.00007
3605.07313 0.99947
3603.02479 0.99823
3600.97645 0.99745
3598.92812 0.99649
3596.87978 0.99499
3594.83144 0.99397
3592.78310 0.99291
3590.73477 0.99091
3588.68643 0.98980
3586.63809 0.99082
3584.58976 0.99068
3582.54142 0.98926
3580.49308 0.98836
3578.44475 0.98814
3576.39641 0.98805
3574.34807 0.98788
3572.29973 0.98767
3570.25140 0.98750
3568.20306 0.98813
3566.15472 0.98993
3564.10639 0.99019
3562.05805 0.98954
3560.00971 0.98940
3557.96138 0.98941
3555.91304 0.98936
3553.86470 0.98971
3551.81636 0.99059
3549.76803 0.99145
3547.71969 0.99264
3545.67135 0.99453
3543.62302 0.99549
3541.57468 0.99523
3539.52634 0.99523
3537.47801 0.99615
3535.42967 0.99752
3533.38133 0.99857
3531.33299 0.99938
3529.28466 1.00043
3527.23632 1.00194
3525.18798 1.00348
3523.13965 1.00457
3521.09131 1.00494
3519.04297 1.00512
3516.99464 1.00601
3514.94630 1.00735
3512.89796 1.00860
3510.84962 1.00983
3508.80129 1.01092
3506.75295 1.01168
3504.70461 1.01289
3502.65628 1.01456
3500.60794 1.01531
3498.55960 1.01565
3496.51127 1.01632
3494.46293 1.01685
3492.41459 1.01733
3490.36625 1.01830
3488.31792 1.01941
3486.26958 1.02025
3484.22124 1.02094
3482.17291 1.02187
3480.12457 1.02299
3478.07623 1.02382
3476.02789 1.02461
3473.97956 1.02548
3471.93122 1.02623
3469.88288 1.02716
3467.83455 1.02829
3465.78621 1.02900
3463.73787 1.02947
3461.68954 1.03027
3459.64120 1.03080
3457.59286 1.03081
3455.54452 1.03123
3453.49619 1.03193
3451.44785 1.03230
3449.39951 1.03285
3447.35118 1.03396
3445.30284 1.03509
3443.25450 1.03563
3441.20617 1.03567
3439.15783 1.03565
3437.10949 1.03595
3435.06115 1.03648
3433.01282 1.03703
3430.96448 1.03773
3428.91614 1.03840
3426.86781 1.03870
3424.81947 1.03855
3422.77113 1.03826
3420.72280 1.03847
3418.67446 1.03873
3416.62612 1.03831
3414.57778 1.03797
3412.52945 1.03832
3410.48111 1.03878
3408.43277 1.03872
3406.38444 1.03831
3404.33610 1.03813
3402.28776 1.03835
3400.23943 1.03889
3398.19109 1.03933
3396.14275 1.03931
3394.09441 1.03919
3392.04608 1.03916
3389.99774 1.03867
3387.94940 1.03791
3385.90107 1.03761
3383.85273 1.03788
3381.80439 1.03796
3379.75606 1.03767
3377.70772 1.03776
3375.65938 1.03813
3373.61104 1.03806
3371.56271 1.03795
3369.51437 1.03823
3367.46603 1.03836
3365.41770 1.03822
3363.36936 1.03810
3361.32102 1.03811
3359.27269 1.03804
3357.22435 1.03784
3355.17601 1.03797
3353.12767 1.03819
3351.07934 1.03789
3349.03100 1.03720
3346.98266 1.03656
3344.93433 1.03622
3342.88599 1.03622
3340.83765 1.03625
3338.78932 1.03598
3336.74098 1.03563
3334.69264 1.03528
3332.64430 1.03458
3330.59597 1.03381
3328.54763 1.03348
3326.49929 1.03343
3324.45096 1.03334
3322.40262 1.03328
3320.35428 1.03336
3318.30595 1.03352
3316.25761 1.03377
3314.20927 1.03392
3312.16093 1.03392
3310.11260 1.03404
3308.06426 1.03452
3306.01592 1.03515
3303.96759 1.03555
3301.91925 1.03590
3299.87091 1.03628
3297.82258 1.03659
3295.77424 1.03702
3293.72590 1.03775
3291.67756 1.03834
3289.62923 1.03850
3287.58089 1.03860
3285.53255 1.03856
3283.48422 1.03801
3281.43588 1.03744
3279.38754 1.03751
3277.33921 1.03796
3275.29087 1.03799
3273.24253 1.03754
3271.19419 1.03724
3269.14586 1.03742
3267.09752 1.03818
3265.04918 1.03921
3263.00085 1.03992
3260.95251 1.04040
3258.90417 1.04100
3256.85584 1.04159
3254.80750 1.04225
3252.75916 1.04302
3250.71082 1.04354
3248.66249 1.04389
3246.61415 1.04426
3244.56581 1.04460
3242.51748 1.04461
3240.46914 1.04401
3238.42080 1.04324
3236.37247 1.04258
3234.32413 1.04146
3232.27579 1.03987
3230.22745 1.03837
3228.17912 1.03693
3226.13078 1.03556
3224.08244 1.03472
3222.03411 1.03429
3219.98577 1.03399
3217.93743 1.03400
3215.88910 1.03418
3213.84076 1.03395
3211.79242 1.03310
3209.74408 1.03196
3207.69575 1.03087
3205.64741 1.03013
3203.59907 1.02997
3201.55074 1.03013
3199.50240 1.03009
3197.45406 1.02981
3195.40573 1.02952
3193.35739 1.02918
3191.30905 1.02866
3189.26071 1.02804
3187.21238 1.02750
3185.16404 1.02696
3183.11570 1.02611
3181.06737 1.02488
3179.01903 1.02338
3176.97069 1.02139
3174.92236 1.01869
3172.87402 1.01599
3170.82568 1.01394
3168.77734 1.01233
3166.72901 1.01090
3164.68067 1.00977
3162.63233 1.00884
3160.58400 1.00795
3158.53566 1.00726
3156.48732 1.00679
3154.43899 1.00648
3152.39065 1.00629
3150.34231 1.00597
3148.29397 1.00544
3146.24564 1.00490
3144.19730 1.00460
3142.14896 1.00456
3140.10063 1.00461
3138.05229 1.00469
3136.00395 1.00484
3133.95562 1.00510
3131.90728 1.00543
3129.85894 1.00575
3127.81060 1.00601
3125.76227 1.00605
3123.71393 1.00598
3121.66559 1.00614
3119.61726 1.00655
3117.56892 1.00721
3115.52058 1.00799
3113.47225 1.00858
3111.42391 1.00910
3109.37557 1.00987
3107.32723 1.01093
3105.27890 1.01205
3103.23056 1.01300
3101.18222 1.01376
3099.13389 1.01451
3097.08555 1.01541
3095.03721 1.01654
3092.98888 1.01780
3090.94054 1.01923
3088.89220 1.02102
3086.84386 1.02309
3084.79553 1.02529
3082.74719 1.02765
3080.69885 1.03000
3078.65052 1.03233
3076.60218 1.03496
3074.55384 1.03790
3072.50551 1.04096
3070.45717 1.04415
3068.40883 1.04771
3066.36049 1.05166
3064.31216 1.05572
3062.26382 1.05974
3060.21548 1.06380
3058.16715 1.06824
3056.11881 1.07329
3054.07047 1.07869
3052.02214 1.08482
3049.97380 1.09253
3047.92546 1.10167
3045.87712 1.11204
3043.82879 1.12446
3041.78045 1.14008
3039.73211 1.16047
3037.68378 1.18787
3035.63544 1.22475
3033.58710 1.27205
3031.53877 1.32668
3029.49043 1.37975
3027.44209 1.42257
3025.39375 1.45298
3023.34542 1.47154
3021.29708 1.47981
3019.24874 1.47963
3017.20041 1.47306
3015.15207 1.46317
3013.10373 1.45219
3011.05540 1.44111
3009.00706 1.43121
3006.95872 1.42429
3004.91038 1.42061
3002.86205 1.41894
3000.81371 1.41898
2998.76537 1.42031
2996.71704 1.42132
2994.66870 1.42107
2992.62036 1.41968
2990.57203 1.41705
2988.52369 1.41265
2986.47535 1.40649
2984.42701 1.39969
2982.37868 1.39303
2980.33034 1.38610
2978.28200 1.37864
2976.23367 1.37099
2974.18533 1.36333
2972.13699 1.35569
2970.08866 1.34823
2968.04032 1.34134
2965.99198 1.33546
2963.94364 1.33106
2961.89531 1.32911
2959.84697 1.33054
2957.79863 1.33593
2955.75030 1.34478
2953.70196 1.35389
2951.65362 1.36023
2949.60529 1.36408
2947.55695 1.36691
2945.50861 1.37018
2943.46027 1.37496
2941.41194 1.38070
2939.36360 1.38630
2937.31526 1.39150
2935.26693 1.39619
2933.21859 1.40045
2931.17025 1.40490
2929.12192 1.40991
2927.07358 1.41518
2925.02524 1.42026
2922.97690 1.42559
2920.92857 1.43220
2918.88023 1.44024
2916.83189 1.44974
2914.78356 1.46179
2912.73522 1.47740
2910.68688 1.49652
2908.63855 1.51788
2906.59021 1.53913
2904.54187 1.55803
2902.49353 1.57369
2900.44520 1.58504
2898.39686 1.59113
2896.34852 1.59219
2894.30019 1.58910
2892.25185 1.58366
2890.20351 1.57686
2888.15517 1.56875
2886.10684 1.56009
2884.05850 1.55054
2882.01016 1.53935
2879.96183 1.52745
2877.91349 1.51558
2875.86515 1.50336
2873.81682 1.49041
2871.76848 1.47632
2869.72014 1.46108
2867.67180 1.44448
2865.62347 1.42522
2863.57513 1.40281
2861.52679 1.37787
2859.47846 1.35104
2857.43012 1.32331
2855.38178 1.29565
2853.33345 1.26874
2851.28511 1.24240
2849.23677 1.21602
2847.18843 1.19020
2845.14010 1.16638
2843.09176 1.14518
2841.04342 1.12641
2838.99509 1.10995
2836.94675 1.09559
2834.89841 1.08297
2832.85008 1.07194
2830.80174 1.06287
2828.75340 1.05599
2826.70506 1.05106
2824.65673 1.04819
2822.60839 1.04805
2820.56005 1.05051
2818.51172 1.05318
2816.46338 1.05220
2814.41504 1.04570
2812.36671 1.03565
2810.31837 1.02510
2808.27003 1.01548
2806.22169 1.00724
2804.17336 1.00058
2802.12502 0.99530
2800.07668 0.99124
2798.02835 0.98819
2795.98001 0.98566
2793.93167 0.98318
2791.88334 0.98077
2789.83500 0.97878
2787.78666 0.97729
2785.73832 0.97591
2783.68999 0.97446
2781.64165 0.97316
2779.59331 0.97238
2777.54498 0.97207
2775.49664 0.97178
2773.44830 0.97137
2771.39997 0.97097
2769.35163 0.97051
2767.30329 0.97002
2765.25495 0.96963
2763.20662 0.96917
2761.15828 0.96851
2759.10994 0.96793
2757.06161 0.96745
2755.01327 0.96694
2752.96493 0.96669
2750.91660 0.96682
2748.86826 0.96695
2746.81992 0.96711
2744.77158 0.96761
2742.72325 0.96842
2740.67491 0.96939
2738.62657 0.97020
2736.57824 0.97074
2734.52990 0.97125
2732.48156 0.97192
2730.43323 0.97271
2728.38489 0.97358
2726.33655 0.97452
2724.28821 0.97556
2722.23988 0.97668
2720.19154 0.97786
2718.14320 0.97932
2716.09487 0.98116
2714.04653 0.98317
2711.99819 0.98530
2709.94986 0.98795
2707.90152 0.99126
2705.85318 0.99469
2703.80484 0.99787
2701.75651 1.00104
2699.70817 1.00446
2697.65983 1.00798
2695.61150 1.01143
2693.56316 1.01476
2691.51482 1.01791
2689.46649 1.02111
2687.41815 1.02455
2685.36981 1.02841
2683.32147 1.03284
2681.27314 1.03780
2679.22480 1.04382
2677.17646 1.05150
2675.12813 1.06100
2673.07979 1.07284
2671.03145 1.08752
2668.98312 1.10491
2666.93478 1.12480
2664.88644 1.14657
2662.83810 1.16900
2660.78977 1.19129
2658.74143 1.21328
2656.69309 1.23484
2654.64476 1.25582
2652.59642 1.27632
2650.54808 1.29666
2648.49975 1.31702
2646.45141 1.33739
2644.40307 1.35818
2642.35473 1.38006
2640.30640 1.40286
2638.25806 1.42610
2636.20972 1.44927
2634.16139 1.47118
2632.11305 1.49064
2630.06471 1.50595
2628.01638 1.51430
2625.96804 1.51291
2623.91970 1.50117
2621.87136 1.48182
2619.82303 1.45902
2617.77469 1.43609
2615.72635 1.41446
2613.67802 1.39431
2611.62968 1.37617
2609.58134 1.36082
2607.53301 1.34856
2605.48467 1.34002
2603.43633 1.33639
2601.38799 1.33936
2599.33966 1.35127
2597.29132 1.37320
2595.24298 1.40298
2593.19465 1.43610
2591.14631 1.46785
2589.09797 1.49405
2587.04964 1.51286
2585.00130 1.52653
2582.95296 1.53797
2580.90462 1.54781
2578.85629 1.55615
2576.80795 1.56314
2574.75961 1.56827
2572.71128 1.57141
2570.66294 1.57388
2568.61460 1.57806
2566.56627 1.58674
2564.51793 1.60204
2562.46959 1.62425
2560.42125 1.65132
2558.37292 1.68050
2556.32458 1.70950
2554.27624 1.73512
2552.22791 1.75475
2550.17957 1.76840
2548.13123 1.77792
2546.08290 1.78560
2544.03456 1.79263
2541.98622 1.80003
2539.93788 1.80822
2537.88955 1.81660
2535.84121 1.82418
2533.79287 1.82942
2531.74454 1.83293
2529.69620 1.83636
2527.64786 1.83921
2525.59953 1.84059
2523.55119 1.83876
2521.50285 1.83066
2519.45451 1.81285
2517.40618 1.78122
2515.35784 1.73600
2513.30950 1.68397
2511.26117 1.63173
2509.21283 1.58303
2507.16449 1.53974
2505.11616 1.50145
2503.06782 1.46684
2501.01948 1.43497
2498.97114 1.40439
2496.92281 1.37422
2494.87447 1.34511
2492.82613 1.31778
2490.77780 1.29257
2488.72946 1.26984
2486.68112 1.24938
2484.63279 1.23048
2482.58445 1.21295
2480.53611 1.19690
2478.48777 1.18240
2476.43944 1.16929
2474.39110 1.15696
2472.34276 1.14512
2470.29443 1.13422
2468.24609 1.12457
2466.19775 1.11614
2464.14942 1.10837
2462.10108 1.10064
2460.05274 1.09286
2458.00440 1.08511
2455.95607 1.07773
2453.90773 1.07124
2451.85939 1.06543
2449.81106 1.05985
2447.76272 1.05467
2445.71438 1.05010
2443.66605 1.04605
2441.61771 1.04235
2439.56937 1.03891
2437.52103 1.03576
2435.47270 1.03290
2433.42436 1.03039
2431.37602 1.02823
2429.32769 1.02635
2427.27935 1.02465
2425.23101 1.02286
2423.18268 1.02121
2421.13434 1.02025
2419.08600 1.02000
2417.03766 1.01992
2414.98933 1.01964
2412.94099 1.01931
2410.89265 1.01861
2408.84432 1.01675
2406.79598 1.01359
2404.74764 1.00968
2402.69931 1.00570
2400.65097 1.00212
2398.60263 0.99931
2396.55429 0.99726
2394.50596 0.99560
2392.45762 0.99408
2390.40928 0.99292
2388.36095 0.99224
2386.31261 0.99215
2384.26427 0.99312
2382.21594 0.99549
2380.16760 0.99943
2378.11926 1.00491
2376.07092 1.01147
2374.02259 1.01900
2371.97425 1.02749
2369.92591 1.03603
2367.87758 1.04224
2365.82924 1.04524
2363.78090 1.04937
2361.73257 1.05510
2359.68423 1.05700
2357.63589 1.05440
2355.58755 1.04921
2353.53922 1.04347
2351.49088 1.03798
2349.44254 1.03391
2347.39421 1.03331
2345.34587 1.03823
2343.29753 1.04690
2341.24920 1.05269
2339.20086 1.05461
2337.15252 1.05514
2335.10418 1.05489
2333.05585 1.05391
2331.00751 1.05294
2328.95917 1.05162
2326.91084 1.04984
2324.86250 1.04808
2322.81416 1.04580
2320.76582 1.04230
2318.71749 1.03805
2316.66915 1.03364
2314.62081 1.02914
2312.57248 1.02468
2310.52414 1.01989
2308.47580 1.01426
2306.42747 1.00793
2304.37913 1.00074
2302.33079 0.99263
2300.28245 0.98444
2298.23412 0.97754
2296.18578 0.97283
2294.13744 0.97036
2292.08911 0.96977
2290.04077 0.97073
2287.99243 0.97276
2285.94410 0.97534
2283.89576 0.97815
2281.84742 0.98109
2279.79908 0.98443
2277.75075 0.98836
2275.70241 0.99257
2273.65407 0.99685
2271.60574 1.00131
2269.55740 1.00611
2267.50906 1.01122
2265.46073 1.01634
2263.41239 1.02136
2261.36405 1.02637
2259.31571 1.03113
2257.26738 1.03502
2255.21904 1.03751
2253.17070 1.03875
2251.12237 1.03870
2249.07403 1.03688
2247.02569 1.03343
2244.97736 1.02886
2242.92902 1.02364
2240.88068 1.01820
2238.83234 1.01263
2236.78401 1.00719
2234.73567 1.00249
2232.68733 0.99886
2230.63900 0.99657
2228.59066 0.99574
2226.54232 0.99621
2224.49399 0.99821
2222.44565 1.00234
2220.39731 1.00844
2218.34897 1.01551
2216.30064 1.02262
2214.25230 1.02897
2212.20396 1.03417
2210.15563 1.03821
2208.10729 1.04139
2206.05895 1.04433
2204.01062 1.04741
2201.96228 1.05061
2199.91394 1.05410
2197.86560 1.05826
2195.81727 1.06333
2193.76893 1.06933
2191.72059 1.07560
2189.67226 1.08164
2187.62392 1.08770
2185.57558 1.09396
2183.52725 1.10056
2181.47891 1.10802
2179.43057 1.11628
2177.38223 1.12462
2175.33390 1.13255
2173.28556 1.13979
2171.23722 1.14590
2169.18889 1.15027
2167.14055 1.15253
2165.09221 1.15326
2163.04388 1.15339
2160.99554 1.15316
2158.94720 1.15257
2156.89886 1.15163
2154.85053 1.15010
2152.80219 1.14761
2150.75385 1.14374
2148.70552 1.13791
2146.65718 1.12967
2144.60884 1.11915
2142.56051 1.10627
2140.51217 1.09127
2138.46383 1.07571
2136.41549 1.06121
2134.36716 1.04853
2132.31882 1.03789
2130.27048 1.02900
2128.22215 1.02158
2126.17381 1.01549
2124.12547 1.01033
2122.07714 1.00583
2120.02880 1.00214
2117.98046 0.99908
2115.93212 0.99612
2113.88379 0.99319
2111.83545 0.99069
2109.78711 0.98879
2107.73878 0.98718
2105.69044 0.98560
2103.64210 0.98430
2101.59377 0.98362
2099.54543 0.98340
2097.49709 0.98305
2095.44875 0.98246
2093.40042 0.98200
2091.35208 0.98172
2089.30374 0.98131
2087.25541 0.98063
2085.20707 0.97981
2083.15873 0.97917
2081.11040 0.97901
2079.06206 0.97934
2077.01372 0.97958
2074.96538 0.97945
2072.91705 0.97931
2070.86871 0.97920
2068.82037 0.97899
2066.77204 0.97908
2064.72370 0.97968
2062.67536 0.98005
2060.62703 0.97980
2058.57869 0.97940
2056.53035 0.97918
2054.48201 0.97908
2052.43368 0.97891
2050.38534 0.97889
2048.33700 0.97931
2046.28867 0.97993
2044.24033 0.98048
2042.19199 0.98117
2040.14366 0.98197
2038.09532 0.98269
2036.04698 0.98360
2033.99864 0.98467
2031.95031 0.98557
2029.90197 0.98634
2027.85363 0.98709
2025.80530 0.98801
2023.75696 0.98909
2021.70862 0.99018
2019.66029 0.99130
2017.61195 0.99273
2015.56361 0.99396
2013.51527 0.99450
2011.46694 0.99510
2009.41860 0.99632
2007.37026 0.99784
2005.32193 0.99921
2003.27359 1.00048
2001.22525 1.00164
1999.17692 1.00255
1997.12858 1.00359
1995.08024 1.00512
1993.03190 1.00758
1990.98357 1.01110
1988.93523 1.01494
1986.88689 1.01993
1984.83856 1.02765
1982.79022 1.03867
1980.74188 1.05296
1978.69355 1.06954
1976.64521 1.08520
1974.59687 1.09365
1972.54853 1.09048
1970.50020 1.07870
1968.45186 1.06540
1966.40352 1.05508
1964.35519 1.04881
1962.30685 1.04582
1960.25851 1.04513
1958.21018 1.04569
1956.16184 1.04680
1954.11350 1.04849
1952.06516 1.05048
1950.01683 1.05250
1947.96849 1.05444
1945.92015 1.05661
1943.87182 1.05964
1941.82348 1.06323
1939.77514 1.06583
1937.72681 1.06823
1935.67847 1.07182
1933.63013 1.07636
1931.58179 1.08181
1929.53346 1.08748
1927.48512 1.09256
1925.43678 1.09700
1923.38845 1.10212
1921.34011 1.10728
1919.29177 1.11181
1917.24344 1.11773
1915.19510 1.12397
1913.14676 1.12969
1911.09842 1.13664
1909.05009 1.14542
1907.00175 1.15426
1904.95341 1.16232
1902.90508 1.17038
1900.85674 1.17867
1898.80840 1.18650
1896.76007 1.19441
1894.71173 1.20342
1892.66339 1.21234
1890.61505 1.22110
1888.56672 1.22988
1886.51838 1.23643
1884.47004 1.24144
1882.42171 1.24683
1880.37337 1.25263
1878.32503 1.25908
1876.27670 1.26546
1874.22836 1.27120
1872.18002 1.27662
1870.13168 1.28418
1868.08335 1.29662
1866.03501 1.30856
1863.98667 1.31804
1861.93834 1.32873
1859.89000 1.34194
1857.84166 1.35665
1855.79333 1.37256
1853.74499 1.39033
1851.69665 1.41052
1849.64831 1.43301
1847.59998 1.45813
1845.55164 1.48989
1843.50330 1.53502
1841.45497 1.58021
1839.40663 1.62283
1837.35829 1.67648
1835.30996 1.74141
1833.26162 1.80950
1831.21328 1.88931
1829.16494 1.99635
1827.11661 2.09092
1825.06827 2.15618
1823.01993 2.20048
1820.97160 2.22066
1818.92326 2.22781
1816.87492 2.22681
1814.82659 2.22150
1812.77825 2.21117
1810.72991 2.18569
1808.68157 2.14674
1806.63324 2.10683
1804.58490 2.07137
1802.53656 2.03670
1800.48823 1.99696
1798.43989 1.96088
1796.39155 1.93480
1794.34322 1.91258
1792.29488 1.88639
1790.24654 1.86323
1788.19820 1.84996
1786.14987 1.83857
1784.10153 1.82577
1782.05319 1.81449
1780.00486 1.80553
1777.95652 1.79907
1775.90818 1.79535
1773.85985 1.79369
1771.81151 1.79056
1769.76317 1.78563
1767.71483 1.78245
1765.66650 1.77988
1763.61816 1.77780
1761.56982 1.77771
1759.52149 1.77921
1757.47315 1.78046
1755.42481 1.78221
1753.37648 1.78489
1751.32814 1.79030
1749.27980 1.79970
1747.23146 1.80795
1745.18313 1.81507
1743.13479 1.82313
1741.08645 1.83077
1739.03812 1.83645
1736.98978 1.83954
1734.94144 1.84339
1732.89310 1.85031
1730.84477 1.85498
1728.79643 1.85994
1726.74809 1.86572
1724.69976 1.87221
1722.65142 1.87972
1720.60308 1.88606
1718.55475 1.89208
1716.50641 1.89833
1714.45807 1.90092
1712.40973 1.90389
1710.36140 1.90940
1708.31306 1.91642
1706.26472 1.92640
1704.21639 1.93861
1702.16805 1.94811
1700.11971 1.95860
1698.07138 1.96957
1696.02304 1.97900
1693.97470 1.98865
1691.92636 1.99599
1689.87803 2.00562
1687.82969 2.01934
1685.78135 2.03698
1683.73302 2.06299
1681.68468 2.07600
1679.63634 2.08069
1677.58801 2.08938
1675.53967 2.10492
1673.49133 2.12184
1671.44299 2.13532
1669.39466 2.14844
1667.34632 2.15620
1665.29798 2.16551
1663.24965 2.18346
1661.20131 2.19944
1659.15297 2.20649
1657.10464 2.21262
1655.05630 2.22241
1653.00796 2.23860
1650.95962 2.24672
1648.91129 2.25245
1646.86295 2.25227
1644.81461 2.24469
1642.76628 2.24280
1640.71794 2.24101
1638.66960 2.23525
1636.62127 2.21857
1634.57293 2.18606
1632.52459 2.16670
1630.47625 2.15404
1628.42792 2.13651
1626.37958 2.11438
1624.33124 2.09154
1622.28291 2.06615
1620.23457 2.04666
1618.18623 2.02883
1616.13790 2.00104
1614.08956 1.97961
1612.04122 1.96661
1609.99288 1.95211
1607.94455 1.93037
1605.89621 1.90343
1603.84787 1.87342
1601.79954 1.83859
1599.75120 1.80162
1597.70286 1.76432
1595.65453 1.72221
1593.60619 1.67404
1591.55785 1.62306
1589.50951 1.56996
1587.46118 1.51857
1585.41284 1.47095
1583.36450 1.42560
1581.31617 1.38382
1579.26783 1.34971
1577.21949 1.31384
1575.17116 1.27134
1573.12282 1.24900
1571.07448 1.23849
1569.02614 1.23078
1566.97781 1.22777
1564.92947 1.22801
1562.88113 1.22896
1560.83280 1.23020
1558.78446 1.23389
1556.73612 1.23877
1554.68779 1.24173
1552.63945 1.24502
1550.59111 1.24941
1548.54277 1.25494
1546.49444 1.26049
1544.44610 1.26714
1542.39776 1.27535
1540.34943 1.28517
1538.30109 1.29253
1536.25275 1.29606
1534.20442 1.30221
1532.15608 1.31074
1530.10774 1.31654
1528.05940 1.32209
1526.01107 1.32927
1523.96273 1.33601
1521.91439 1.34417
1519.86606 1.35159
1517.81772 1.35587
1515.76938 1.36099
1513.72105 1.36619
1511.67271 1.37213
1509.62437 1.37979
1507.57603 1.39380
1505.52770 1.41006
1503.47936 1.41586
1501.43102 1.42128
1499.38269 1.42923
1497.33435 1.43978
1495.28601 1.44838
1493.23768 1.45338
1491.18934 1.45945
1489.14100 1.46894
1487.09266 1.47534
1485.04433 1.47870
1482.99599 1.48252
1480.94765 1.48648
1478.89932 1.48906
1476.85098 1.49131
1474.80264 1.49518
1472.75431 1.49988
1470.70597 1.50260
1468.65763 1.50421
1466.60929 1.50721
1464.56096 1.51318
1462.51262 1.51949
1460.46428 1.52434
1458.41595 1.53124
1456.36761 1.54348
1454.31927 1.55010
1452.27094 1.55321
1450.22260 1.55677
1448.17426 1.56086
1446.12592 1.56381
1444.07759 1.56515
1442.02925 1.56545
1439.98091 1.56544
1437.93258 1.56539
1435.88424 1.56458
1433.83590 1.56314
1431.78757 1.56200
1429.73923 1.56058
1427.69089 1.55836
1425.64255 1.55690
1423.59422 1.55905
1421.54588 1.56683
1419.49754 1.58664
1417.44921 1.62176
1415.40087 1.65198
1413.35253 1.67698
1411.30420 1.69889
1409.25586 1.71229
1407.20752 1.71833
1405.15918 1.72438
1403.11085 1.73136
1401.06251 1.73722
1399.01417 1.74374
1396.96584 1.74991
1394.91750 1.75278
1392.86916 1.75208
1390.82083 1.74977
1388.77249 1.74691
1386.72415 1.74329
1384.67581 1.73895
1382.62748 1.73509
1380.57914 1.73159
1378.53080 1.72843
1376.48247 1.72496
1374.43413 1.71747
1372.38579 1.70481
1370.33746 1.69118
1368.28912 1.67847
1366.24078 1.67114
1364.19244 1.67010
1362.14411 1.66905
1360.09577 1.66207
1358.04743 1.65045
1355.99910 1.63668
1353.95076 1.62318
1351.90242 1.61367
1349.85409 1.61031
1347.80575 1.61173
1345.75741 1.61385
1343.70907 1.61381
1341.66074 1.61084
1339.61240 1.60390
1337.56406 1.59471
1335.51573 1.58608
1333.46739 1.57700
1331.41905 1.56712
1329.37072 1.55850
1327.32238 1.55318
1325.27404 1.55136
1323.22570 1.55124
1321.17737 1.54985
1319.12903 1.54577
1317.08069 1.53986
1315.03236 1.53326
1312.98402 1.52719
1310.93568 1.52312
1308.88735 1.52177
1306.83901 1.52247
1304.79067 1.52349
1302.74233 1.52350
1300.69400 1.52210
1298.64566 1.51916
1296.59732 1.51469
1294.54899 1.50921
1292.50065 1.50359
1290.45231 1.49770
1288.40398 1.49015
1286.35564 1.48045
1284.30730 1.46954
1282.25896 1.45826
1280.21063 1.44821
1278.16229 1.44095
1276.11395 1.43664
1274.06562 1.43546
1272.01728 1.43820
1269.96894 1.44482
1267.92061 1.45428
1265.87227 1.46462
1263.82393 1.47304
1261.77559 1.47749
1259.72726 1.47753
1257.67892 1.47496
1255.63058 1.47246
1253.58225 1.47152
1251.53391 1.47184
1249.48557 1.47263
1247.43724 1.47383
1245.38890 1.47544
1243.34056 1.47705
1241.29222 1.47839
1239.24389 1.47989
1237.19555 1.48294
1235.14721 1.48849
1233.09888 1.49527
1231.05054 1.50037
1229.00220 1.50098
1226.95387 1.49557
1224.90553 1.48417
1222.85719 1.46884
1220.80885 1.45241
1218.76052 1.43706
1216.71218 1.42489
1214.66384 1.41722
1212.61551 1.41348
1210.56717 1.41250
1208.51883 1.41372
1206.47050 1.41614
1204.42216 1.41876
1202.37382 1.42247
1200.32548 1.42923
1198.27715 1.43924
1196.22881 1.45010
1194.18047 1.45862
1192.13214 1.46286
1190.08380 1.46292
1188.03546 1.46060
1185.98713 1.45737
1183.93879 1.45258
1181.89045 1.44429
1179.84211 1.43216
1177.79378 1.41900
1175.74544 1.40782
1173.69710 1.39915
1171.64877 1.39202
1169.60043 1.38522
1167.55209 1.37756
1165.50376 1.36895
1163.45542 1.36118
1161.40708 1.35587
1159.35874 1.35314
1157.31041 1.35240
1155.26207 1.35295
1153.21373 1.35396
1151.16540 1.35477
1149.11706 1.35541
1147.06872 1.35535
1145.02038 1.35308
1142.97205 1.34716
1140.92371 1.33830
1138.87537 1.32932
1136.82704 1.32256
1134.77870 1.31880
1132.73036 1.31857
1130.68203 1.32193
1128.63369 1.32731
1126.58535 1.33236
1124.53701 1.33538
1122.48868 1.33624
1120.44034 1.33574
1118.39200 1.33412
1116.34367 1.33095
1114.29533 1.32672
1112.24699 1.32342
1110.19866 1.32257
1108.15032 1.32550
1106.10198 1.33555
1104.05364 1.35701
1102.00531 1.38889
1099.95697 1.41521
1097.90863 1.41419
1095.86030 1.38991
1093.81196 1.36511
1091.76362 1.35122
1089.71529 1.34635
1087.66695 1.34359
1085.61861 1.33809
1083.57027 1.33102
1081.52194 1.32576
1079.47360 1.32320
1077.42526 1.32191
1075.37693 1.32082
1073.32859 1.32013
1071.28025 1.31940
1069.23192 1.31686
1067.18358 1.31157
1065.13524 1.30498
1063.08690 1.29916
1061.03857 1.29422
1058.99023 1.28849
1056.94189 1.28193
1054.89356 1.27718
1052.84522 1.27612
1050.79688 1.27954
1048.74855 1.28767
1046.70021 1.29817
1044.65187 1.30707
1042.60353 1.31258
1040.55520 1.31597
1038.50686 1.31904
1036.45852 1.32261
1034.41019 1.32648
1032.36185 1.32902
1030.31351 1.32893
1028.26518 1.32644
1026.21684 1.32174
1024.16850 1.31396
1022.12016 1.30343
1020.07183 1.29375
1018.02349 1.28793
1015.97515 1.28462
1013.92682 1.28130
1011.87848 1.27786
1009.83014 1.27485
1007.78181 1.27218
1005.73347 1.26958
1003.68513 1.26658
1001.63679 1.26373
999.58846 1.26295
997.54012 1.26495
995.49178 1.26740
993.44345 1.26744
991.39511 1.26543
989.34677 1.26306
987.29844 1.26030
985.25010 1.25665
983.20176 1.25263
981.15342 1.24904
979.10509 1.24669
977.05675 1.24562
975.00841 1.24515
972.96008 1.24497
970.91174 1.24444
968.86340 1.24248
966.81507 1.23924
964.76673 1.23586
962.71839 1.23323
960.67005 1.23163
958.62172 1.23116
956.57338 1.23223
954.52504 1.23498
952.47671 1.23902
950.42837 1.24372
948.38003 1.24818
946.33170 1.25110
944.28336 1.25123
942.23502 1.24902
940.18668 1.24634
938.13835 1.24434
936.09001 1.24331
934.04167 1.24337
931.99334 1.24540
929.94500 1.25015
927.89666 1.25686
925.84833 1.26384
923.79999 1.26871
921.75165 1.27028
919.70331 1.27020
917.65498 1.26964
915.60664 1.26828
913.55830 1.26800
911.50997 1.27030
909.46163 1.27230
907.41329 1.27040
905.36496 1.26316
903.31662 1.24901
901.26828 1.22681
899.21994 1.20415
897.17161 1.20079
895.12327 1.23350
893.07493 1.30022
891.02660 1.38279
888.97826 1.46338
886.92992 1.53540
884.88159 1.60038
882.83325 1.66126
880.78491 1.71466
878.73657 1.75457
876.68824 1.78061
874.63990 1.79146
872.59156 1.77685
870.54323 1.72456
868.49489 1.64616
866.44655 1.56918
864.39822 1.50798
862.34988 1.46093
860.30154 1.42476
858.25320 1.41155
856.20487 1.45321
854.15653 1.54197
852.10819 1.56303
850.05986 1.47497
848.01152 1.38103
845.96318 1.32044
843.91485 1.28495
841.86651 1.26173
839.81817 1.24426
837.76983 1.23343
835.72150 1.22983
833.67316 1.23048
831.62482 1.23126
829.57649 1.23083
827.52815 1.23128
825.47981 1.23383
823.43148 1.23776
821.38314 1.24226
819.33480 1.24464
817.28646 1.24286
815.23813 1.23856
813.18979 1.23563
811.14145 1.23674
809.09312 1.24024
807.04478 1.24341
804.99644 1.24563
802.94811 1.24582
800.89977 1.24272
798.85143 1.23811
796.80309 1.23437
794.75476 1.23145
792.70642 1.22946
790.65808 1.22911
788.60975 1.22980
786.56141 1.23094
784.51307 1.23132
782.46474 1.23004
780.41640 1.22780
778.36806 1.22571
776.31972 1.22731
774.27139 1.23597
772.22305 1.24974
770.17471 1.26444
768.12638 1.27815
766.07804 1.29123
764.02970 1.30640
761.98137 1.32445
759.93303 1.34431
757.88469 1.36931
755.83635 1.40231
753.78802 1.44125
751.73968 1.48533
749.69134 1.53539
747.64301 1.59148
745.59467 1.65759
743.54633 1.73817
741.49800 1.83440
739.44966 1.95086
737.40132 2.09345
735.35298 2.26370
733.30465 2.40434
731.25631 2.37890
729.20797 2.25015
727.15964 2.13983
725.11130 2.04721
723.06296 1.95542
721.01463 1.86980
718.96629 1.80391
716.91795 1.76022
714.86961 1.72900
712.82128 1.70332
710.77294 1.68143
708.72460 1.66391
706.67627 1.64770
704.62793 1.62966
702.57959 1.61242
700.53126 1.59855
698.48292 1.58861
696.43458 1.58190
694.38624 1.57682
692.33791 1.57282
690.28957 1.57101
688.24123 1.57316
686.19290 1.57813
684.14456 1.58621
682.09622 1.59661
680.04789 1.60150
677.99955 1.60014
675.95121 1.59805
673.90287 1.59988
671.85454 1.60960
669.80620 1.62254
667.75786 1.62671
665.70953 1.62673
663.66119 1.63148
661.61285 1.63736
659.56452 1.64265
657.51618 1.64984
655.46784 1.66208
653.41950 1.67660
651.37117 1.68567
649.32283 1.68857
647.27449 1.69158
645.22616 1.69407
643.17782 1.69415
641.12948 1.70217
639.08115 1.71803
637.03281 1.72474
634.98447 1.72293
632.93613 1.71765
630.88780 1.70063
628.83946 1.68435
626.79112 1.68150
624.74279 1.67825
622.69445 1.67308
620.64611 1.67206
618.59778 1.67273
616.54944 1.68141
614.50110 1.70230
612.45276 1.72978
610.40443 1.73548
608.35609 1.70767
606.30775 1.68640
604.25942 1.70498
602.21108 1.75588
600.16274 1.81482
598.11441 1.88358
