3996.30549 1.02677
3994.25716 1.02793
3992.20882 1.02924
3990.16048 1.03065
3988.11215 1.03200
3986.06381 1.03333
3984.01547 1.03482
3981.96713 1.03610
3979.91880 1.03698
3977.87046 1.03759
3975.82212 1.03802
3973.77379 1.03802
3971.72545 1.03746
3969.67711 1.03668
3967.62878 1.03552
3965.58044 1.03400
3963.53210 1.03247
3961.48376 1.03071
3959.43543 1.02823
3957.38709 1.02538
3955.33875 1.02220
3953.29042 1.01872
3951.24208 1.01575
3949.19374 1.01308
3947.14541 1.00963
3945.09707 1.00565
3943.04873 1.00180
3941.00039 0.99779
3938.95206 0.99322
3936.90372 0.98833
3934.85538 0.98375
3932.80705 0.98004
3930.75871 0.97707
3928.71037 0.97337
3926.66204 0.96886
3924.61370 0.96512
3922.56536 0.96227
3920.51702 0.95926
3918.46869 0.95738
3916.42035 0.95711
3914.37201 0.95559
3912.32368 0.95256
3910.27534 0.95000
3908.22700 0.94817
3906.17867 0.94698
3904.13033 0.94800
3902.08199 0.94985
3900.03365 0.95000
3897.98532 0.94914
3895.93698 0.94637
3893.88864 0.94280
3891.84031 0.94228
3889.79197 0.94340
3887.74363 0.94144
3885.69530 0.94053
3883.64696 0.94178
3881.59862 0.94092
3879.55028 0.94072
3877.50195 0.93958
3875.45361 0.93677
3873.40527 0.93588
3871.35694 0.93695
3869.30860 0.93988
3867.26026 0.94056
3865.21193 0.93868
3863.16359 0.93962
3861.11525 0.94006
3859.06691 0.93708
3857.01858 0.93278
3854.97024 0.92978
3852.92190 0.93709
3850.87357 0.94386
3848.82523 0.94102
3846.77689 0.93674
3844.72856 0.93405
3842.68022 0.93360
3840.63188 0.93429
3838.58354 0.93677
3836.53521 0.93968
3834.48687 0.93926
3832.43853 0.93802
3830.39020 0.93726
3828.34186 0.93612
3826.29352 0.93554
3824.24519 0.93434
3822.19685 0.93305
3820.14851 0.93721
3818.10017 0.93881
3816.05184 0.93794
3814.00350 0.93868
3811.95516 0.93686
3809.90683 0.93378
3807.85849 0.93318
3805.81015 0.93582
3803.76182 0.93560
3801.71348 0.93627
3799.66514 0.94057
3797.61680 0.94094
3795.56847 0.94025
3793.52013 0.93912
3791.47179 0.93742
3789.42346 0.93660
3787.37512 0.93628
3785.32678 0.93683
3783.27845 0.93769
3781.23011 0.93717
3779.18177 0.93791
3777.13343 0.93951
3775.08510 0.93854
3773.03676 0.93635
3770.98842 0.93596
3768.94009 0.93862
3766.89175 0.94049
3764.84341 0.94105
3762.79508 0.94034
3760.74674 0.93902
3758.69840 0.94104
3756.65006 0.94348
3754.60173 0.94224
3752.55339 0.94040
3750.50505 0.94468
3748.45672 0.94954
3746.40838 0.94774
3744.36004 0.94912
3742.31171 0.95373
3740.26337 0.95338
3738.21503 0.95148
3736.16669 0.95335
3734.11836 0.96024
3732.07002 0.96405
3730.02168 0.96332
3727.97335 0.96173
3725.92501 0.96194
3723.87667 0.96377
3721.82834 0.96536
3719.78000 0.96606
3717.73166 0.96518
3715.68332 0.96287
3713.63499 0.96052
3711.58665 0.96257
3709.53831 0.96815
3707.48998 0.96833
3705.44164 0.96573
3703.39330 0.96388
3701.34497 0.96486
3699.29663 0.96624
3697.24829 0.96622
3695.19995 0.96604
3693.15162 0.96553
3691.10328 0.96609
3689.05494 0.97177
3687.00661 0.97648
3684.95827 0.97608
3682.90993 0.97487
3680.86160 0.97481
3678.81326 0.97525
3676.76492 0.97605
3674.71658 0.98153
3672.66825 0.98533
3670.61991 0.98708
3668.57157 0.99178
3666.52324 0.99330
3664.47490 0.99285
3662.42656 0.99359
3660.37823 0.99516
3658.32989 0.99701
3656.28155 1.00108
3654.23321 1.00509
3652.18488 1.00602
3650.13654 1.00943
3648.08820 1.02015
3646.03987 1.02478
3643.99153 1.02524
3641.94319 1.02653
3639.89486 1.02935
3637.84652 1.03263
3635.79818 1.03587
3633.74984 1.03949
3631.70151 1.04243
3629.65317 1.04584
3627.60483 1.05338
3625.55650 1.05773
3623.50816 1.05909
3621.45982 1.06037
3619.41149 1.06331
3617.36315 1.06749
3615.31481 1.07021
3613.26647 1.07270
3611.21814 1.07478
3609.16980 1.07595
3607.12146 1.07719
3605.07313 1.07722
3603.02479 1.07595
3600.97645 1.07488
3598.92812 1.07403
3596.87978 1.07257
3594.83144 1.07105
3592.78310 1.06995
3590.73477 1.06837
3588.68643 1.06698
3586.63809 1.06720
3584.58976 1.06693
3582.54142 1.06549
3580.49308 1.06452
3578.44475 1.06450
3576.39641 1.06455
3574.34807 1.06430
3572.29973 1.06385
3570.25140 1.06321
3568.20306 1.06358
3566.15472 1.06608
3564.10639 1.06673
3562.05805 1.06541
3560.00971 1.06469
3557.96138 1.06465
3555.91304 1.06456
3553.86470 1.06474
3551.81636 1.06563
3549.76803 1.06649
3547.71969 1.06756
3545.67135 1.06968
3543.62302 1.07101
3541.57468 1.07116
3539.52634 1.07195
3537.47801 1.07348
3535.42967 1.07495
3533.38133 1.07603
3531.33299 1.07692
3529.28466 1.07804
3527.23632 1.07955
3525.18798 1.08107
3523.13965 1.08227
3521.09131 1.08297
3519.04297 1.08349
3516.99464 1.08450
3514.94630 1.08584
3512.89796 1.08705
3510.84962 1.08834
3508.80129 1.09016
3506.75295 1.09157
3504.70461 1.09211
3502.65628 1.09253
3500.60794 1.09299
3498.55960 1.09395
3496.51127 1.09545
3494.46293 1.09634
3492.41459 1.09627
3490.36625 1.09628
3488.31792 1.09728
3486.26958 1.09893
3484.22124 1.10002
3482.17291 1.10071
3480.12457 1.10180
3478.07623 1.10278
3476.02789 1.10329
3473.97956 1.10366
3471.93122 1.10432
3469.88288 1.10553
3467.83455 1.10694
3465.78621 1.10795
3463.73787 1.10863
3461.68954 1.10934
3459.64120 1.11008
3457.59286 1.11067
3455.54452 1.11102
3453.49619 1.11136
3451.44785 1.11179
3449.39951 1.11211
3447.35118 1.11267
3445.30284 1.11371
3443.25450 1.11456
3441.20617 1.11504
3439.15783 1.11537
3437.10949 1.11574
3435.06115 1.11634
3433.01282 1.11702
3430.96448 1.11770
3428.91614 1.11814
3426.86781 1.11798
3424.81947 1.11746
3422.77113 1.11732
3420.72280 1.11772
3418.67446 1.11833
3416.62612 1.11899
3414.57778 1.11954
3412.52945 1.11987
3410.48111 1.12002
3408.43277 1.12014
3406.38444 1.12010
3404.33610 1.11995
3402.28776 1.12008
3400.23943 1.12027
3398.19109 1.12023
3396.14275 1.12039
3394.09441 1.12074
3392.04608 1.12066
3389.99774 1.11985
3387.94940 1.11890
3385.90107 1.11851
3383.85273 1.11824
3381.80439 1.11784
3379.75606 1.11788
3377.70772 1.11826
3375.65938 1.11830
3373.61104 1.11755
3371.56271 1.11677
3369.51437 1.11669
3367.46603 1.11675
3365.41770 1.11679
3363.36936 1.11702
3361.32102 1.11706
3359.27269 1.11682
3357.22435 1.11665
3355.17601 1.11651
3353.12767 1.11619
3351.07934 1.11575
3349.03100 1.11516
3346.98266 1.11434
3344.93433 1.11373
3342.88599 1.11351
3340.83765 1.11310
3338.78932 1.11241
3336.74098 1.11170
3334.69264 1.11087
3332.64430 1.11007
3330.59597 1.10975
3328.54763 1.10988
3326.49929 1.10980
3324.45096 1.10933
3322.40262 1.10896
3320.35428 1.10884
3318.30595 1.10887
3316.25761 1.10864
3314.20927 1.10836
3312.16093 1.10879
3310.11260 1.10977
3308.06426 1.11069
3306.01592 1.11123
3303.96759 1.11152
3301.91925 1.11187
3299.87091 1.11250
3297.82258 1.11349
3295.77424 1.11454
3293.72590 1.11516
3291.67756 1.11532
3289.62923 1.11536
3287.58089 1.11531
3285.53255 1.11515
3283.48422 1.11479
3281.43588 1.11422
3279.38754 1.11375
3277.33921 1.11356
3275.29087 1.11384
3273.24253 1.11450
3271.19419 1.11488
3269.14586 1.11500
3267.09752 1.11510
3265.04918 1.11486
3263.00085 1.11478
3260.95251 1.11568
3258.90417 1.11735
3256.85584 1.11904
3254.80750 1.12007
3252.75916 1.12048
3250.71082 1.12071
3248.66249 1.12103
3246.61415 1.12125
3244.56581 1.12097
3242.51748 1.12033
3240.46914 1.11961
3238.42080 1.11858
3236.37247 1.11727
3234.32413 1.11576
3232.27579 1.11397
3230.22745 1.11229
3228.17912 1.11100
3226.13078 1.10962
3224.08244 1.10801
3222.03411 1.10682
3219.98577 1.10631
3217.93743 1.10573
3215.88910 1.10497
3213.84076 1.10452
3211.79242 1.10393
3209.74408 1.10305
3207.69575 1.10246
3205.64741 1.10201
3203.59907 1.10122
3201.55074 1.10040
3199.50240 1.09997
3197.45406 1.09989
3195.40573 1.09981
3193.35739 1.09948
3191.30905 1.09894
3189.26071 1.09838
3187.21238 1.09790
3185.16404 1.09688
3183.11570 1.09505
3181.06737 1.09308
3179.01903 1.09112
3176.97069 1.08866
3174.92236 1.08571
3172.87402 1.08278
3170.82568 1.08011
3168.77734 1.07770
3166.72901 1.07577
3164.68067 1.07447
3162.63233 1.07353
3160.58400 1.07249
3158.53566 1.07149
3156.48732 1.07106
3154.43899 1.07099
3152.39065 1.07064
3150.34231 1.07002
3148.29397 1.06979
3146.24564 1.07009
3144.19730 1.07051
3142.14896 1.07089
3140.10063 1.07117
3138.05229 1.07134
3136.00395 1.07146
3133.95562 1.07160
3131.90728 1.07165
3129.85894 1.07151
3127.81060 1.07143
3125.76227 1.07161
3123.71393 1.07206
3121.66559 1.07275
3119.61726 1.07353
3117.56892 1.07434
3115.52058 1.07507
3113.47225 1.07578
3111.42391 1.07674
3109.37557 1.07789
3107.32723 1.07894
3105.27890 1.08011
3103.23056 1.08146
3101.18222 1.08264
3099.13389 1.08362
3097.08555 1.08473
3095.03721 1.08608
3092.98888 1.08759
3090.94054 1.08918
3088.89220 1.09083
3086.84386 1.09262
3084.79553 1.09466
3082.74719 1.09709
3080.69885 1.09997
3078.65052 1.10321
3076.60218 1.10655
3074.55384 1.10970
3072.50551 1.11264
3070.45717 1.11581
3068.40883 1.11954
3066.36049 1.12370
3064.31216 1.12791
3062.26382 1.13222
3060.21548 1.13707
3058.16715 1.14255
3056.11881 1.14837
3054.07047 1.15470
3052.02214 1.16223
3049.97380 1.17103
3047.92546 1.18073
3045.87712 1.19189
3043.82879 1.20574
3041.78045 1.22338
3039.73211 1.24624
3037.68378 1.27675
3035.63544 1.31805
3033.58710 1.37218
3031.53877 1.43679
3029.49043 1.50188
3027.44209 1.55623
3025.39375 1.59575
3023.34542 1.62020
3021.29708 1.63200
3019.24874 1.63375
3017.20041 1.62605
3015.15207 1.61215
3013.10373 1.59744
3011.05540 1.58487
3009.00706 1.57513
3006.95872 1.56784
3004.91038 1.56215
3002.86205 1.55834
3000.81371 1.55712
2998.76537 1.55807
2996.71704 1.55948
2994.66870 1.55962
2992.62036 1.55861
2990.57203 1.55625
2988.52369 1.55114
2986.47535 1.54309
2984.42701 1.53388
2982.37868 1.52513
2980.33034 1.51660
2978.28200 1.50768
2976.23367 1.49840
2974.18533 1.48841
2972.13699 1.47775
2970.08866 1.46735
2968.04032 1.45790
2965.99198 1.45004
2963.94364 1.44418
2961.89531 1.44092
2959.84697 1.44200
2957.79863 1.44841
2955.75030 1.45869
2953.70196 1.46959
2951.65362 1.47810
2949.60529 1.48394
2947.55695 1.48835
2945.50861 1.49220
2943.46027 1.49695
2941.41194 1.50384
2939.36360 1.51165
2937.31526 1.51820
2935.26693 1.52339
2933.21859 1.52847
2931.17025 1.53406
2929.12192 1.53999
2927.07358 1.54579
2925.02524 1.55187
2922.97690 1.55923
2920.92857 1.56768
2918.88023 1.57670
2916.83189 1.58772
2914.78356 1.60269
2912.73522 1.62278
2910.68688 1.64797
2908.63855 1.67542
2906.59021 1.70242
2904.54187 1.72754
2902.49353 1.74774
2900.44520 1.76114
2898.39686 1.76811
2896.34852 1.76917
2894.30019 1.76664
2892.25185 1.76250
2890.20351 1.75513
2888.15517 1.74478
2886.10684 1.73449
2884.05850 1.72319
2882.01016 1.70924
2879.96183 1.69446
2877.91349 1.67891
2875.86515 1.66166
2873.81682 1.64352
2871.76848 1.62483
2869.72014 1.60529
2867.67180 1.58431
2865.62347 1.56051
2863.57513 1.53318
2861.52679 1.50259
2859.47846 1.46907
2857.43012 1.43389
2855.38178 1.39938
2853.33345 1.36676
2851.28511 1.33538
2849.23677 1.30477
2847.18843 1.27544
2845.14010 1.24815
2843.09176 1.22394
2841.04342 1.20311
2838.99509 1.18476
2836.94675 1.16848
2834.89841 1.15439
2832.85008 1.14211
2830.80174 1.13149
2828.75340 1.12298
2826.70506 1.11705
2824.65673 1.11399
2822.60839 1.11410
2820.56005 1.11675
2818.51172 1.11907
2816.46338 1.11735
2814.41504 1.11018
2812.36671 1.09922
2810.31837 1.08732
2808.27003 1.07641
2806.22169 1.06714
2804.17336 1.05964
2802.12502 1.05390
2800.07668 1.04962
2798.02835 1.04610
2795.98001 1.04298
2793.93167 1.04051
2791.88334 1.03875
2789.83500 1.03743
2787.78666 1.03615
2785.73832 1.03457
2783.68999 1.03288
2781.64165 1.03151
2779.59331 1.03057
2777.54498 1.03000
2775.49664 1.02956
2773.44830 1.02887
2771.39997 1.02806
2769.35163 1.02744
2767.30329 1.02691
2765.25495 1.02629
2763.20662 1.02558
2761.15828 1.02495
2759.10994 1.02452
2757.06161 1.02411
2755.01327 1.02385
2752.96493 1.02398
2750.91660 1.02415
2748.86826 1.02421
2746.81992 1.02440
2744.77158 1.02475
2742.72325 1.02525
2740.67491 1.02585
2738.62657 1.02638
2736.57824 1.02665
2734.52990 1.02698
2732.48156 1.02790
2730.43323 1.02934
2728.38489 1.03077
2726.33655 1.03199
2724.28821 1.03328
2722.23988 1.03494
2720.19154 1.03686
2718.14320 1.03873
2716.09487 1.04039
2714.04653 1.04193
2711.99819 1.04363
2709.94986 1.04585
2707.90152 1.04886
2705.85318 1.05231
2703.80484 1.05570
2701.75651 1.05897
2699.70817 1.06218
2697.65983 1.06554
2695.61150 1.06910
2693.56316 1.07264
2691.51482 1.07621
2689.46649 1.07991
2687.41815 1.08362
2685.36981 1.08747
2683.32147 1.09178
2681.27314 1.09679
2679.22480 1.10279
2677.17646 1.11020
2675.12813 1.11977
2673.07979 1.13235
2671.03145 1.14817
2668.98312 1.16690
2666.93478 1.18804
2664.88644 1.21097
2662.83810 1.23519
2660.78977 1.26000
2658.74143 1.28442
2656.69309 1.30823
2654.64476 1.33196
2652.59642 1.35569
2650.54808 1.37916
2648.49975 1.40256
2646.45141 1.42637
2644.40307 1.45096
2642.35473 1.47651
2640.30640 1.50325
2638.25806 1.53141
2636.20972 1.55994
2634.16139 1.58683
2632.11305 1.61094
2630.06471 1.63120
2628.01638 1.64375
2625.96804 1.64302
2623.91970 1.62825
2621.87136 1.60446
2619.82303 1.57704
2617.77469 1.54934
2615.72635 1.52268
2613.67802 1.49776
2611.62968 1.47540
2609.58134 1.45628
2607.53301 1.44118
2605.48467 1.43057
2603.43633 1.42495
2601.38799 1.42618
2599.33966 1.43772
2597.29132 1.46172
2595.24298 1.49594
2593.19465 1.53493
2591.14631 1.57267
2589.09797 1.60410
2587.04964 1.62785
2585.00130 1.64611
2582.95296 1.66046
2580.90462 1.67204
2578.85629 1.68259
2576.80795 1.69234
2574.75961 1.70079
2572.71128 1.70707
2570.66294 1.71071
2568.61460 1.71489
2566.56627 1.72478
2564.51793 1.74333
2562.46959 1.76998
2560.42125 1.80221
2558.37292 1.83738
2556.32458 1.87261
2554.27624 1.90439
2552.22791 1.92890
2550.17957 1.94424
2548.13123 1.95419
2546.08290 1.96422
2544.03456 1.97518
2541.98622 1.98521
2539.93788 1.99414
2537.88955 2.00331
2535.84121 2.01109
2533.79287 2.01603
2531.74454 2.02067
2529.69620 2.02609
2527.64786 2.03065
2525.59953 2.03297
2523.55119 2.03169
2521.50285 2.02378
2519.45451 2.00373
2517.40618 1.96728
2515.35784 1.91590
2513.30950 1.85443
2511.26117 1.79025
2509.21283 1.73053
2507.16449 1.67698
2505.11616 1.62879
2503.06782 1.58494
2501.01948 1.54427
2498.97114 1.50634
2496.92281 1.47035
2494.87447 1.43556
2492.82613 1.40249
2490.77780 1.37201
2488.72946 1.34448
2486.68112 1.31966
2484.63279 1.29734
2482.58445 1.27732
2480.53611 1.25904
2478.48777 1.24222
2476.43944 1.22685
2474.39110 1.21267
2472.34276 1.19989
2470.29443 1.18871
2468.24609 1.17877
2466.19775 1.16955
2464.14942 1.16069
2462.10108 1.15211
2460.05274 1.14408
2458.00440 1.13663
2455.95607 1.12945
2453.90773 1.12262
2451.85939 1.11638
2449.81106 1.11030
2447.76272 1.10405
2445.71438 1.09829
2443.66605 1.09360
2441.61771 1.08969
2439.56937 1.08626
2437.52103 1.08320
2435.47270 1.08031
2433.42436 1.07760
2431.37602 1.07509
2429.32769 1.07289
2427.27935 1.07120
2425.23101 1.06990
2423.18268 1.06875
2421.13434 1.06767
2419.08600 1.06674
2417.03766 1.06616
2414.98933 1.06584
2412.94099 1.06545
2410.89265 1.06457
2408.84432 1.06269
2406.79598 1.05979
2404.74764 1.05649
2402.69931 1.05334
2400.65097 1.05031
2398.60263 1.04722
2396.55429 1.04433
2394.50596 1.04202
2392.45762 1.04026
2390.40928 1.03881
2388.36095 1.03772
2386.31261 1.03728
2384.26427 1.03774
2382.21594 1.03933
2380.16760 1.04234
2378.11926 1.04713
2376.07092 1.05333
2374.02259 1.05970
2371.97425 1.06537
2369.92591 1.07021
2367.87758 1.07379
2365.82924 1.07641
2363.78090 1.07960
2361.73257 1.08323
2359.68423 1.08460
2357.63589 1.08222
2355.58755 1.07918
2353.53922 1.07701
2351.49088 1.07417
2349.44254 1.07104
2347.39421 1.06970
2345.34587 1.07289
2343.29753 1.08128
2341.24920 1.08851
2339.20086 1.09094
2337.15252 1.09136
2335.10418 1.09149
2333.05585 1.09074
2331.00751 1.08940
2328.95917 1.08817
2326.91084 1.08679
2324.86250 1.08532
2322.81416 1.08414
2320.76582 1.08204
2318.71749 1.07824
2316.66915 1.07377
2314.62081 1.06953
2312.57248 1.06588
2310.52414 1.06205
2308.47580 1.05689
2306.42747 1.05053
2304.37913 1.04349
2302.33079 1.03604
2300.28245 1.02875
2298.23412 1.02266
2296.18578 1.01857
2294.13744 1.01644
2292.08911 1.01592
2290.04077 1.01681
2287.99243 1.01853
2285.94410 1.02057
2283.89576 1.02307
2281.84742 1.02620
2279.79908 1.02998
2277.75075 1.03433
2275.70241 1.03878
2273.65407 1.04326
2271.60574 1.04826
2269.55740 1.05362
2267.50906 1.05878
2265.46073 1.06377
2263.41239 1.06877
2261.36405 1.07358
2259.31571 1.07812
2257.26738 1.08205
2255.21904 1.08466
2253.17070 1.08605
2251.12237 1.08609
2249.07403 1.08429
2247.02569 1.08104
2244.97736 1.07665
2242.92902 1.07106
2240.88068 1.06487
2238.83234 1.05893
2236.78401 1.05355
2234.73567 1.04875
2232.68733 1.04473
2230.63900 1.04190
2228.59066 1.04075
2226.54232 1.04150
2224.49399 1.04396
2222.44565 1.04799
2220.39731 1.05369
2218.34897 1.06079
2216.30064 1.06829
2214.25230 1.07483
2212.20396 1.08009
2210.15563 1.08439
2208.10729 1.08789
2206.05895 1.09086
2204.01062 1.09351
2201.96228 1.09620
2199.91394 1.09978
2197.86560 1.10449
2195.81727 1.10984
2193.76893 1.11529
2191.72059 1.12057
2189.67226 1.12600
2187.62392 1.13223
2185.57558 1.13925
2183.52725 1.14657
2181.47891 1.15405
2179.43057 1.16200
2177.38223 1.17046
2175.33390 1.17903
2173.28556 1.18730
2171.23722 1.19478
2169.18889 1.20037
2167.14055 1.20346
2165.09221 1.20461
2163.04388 1.20463
2160.99554 1.20402
2158.94720 1.20301
2156.89886 1.20133
2154.85053 1.19851
2152.80219 1.19460
2150.75385 1.18956
2148.70552 1.18241
2146.65718 1.17241
2144.60884 1.15980
2142.56051 1.14516
2140.51217 1.12936
2138.46383 1.11373
2136.41549 1.09933
2134.36716 1.08672
2132.31882 1.07606
2130.27048 1.06702
2128.22215 1.05922
2126.17381 1.05252
2124.12547 1.04682
2122.07714 1.04206
2120.02880 1.03800
2117.98046 1.03451
2115.93212 1.03178
2113.88379 1.02963
2111.83545 1.02767
2109.78711 1.02583
2107.73878 1.02424
2105.69044 1.02270
2103.64210 1.02111
2101.59377 1.01972
2099.54543 1.01883
2097.49709 1.01858
2095.44875 1.01865
2093.40042 1.01843
2091.35208 1.01792
2089.30374 1.01760
2087.25541 1.01758
2085.20707 1.01761
2083.15873 1.01758
2081.11040 1.01761
2079.06206 1.01762
2077.01372 1.01730
2074.96538 1.01672
2072.91705 1.01619
2070.86871 1.01596
2068.82037 1.01589
2066.77204 1.01582
2064.72370 1.01577
2062.67536 1.01582
2060.62703 1.01589
2058.57869 1.01580
2056.53035 1.01549
2054.48201 1.01515
2052.43368 1.01494
2050.38534 1.01490
2048.33700 1.01513
2046.28867 1.01578
2044.24033 1.01698
2042.19199 1.01846
2040.14366 1.01958
2038.09532 1.02008
2036.04698 1.02028
2033.99864 1.02046
2031.95031 1.02063
2029.90197 1.02082
2027.85363 1.02116
2025.80530 1.02157
2023.75696 1.02191
2021.70862 1.02238
2019.66029 1.02311
2017.61195 1.02441
2015.56361 1.02598
2013.51527 1.02687
2011.46694 1.02726
2009.41860 1.02792
2007.37026 1.02895
2005.32193 1.02984
2003.27359 1.03058
2001.22525 1.03157
1999.17692 1.03295
1997.12858 1.03470
1995.08024 1.03690
1993.03190 1.04009
1990.98357 1.04432
1988.93523 1.04882
1986.88689 1.05421
1984.83856 1.06150
1982.79022 1.07140
1980.74188 1.08486
1978.69355 1.10166
1976.64521 1.11832
1974.59687 1.12744
1972.54853 1.12398
1970.50020 1.11148
1968.45186 1.09779
1966.40352 1.08749
1964.35519 1.08125
1962.30685 1.07800
1960.25851 1.07684
1958.21018 1.07684
1956.16184 1.07751
1954.11350 1.07907
1952.06516 1.08101
1950.01683 1.08287
1947.96849 1.08471
1945.92015 1.08670
1943.87182 1.08937
1941.82348 1.09321
1939.77514 1.09679
1937.72681 1.09988
1935.67847 1.10342
1933.63013 1.10735
1931.58179 1.11194
1929.53346 1.11692
1927.48512 1.12162
1925.43678 1.12620
1923.38845 1.13173
1921.34011 1.13689
1919.29177 1.14147
1917.24344 1.14798
1915.19510 1.15455
1913.14676 1.15981
1911.09842 1.16574
1909.05009 1.17319
1907.00175 1.18066
1904.95341 1.18762
1902.90508 1.19491
1900.85674 1.20278
1898.80840 1.21066
1896.76007 1.21856
1894.71173 1.22680
1892.66339 1.23458
1890.61505 1.24263
1888.56672 1.25150
1886.51838 1.25884
1884.47004 1.26473
1882.42171 1.27043
1880.37337 1.27566
1878.32503 1.28086
1876.27670 1.28619
1874.22836 1.29172
1872.18002 1.29745
1870.13168 1.30516
1868.08335 1.31678
1866.03501 1.32788
1863.98667 1.33743
1861.93834 1.34831
1859.89000 1.36129
1857.84166 1.37555
1855.79333 1.39110
1853.74499 1.40838
1851.69665 1.42791
1849.64831 1.45001
1847.59998 1.47476
1845.55164 1.50537
1843.50330 1.54894
1841.45497 1.59328
1839.40663 1.63578
1837.35829 1.69147
1835.30996 1.76177
1833.26162 1.83711
1831.21328 1.92649
1829.16494 2.04808
1827.11661 2.15759
1825.06827 2.23724
1823.01993 2.29976
1820.97160 2.33190
1818.92326 2.34030
1816.87492 2.33740
1814.82659 2.33164
1812.77825 2.32276
1810.72991 2.29775
1808.68157 2.25257
1806.63324 2.20125
1804.58490 2.15230
1802.53656 2.10377
1800.48823 2.05352
1798.43989 2.01218
1796.39155 1.98276
1794.34322 1.95639
1792.29488 1.92403
1790.24654 1.89511
1788.19820 1.87824
1786.14987 1.86494
1784.10153 1.85233
1782.05319 1.84155
1780.00486 1.83144
1777.95652 1.82442
1775.90818 1.82162
1773.85985 1.81972
1771.81151 1.81338
1769.76317 1.80507
1767.71483 1.80055
1765.66650 1.79786
1763.61816 1.79612
1761.56982 1.79745
1759.52149 1.80129
1757.47315 1.80366
1755.42481 1.80442
1753.37648 1.80624
1751.32814 1.81299
1749.27980 1.82548
1747.23146 1.83594
1745.18313 1.84368
1743.13479 1.85164
1741.08645 1.85951
1739.03812 1.86617
1736.98978 1.87028
1734.94144 1.87385
1732.89310 1.87980
1730.84477 1.88545
1728.79643 1.89174
1726.74809 1.89818
1724.69976 1.90473
1722.65142 1.91228
1720.60308 1.91901
1718.55475 1.92663
1716.50641 1.93759
1714.45807 1.94401
1712.40973 1.94830
1710.36140 1.95490
1708.31306 1.96472
1706.26472 1.97886
1704.21639 1.99187
1702.16805 2.00017
1700.11971 2.01651
1698.07138 2.03893
1696.02304 2.04905
1693.97470 2.05489
1691.92636 2.06435
1689.87803 2.08054
1687.82969 2.10022
1685.78135 2.12392
1683.73302 2.15753
1681.68468 2.16970
1679.63634 2.17304
1677.58801 2.18276
1675.53967 2.20360
1673.49133 2.22906
1671.44299 2.24539
1669.39466 2.26118
1667.34632 2.27843
1665.29798 2.29272
1663.24965 2.31165
1661.20131 2.33399
1659.15297 2.34837
1657.10464 2.35714
1655.05630 2.36816
1653.00796 2.39059
1650.95962 2.40058
1648.91129 2.39764
1646.86295 2.39531
1644.81461 2.40553
1642.76628 2.41689
1640.71794 2.41907
1638.66960 2.41212
1636.62127 2.39183
1634.57293 2.35017
1632.52459 2.32555
1630.47625 2.30816
1628.42792 2.28257
1626.37958 2.25753
1624.33124 2.23914
1622.28291 2.21716
1620.23457 2.19774
1618.18623 2.17920
1616.13790 2.14961
1614.08956 2.12777
1612.04122 2.11425
1609.99288 2.09623
1607.94455 2.07252
1605.89621 2.04670
1603.84787 2.01453
1601.79954 1.97469
1599.75120 1.93378
1597.70286 1.89334
1595.65453 1.84791
1593.60619 1.79620
1591.55785 1.74190
1589.50951 1.68601
1587.46118 1.63071
1585.41284 1.57721
1583.36450 1.52517
1581.31617 1.47685
1579.26783 1.43636
1577.21949 1.38884
1575.17116 1.32777
1573.12282 1.29482
1571.07448 1.27868
1569.02614 1.26686
1566.97781 1.26354
1564.92947 1.26610
1562.88113 1.26962
1560.83280 1.27248
1558.78446 1.27761
1556.73612 1.28309
1554.68779 1.28514
1552.63945 1.28747
1550.59111 1.29123
1548.54277 1.29618
1546.49444 1.30138
1544.44610 1.30758
1542.39776 1.31482
1540.34943 1.32168
1538.30109 1.32620
1536.25275 1.32894
1534.20442 1.33442
1532.15608 1.34206
1530.10774 1.34737
1528.05940 1.35302
1526.01107 1.36066
1523.96273 1.36743
1521.91439 1.37401
1519.86606 1.37965
1517.81772 1.38400
1515.76938 1.39004
1513.72105 1.39569
1511.67271 1.40127
1509.62437 1.40764
1507.57603 1.41782
1505.52770 1.43132
1503.47936 1.43823
1501.43102 1.44450
1499.38269 1.45238
1497.33435 1.46178
1495.28601 1.46884
1493.23768 1.47294
1491.18934 1.47874
1489.14100 1.48770
1487.09266 1.49376
1485.04433 1.49783
1482.99599 1.50261
1480.94765 1.50847
1478.89932 1.51423
1476.85098 1.51962
1474.80264 1.52559
1472.75431 1.53199
1470.70597 1.53609
1468.65763 1.53846
1466.60929 1.54209
1464.56096 1.54844
1462.51262 1.55516
1460.46428 1.56067
1458.41595 1.56892
1456.36761 1.58282
1454.31927 1.58994
1452.27094 1.59412
1450.22260 1.59905
1448.17426 1.60453
1446.12592 1.60936
1444.07759 1.61286
1442.02925 1.61555
1439.98091 1.61801
1437.93258 1.62041
1435.88424 1.62206
1433.83590 1.62205
1431.78757 1.62153
1429.73923 1.62106
1427.69089 1.62126
1425.64255 1.62369
1423.59422 1.62988
1421.54588 1.64059
1419.49754 1.66260
1417.44921 1.69765
1415.40087 1.72583
1413.35253 1.74943
1411.30420 1.77113
1409.25586 1.78614
1407.20752 1.79542
1405.15918 1.80557
1403.11085 1.81636
1401.06251 1.82390
1399.01417 1.82861
1396.96584 1.83182
1394.91750 1.83541
1392.86916 1.83900
1390.82083 1.84226
1388.77249 1.84669
1386.72415 1.85137
1384.67581 1.85149
1382.62748 1.84808
1380.57914 1.84403
1378.53080 1.84209
1376.48247 1.84199
1374.43413 1.83980
1372.38579 1.83313
1370.33746 1.82492
1368.28912 1.81735
1366.24078 1.81090
1364.19244 1.80421
1362.14411 1.79561
1360.09577 1.78810
1358.04743 1.78316
1355.99910 1.77913
1353.95076 1.77562
1351.90242 1.77415
1349.85409 1.77473
1347.80575 1.77593
1345.75741 1.77720
1343.70907 1.77856
1341.66074 1.77952
1339.61240 1.77721
1337.56406 1.77060
1335.51573 1.76406
1333.46739 1.75876
1331.41905 1.75277
1329.37072 1.74510
1327.32238 1.73668
1325.27404 1.72870
1323.22570 1.72236
1321.17737 1.71803
1319.12903 1.71360
1317.08069 1.70731
1315.03236 1.70076
1312.98402 1.69604
1310.93568 1.69464
1308.88735 1.69676
1306.83901 1.70074
1304.79067 1.70387
1302.74233 1.70408
1300.69400 1.70165
1298.64566 1.69842
1296.59732 1.69510
1294.54899 1.69134
1292.50065 1.68639
1290.45231 1.67974
1288.40398 1.67168
1286.35564 1.66309
1284.30730 1.65468
1282.25896 1.64589
1280.21063 1.63618
1278.16229 1.62614
1276.11395 1.61723
1274.06562 1.61143
1272.01728 1.61025
1269.96894 1.61318
1267.92061 1.61802
1265.87227 1.62279
1263.82393 1.62619
1261.77559 1.62722
1259.72726 1.62528
1257.67892 1.62222
1255.63058 1.62066
1253.58225 1.62030
1251.53391 1.61933
1249.48557 1.61813
1247.43724 1.61828
1245.38890 1.61966
1243.34056 1.62069
1241.29222 1.62101
1239.24389 1.62203
1237.19555 1.62559
1235.14721 1.63187
1233.09888 1.63883
1231.05054 1.64350
1229.00220 1.64220
1226.95387 1.63274
1224.90553 1.61655
1222.85719 1.59656
1220.80885 1.57584
1218.76052 1.55799
1216.71218 1.54513
1214.66384 1.53700
1212.61551 1.53251
1210.56717 1.52985
1208.51883 1.52780
1206.47050 1.52644
1204.42216 1.52660
1202.37382 1.53025
1200.32548 1.53959
1198.27715 1.55364
1196.22881 1.56893
1194.18047 1.58188
1192.13214 1.58942
1190.08380 1.59122
1188.03546 1.58908
1185.98713 1.58415
1183.93879 1.57604
1181.89045 1.56405
1179.84211 1.54850
1177.79378 1.53138
1175.74544 1.51591
1173.69710 1.50419
1171.64877 1.49565
1169.60043 1.48801
1167.55209 1.47979
1165.50376 1.47128
1163.45542 1.46302
1161.40708 1.45572
1159.35874 1.45069
1157.31041 1.44868
1155.26207 1.44901
1153.21373 1.45015
1151.16540 1.45116
1149.11706 1.45216
1147.06872 1.45297
1145.02038 1.45173
1142.97205 1.44561
1140.92371 1.43453
1138.87537 1.42300
1136.82704 1.41595
1134.77870 1.41408
1132.73036 1.41498
1130.68203 1.41672
1128.63369 1.41845
1126.58535 1.41945
1124.53701 1.41919
1122.48868 1.41767
1120.44034 1.41528
1118.39200 1.41268
1116.34367 1.41004
1114.29533 1.40768
1112.24699 1.40686
1110.19866 1.40909
1108.15032 1.41596
1106.10198 1.43005
1104.05364 1.45548
1102.00531 1.49272
1099.95697 1.52442
1097.90863 1.52292
1095.86030 1.49161
1093.81196 1.45976
1091.76362 1.44340
1089.71529 1.43926
1087.66695 1.43539
1085.61861 1.42498
1083.57027 1.41221
1081.52194 1.40329
1079.47360 1.39945
1077.42526 1.39811
1075.37693 1.39694
1073.32859 1.39583
1071.28025 1.39467
1069.23192 1.39121
1067.18358 1.38401
1065.13524 1.37483
1063.08690 1.36574
1061.03857 1.35784
1058.99023 1.35155
1056.94189 1.34615
1054.89356 1.34110
1052.84522 1.33789
1050.79688 1.33933
1048.74855 1.34644
1046.70021 1.35720
1044.65187 1.36845
1042.60353 1.37802
1040.55520 1.38501
1038.50686 1.38942
1036.45852 1.39172
1034.41019 1.39198
1032.36185 1.39033
1030.31351 1.38773
1028.26518 1.38512
1026.21684 1.38229
1024.16850 1.37744
1022.12016 1.36886
1020.07183 1.35793
1018.02349 1.34847
1015.97515 1.34267
1013.92682 1.33890
1011.87848 1.33418
1009.83014 1.32823
1007.78181 1.32257
1005.73347 1.31678
1003.68513 1.31060
1001.63679 1.30576
999.58846 1.30317
997.54012 1.30279
995.49178 1.30396
993.44345 1.30474
991.39511 1.30353
989.34677 1.30030
987.29844 1.29642
985.25010 1.29317
983.20176 1.29138
981.15342 1.29178
979.10509 1.29300
977.05675 1.29207
975.00841 1.28842
972.96008 1.28385
970.91174 1.27966
968.86340 1.27614
966.81507 1.27323
964.76673 1.27135
962.71839 1.27101
960.67005 1.27189
958.62172 1.27338
956.57338 1.27488
954.52504 1.27605
952.47671 1.27798
950.42837 1.28165
948.38003 1.28563
946.33170 1.28736
944.28336 1.28671
942.23502 1.28512
940.18668 1.28339
938.13835 1.28270
936.09001 1.28454
934.04167 1.28884
931.99334 1.29368
929.94500 1.29760
927.89666 1.30073
925.84833 1.30296
923.79999 1.30336
921.75165 1.30246
919.70331 1.30307
917.65498 1.30685
915.60664 1.31199
913.55830 1.31584
911.50997 1.31825
909.46163 1.32085
907.41329 1.32418
905.36496 1.32642
903.31662 1.32238
901.26828 1.30703
899.21994 1.28748
897.17161 1.28648
895.12327 1.32307
893.07493 1.39545
891.02660 1.48750
888.97826 1.58268
886.92992 1.67055
884.88159 1.75038
882.83325 1.82428
880.78491 1.88655
878.73657 1.93071
876.68824 1.95227
874.63990 1.94056
872.59156 1.89694
870.54323 1.83831
868.49489 1.77251
866.44655 1.69738
864.39822 1.61809
862.34988 1.54687
860.30154 1.49589
858.25320 1.47984
856.20487 1.52049
854.15653 1.60486
852.10819 1.62468
850.05986 1.52853
848.01152 1.41271
845.96318 1.32976
843.91485 1.28208
841.86651 1.25875
839.81817 1.24797
837.76983 1.24259
835.72150 1.23986
833.67316 1.23816
831.62482 1.23616
829.57649 1.23445
827.52815 1.23402
825.47981 1.23519
823.43148 1.23639
821.38314 1.23586
819.33480 1.23502
817.28646 1.23565
815.23813 1.23731
813.18979 1.23983
811.14145 1.24254
809.09312 1.24431
807.04478 1.24648
804.99644 1.24964
802.94811 1.25168
800.89977 1.25209
798.85143 1.25320
796.80309 1.25599
794.75476 1.25874
792.70642 1.25960
790.65808 1.25849
788.60975 1.25654
786.56141 1.25465
784.51307 1.25282
782.46474 1.25038
780.41640 1.24641
778.36806 1.24115
776.31972 1.23743
774.27139 1.23809
772.22305 1.24330
770.17471 1.25247
768.12638 1.26470
766.07804 1.27834
764.02970 1.29301
761.98137 1.30853
759.93303 1.32459
757.88469 1.34241
755.83635 1.36449
753.78802 1.39397
751.73968 1.43307
749.69134 1.48079
747.64301 1.53391
745.59467 1.59164
743.54633 1.65888
741.49800 1.74803
739.44966 1.87159
737.40132 2.03395
735.35298 2.22738
733.30465 2.39272
731.25631 2.41678
729.20797 2.33077
727.15964 2.23972
725.11130 2.15209
723.06296 2.05466
721.01463 1.95252
718.96629 1.85704
716.91795 1.78053
714.86961 1.72414
712.82128 1.67987
710.77294 1.64214
708.72460 1.61331
706.67627 1.59164
704.62793 1.56872
702.57959 1.54404
700.53126 1.52504
698.48292 1.51491
696.43458 1.51109
694.38624 1.51093
692.33791 1.51227
690.28957 1.51176
688.24123 1.50875
686.19290 1.50726
684.14456 1.50958
682.09622 1.51327
680.04789 1.51699
677.99955 1.52276
675.95121 1.53221
673.90287 1.54614
671.85454 1.56046
669.80620 1.57443
667.75786 1.59071
665.70953 1.59889
663.66119 1.60482
661.61285 1.61429
659.56452 1.62755
657.51618 1.64036
655.46784 1.64573
653.41950 1.64465
651.37117 1.64560
649.32283 1.65672
647.27449 1.67009
645.22616 1.67287
643.17782 1.66466
641.12948 1.64692
639.08115 1.63042
637.03281 1.62545
634.98447 1.62237
632.93613 1.61170
630.88780 1.60413
628.83946 1.60004
626.79112 1.58769
624.74279 1.58663
622.69445 1.60320
620.64611 1.61058
618.59778 1.61520
616.54944 1.63384
614.50110 1.64833
612.45276 1.64643
610.40443 1.66781
608.35609 1.72463
606.30775 1.75920
604.25942 1.77036
602.21108 1.79331
600.16274 1.80661
598.11441 1.81211
