3996.50324 -0.31955
3994.45480 -0.31872
3992.40636 -0.31812
3990.35792 -0.31791
3988.30948 -0.31834
3986.26104 -0.31929
3984.21261 -0.32068
3982.16417 -0.32169
3980.11573 -0.32085
3978.06729 -0.31870
3976.01885 -0.31774
3973.97041 -0.31846
3971.92198 -0.31889
3969.87354 -0.31881
3967.82510 -0.31891
3965.77666 -0.31868
3963.72822 -0.31853
3961.67978 -0.31872
3959.63135 -0.31790
3957.58291 -0.31729
3955.53447 -0.31831
3953.48603 -0.31893
3951.43759 -0.31902
3949.38915 -0.31982
3947.34072 -0.32001
3945.29228 -0.31847
3943.24384 -0.31682
3941.19540 -0.31666
3939.14696 -0.31717
3937.09852 -0.31745
3935.05009 -0.31713
3933.00165 -0.31710
3930.95321 -0.31768
3928.90477 -0.31704
3926.85633 -0.31512
3924.80789 -0.31435
3922.75946 -0.31529
3920.71102 -0.31480
3918.66258 -0.31322
3916.61414 -0.31360
3914.56570 -0.31482
3912.51726 -0.31412
3910.46883 -0.31237
3908.42039 -0.31007
3906.37195 -0.30657
3904.32351 -0.30498
3902.27507 -0.30768
3900.22663 -0.31087
3898.17820 -0.31319
3896.12976 -0.31280
3894.08132 -0.30972
3892.03288 -0.30947
3889.98444 -0.31326
3887.93600 -0.31344
3885.88756 -0.31175
3883.83913 -0.31144
3881.79069 -0.31105
3879.74225 -0.31285
3877.69381 -0.31337
3875.64537 -0.31135
3873.59693 -0.31190
3871.54850 -0.31441
3869.50006 -0.31603
3867.45162 -0.31562
3865.40318 -0.31447
3863.35474 -0.31519
3861.30630 -0.31466
3859.25787 -0.31215
3857.20943 -0.30936
3855.16099 -0.30783
3853.11255 -0.31542
3851.06411 -0.32254
3849.01567 -0.32052
3846.96724 -0.31715
3844.91880 -0.31521
3842.87036 -0.31544
3840.82192 -0.31750
3838.77348 -0.32113
3836.72504 -0.32459
3834.67661 -0.32477
3832.62817 -0.32418
3830.57973 -0.32366
3828.53129 -0.32202
3826.48285 -0.32085
3824.43441 -0.31931
3822.38598 -0.31756
3820.33754 -0.32221
3818.28910 -0.32564
3816.24066 -0.32627
3814.19222 -0.32866
3812.14378 -0.32770
3810.09535 -0.32427
3808.04691 -0.32341
3805.99847 -0.32673
3803.95003 -0.32668
3801.90159 -0.32599
3799.85315 -0.32936
3797.80472 -0.33048
3795.75628 -0.33163
3793.70784 -0.33280
3791.65940 -0.33228
3789.61096 -0.33146
3787.56252 -0.33125
3785.51409 -0.33211
3783.46565 -0.33291
3781.41721 -0.33257
3779.36877 -0.33436
3777.32033 -0.33703
3775.27189 -0.33633
3773.22346 -0.33453
3771.17502 -0.33446
3769.12658 -0.33716
3767.07814 -0.33999
3765.02970 -0.34172
3762.98126 -0.34202
3760.93283 -0.34122
3758.88439 -0.34199
3756.83595 -0.34237
3754.78751 -0.33979
3752.73907 -0.33716
3750.69063 -0.34127
3748.64219 -0.34759
3746.59376 -0.34803
3744.54532 -0.34829
3742.49688 -0.34959
3740.44844 -0.34884
3738.40000 -0.34746
3736.35156 -0.34760
3734.30313 -0.35083
3732.25469 -0.35512
3730.20625 -0.35645
3728.15781 -0.35526
3726.10937 -0.35513
3724.06093 -0.35758
3722.01250 -0.35923
3719.96406 -0.35907
3717.91562 -0.35834
3715.86718 -0.35737
3713.81874 -0.35611
3711.77030 -0.35786
3709.72187 -0.36503
3707.67343 -0.36856
3705.62499 -0.36760
3703.57655 -0.36587
3701.52811 -0.36650
3699.47967 -0.36823
3697.43124 -0.36925
3695.38280 -0.37060
3693.33436 -0.37104
3691.28592 -0.37019
3689.23748 -0.37268
3687.18904 -0.37724
3685.14061 -0.37809
3683.09217 -0.37737
3681.04373 -0.37669
3678.99529 -0.37585
3676.94685 -0.37652
3674.89841 -0.38254
3672.84998 -0.38650
3670.80154 -0.38909
3668.75310 -0.39454
3666.70466 -0.39592
3664.65622 -0.39549
3662.60778 -0.39678
3660.55935 -0.39850
3658.51091 -0.39978
3656.46247 -0.40257
3654.41403 -0.40518
3652.36559 -0.40439
3650.31715 -0.40438
3648.26872 -0.41336
3646.22028 -0.41963
3644.17184 -0.42078
3642.12340 -0.42281
3640.07496 -0.42591
3638.02652 -0.42730
3635.97809 -0.42796
3633.92965 -0.43007
3631.88121 -0.43109
3629.83277 -0.43191
3627.78433 -0.43878
3625.73589 -0.44334
3623.68746 -0.44342
3621.63902 -0.44250
3619.59058 -0.44368
3617.54214 -0.44772
3615.49370 -0.45218
3613.44526 -0.45771
3611.39682 -0.46191
3609.34839 -0.46375
3607.29995 -0.46618
3605.25151 -0.46851
3603.20307 -0.47027
3601.15463 -0.47284
3599.10619 -0.47551
3597.05776 -0.47746
3595.00932 -0.47959
3592.96088 -0.48150
3590.91244 -0.48276
3588.86400 -0.48456
3586.81556 -0.48750
3584.76713 -0.49077
3582.71869 -0.49447
3580.67025 -0.49889
3578.62181 -0.50378
3576.57337 -0.50796
3574.52493 -0.50970
3572.47650 -0.50917
3570.42806 -0.50889
3568.37962 -0.51135
3566.33118 -0.51751
3564.28274 -0.52154
3562.23430 -0.52236
3560.18587 -0.52284
3558.13743 -0.52460
3556.08899 -0.52753
3554.04055 -0.52997
3551.99211 -0.53122
3549.94367 -0.53161
3547.89524 -0.53191
3545.84680 -0.53405
3543.79836 -0.53870
3541.74992 -0.54146
3539.70148 -0.54077
3537.65304 -0.53982
3535.60461 -0.54075
3533.55617 -0.54308
3531.50773 -0.54535
3529.45929 -0.54663
3527.41085 -0.54822
3525.36241 -0.55029
3523.31398 -0.55075
3521.26554 -0.55247
3519.21710 -0.55736
3517.16866 -0.56105
3515.12022 -0.56174
3513.07178 -0.56241
3511.02335 -0.56381
3508.97491 -0.56508
3506.92647 -0.56709
3504.87803 -0.56965
3502.82959 -0.57200
3500.78115 -0.57330
3498.73272 -0.57279
3496.68428 -0.57092
3494.63584 -0.56895
3492.58740 -0.56820
3490.53896 -0.56842
3488.49052 -0.56971
3486.44209 -0.57239
3484.39365 -0.57380
3482.34521 -0.57346
3480.29677 -0.57376
3478.24833 -0.57466
3476.19989 -0.57669
3474.15146 -0.58119
3472.10302 -0.58524
3470.05458 -0.58543
3468.00614 -0.58254
3465.95770 -0.57897
3463.90926 -0.57844
3461.86082 -0.58221
3459.81239 -0.58418
3457.76395 -0.58272
3455.71551 -0.58278
3453.66707 -0.58388
3451.61863 -0.58471
3449.57019 -0.58604
3447.52176 -0.58768
3445.47332 -0.58871
3443.42488 -0.58809
3441.37644 -0.58733
3439.32800 -0.58706
3437.27956 -0.58678
3435.23113 -0.58794
3433.18269 -0.59099
3431.13425 -0.59327
3429.08581 -0.59377
3427.03737 -0.59395
3424.98893 -0.59428
3422.94050 -0.59443
3420.89206 -0.59373
3418.84362 -0.59349
3416.79518 -0.59452
3414.74674 -0.59555
3412.69830 -0.59686
3410.64987 -0.59864
3408.60143 -0.59895
3406.55299 -0.59695
3404.50455 -0.59528
3402.45611 -0.59548
3400.40767 -0.59580
3398.35924 -0.59603
3396.31080 -0.59863
3394.26236 -0.60275
3392.21392 -0.60531
3390.16548 -0.60644
3388.11704 -0.60637
3386.06861 -0.60513
3384.02017 -0.60536
3381.97173 -0.60631
3379.92329 -0.60500
3377.87485 -0.60294
3375.82641 -0.60246
3373.77798 -0.60384
3371.72954 -0.60629
3369.68110 -0.60750
3367.63266 -0.60739
3365.58422 -0.60856
3363.53578 -0.60976
3361.48735 -0.60967
3359.43891 -0.60977
3357.39047 -0.60957
3355.34203 -0.60854
3353.29359 -0.60852
3351.24515 -0.60980
3349.19672 -0.60968
3347.14828 -0.60939
3345.09984 -0.61069
3343.05140 -0.61124
3341.00296 -0.61190
3338.95452 -0.61367
3336.90609 -0.61422
3334.85765 -0.61308
3332.80921 -0.61148
3330.76077 -0.61104
3328.71233 -0.61314
3326.66389 -0.61662
3324.61545 -0.61851
3322.56702 -0.61851
3320.51858 -0.61821
3318.47014 -0.61721
3316.42170 -0.61644
3314.37326 -0.61853
3312.32482 -0.62133
3310.27639 -0.62115
3308.22795 -0.61962
3306.17951 -0.61882
3304.13107 -0.61766
3302.08263 -0.61657
3300.03419 -0.61874
3297.98576 -0.62360
3295.93732 -0.62534
3293.88888 -0.62281
3291.84044 -0.62165
3289.79200 -0.62300
3287.74356 -0.62352
3285.69513 -0.62378
3283.64669 -0.62363
3281.59825 -0.62213
3279.54981 -0.62239
3277.50137 -0.62411
3275.45293 -0.62412
3273.40450 -0.62404
3271.35606 -0.62585
3269.30762 -0.62734
3267.25918 -0.62670
3265.21074 -0.62563
3263.16230 -0.62566
3261.11387 -0.62566
3259.06543 -0.62508
3257.01699 -0.62460
3254.96855 -0.62533
3252.92011 -0.62775
3250.87167 -0.62942
3248.82324 -0.62925
3246.77480 -0.62875
3244.72636 -0.62828
3242.67792 -0.62774
3240.62948 -0.62698
3238.58104 -0.62631
3236.53261 -0.62677
3234.48417 -0.62782
3232.43573 -0.62823
3230.38729 -0.62839
3228.33885 -0.62824
3226.29041 -0.62758
3224.24198 -0.62709
3222.19354 -0.62724
3220.14510 -0.62810
3218.09666 -0.62792
3216.04822 -0.62621
3213.99978 -0.62608
3211.95135 -0.62881
3209.90291 -0.63140
3207.85447 -0.63131
3205.80603 -0.62954
3203.75759 -0.62838
3201.70915 -0.62847
3199.66072 -0.62897
3197.61228 -0.62905
3195.56384 -0.62787
3193.51540 -0.62607
3191.46696 -0.62630
3189.41852 -0.62856
3187.37008 -0.63005
3185.32165 -0.63059
3183.27321 -0.63127
3181.22477 -0.63130
3179.17633 -0.62995
3177.12789 -0.62850
3175.07945 -0.62863
3173.03102 -0.62981
3170.98258 -0.63095
3168.93414 -0.63133
3166.88570 -0.63040
3164.83726 -0.62901
3162.78882 -0.62728
3160.74039 -0.62532
3158.69195 -0.62541
3156.64351 -0.62741
3154.59507 -0.62872
3152.54663 -0.62796
3150.49819 -0.62572
3148.44976 -0.62470
3146.40132 -0.62588
3144.35288 -0.62701
3142.30444 -0.62677
3140.25600 -0.62656
3138.20756 -0.62643
3136.15913 -0.62545
3134.11069 -0.62456
3132.06225 -0.62478
3130.01381 -0.62565
3127.96537 -0.62551
3125.91693 -0.62477
3123.86850 -0.62440
3121.82006 -0.62406
3119.77162 -0.62357
3117.72318 -0.62267
3115.67474 -0.62195
3113.62630 -0.62196
3111.57787 -0.62245
3109.52943 -0.62306
3107.48099 -0.62266
3105.43255 -0.62086
3103.38411 -0.62004
3101.33567 -0.62133
3099.28724 -0.62260
3097.23880 -0.62238
3095.19036 -0.62204
3093.14192 -0.62214
3091.09348 -0.62127
3089.04504 -0.62037
3086.99661 -0.62059
3084.94817 -0.62082
3082.89973 -0.61976
3080.85129 -0.61870
3078.80285 -0.61926
3076.75441 -0.61976
3074.70598 -0.61870
3072.65754 -0.61702
3070.60910 -0.61666
3068.56066 -0.61770
3066.51222 -0.61784
3064.46378 -0.61620
3062.41535 -0.61463
3060.36691 -0.61407
3058.31847 -0.61369
3056.27003 -0.61278
3054.22159 -0.61139
3052.17315 -0.61090
3050.12471 -0.61180
3048.07628 -0.61250
3046.02784 -0.61182
3043.97940 -0.61034
3041.93096 -0.60955
3039.88252 -0.60942
3037.83408 -0.60836
3035.78565 -0.60699
3033.73721 -0.60663
3031.68877 -0.60656
3029.64033 -0.60657
3027.59189 -0.60745
3025.54345 -0.60826
3023.49502 -0.60753
3021.44658 -0.60698
3019.39814 -0.60771
3017.34970 -0.60791
3015.30126 -0.60671
3013.25282 -0.60475
3011.20439 -0.60380
3009.15595 -0.60419
3007.10751 -0.60316
3005.05907 -0.60090
3003.01063 -0.60067
3000.96219 -0.60269
2998.91376 -0.60565
2996.86532 -0.60714
2994.81688 -0.60525
2992.76844 -0.60224
2990.72000 -0.60011
2988.67156 -0.59948
2986.62313 -0.60068
2984.57469 -0.60202
2982.52625 -0.60215
2980.47781 -0.60170
2978.42937 -0.60153
2976.38093 -0.60145
2974.33250 -0.60036
2972.28406 -0.59887
2970.23562 -0.59885
2968.18718 -0.60024
2966.13874 -0.60117
2964.09030 -0.60045
2962.04187 -0.59973
2959.99343 -0.60067
2957.94499 -0.60133
2955.89655 -0.60012
2953.84811 -0.59860
2951.79967 -0.59812
2949.75124 -0.59869
2947.70280 -0.59864
2945.65436 -0.59714
2943.60592 -0.59644
2941.55748 -0.59711
2939.50904 -0.59816
2937.46061 -0.59922
2935.41217 -0.59945
2933.36373 -0.59857
2931.31529 -0.59714
2929.26685 -0.59643
2927.21841 -0.59714
2925.16998 -0.59874
2923.12154 -0.59992
2921.07310 -0.59928
2919.02466 -0.59758
2916.97622 -0.59611
2914.92778 -0.59562
2912.87934 -0.59607
2910.83091 -0.59651
2908.78247 -0.59688
2906.73403 -0.59683
2904.68559 -0.59626
2902.63715 -0.59595
2900.58871 -0.59513
2898.54028 -0.59398
2896.49184 -0.59397
2894.44340 -0.59353
2892.39496 -0.59155
2890.34652 -0.59069
2888.29808 -0.59200
2886.24965 -0.59271
2884.20121 -0.59191
2882.15277 -0.59122
2880.10433 -0.59060
2878.05589 -0.58985
2876.00745 -0.58963
2873.95902 -0.58966
2871.91058 -0.58911
2869.86214 -0.58817
2867.81370 -0.58745
2865.76526 -0.58650
2863.71682 -0.58558
2861.66839 -0.58540
2859.61995 -0.58529
2857.57151 -0.58528
2855.52307 -0.58574
2853.47463 -0.58590
2851.42619 -0.58558
2849.37776 -0.58470
2847.32932 -0.58271
2845.28088 -0.58010
2843.23244 -0.57880
2841.18400 -0.57940
2839.13556 -0.57968
2837.08713 -0.57828
2835.03869 -0.57656
2832.99025 -0.57590
2830.94181 -0.57554
2828.89337 -0.57424
2826.84493 -0.57279
2824.79650 -0.57250
2822.74806 -0.57305
2820.69962 -0.57285
2818.65118 -0.57156
2816.60274 -0.57008
2814.55430 -0.56879
2812.50587 -0.56797
2810.45743 -0.56755
2808.40899 -0.56721
2806.36055 -0.56701
2804.31211 -0.56653
2802.26367 -0.56533
2800.21524 -0.56399
2798.16680 -0.56321
2796.11836 -0.56315
2794.06992 -0.56329
2792.02148 -0.56280
2789.97304 -0.56213
2787.92461 -0.56267
2785.87617 -0.56386
2783.82773 -0.56396
2781.77929 -0.56279
2779.73085 -0.56073
2777.68241 -0.55824
2775.63397 -0.55659
2773.58554 -0.55645
2771.53710 -0.55732
2769.48866 -0.55870
2767.44022 -0.55929
2765.39178 -0.55873
2763.34334 -0.55810
2761.29491 -0.55734
2759.24647 -0.55671
2757.19803 -0.55614
2755.14959 -0.55515
2753.10115 -0.55486
2751.05271 -0.55527
2749.00428 -0.55531
2746.95584 -0.55545
2744.90740 -0.55605
2742.85896 -0.55615
2740.81052 -0.55578
2738.76208 -0.55558
2736.71365 -0.55520
2734.66521 -0.55429
2732.61677 -0.55344
2730.56833 -0.55326
2728.51989 -0.55317
2726.47145 -0.55328
2724.42302 -0.55349
2722.37458 -0.55314
2720.32614 -0.55308
2718.27770 -0.55328
2716.22926 -0.55292
2714.18082 -0.55227
2712.13239 -0.55170
2710.08395 -0.55088
2708.03551 -0.54993
2705.98707 -0.55000
2703.93863 -0.55062
2701.89019 -0.55069
2699.84176 -0.55012
2697.79332 -0.54945
2695.74488 -0.54935
2693.69644 -0.54902
2691.64800 -0.54806
2689.59956 -0.54733
2687.55113 -0.54696
2685.50269 -0.54722
2683.45425 -0.54787
2681.40581 -0.54717
2679.35737 -0.54562
2677.30893 -0.54567
2675.26050 -0.54682
2673.21206 -0.54734
2671.16362 -0.54676
2669.11518 -0.54522
2667.06674 -0.54404
2665.01830 -0.54373
2662.96987 -0.54296
2660.92143 -0.54242
2658.87299 -0.54305
2656.82455 -0.54274
2654.77611 -0.54064
2652.72767 -0.53908
2650.67924 -0.53970
2648.63080 -0.54054
2646.58236 -0.53911
2644.53392 -0.53657
2642.48548 -0.53529
2640.43704 -0.53537
2638.38860 -0.53518
2636.34017 -0.53391
2634.29173 -0.53287
2632.24329 -0.53297
2630.19485 -0.53349
2628.14641 -0.53321
2626.09797 -0.53150
2624.04954 -0.52955
2622.00110 -0.52903
2619.95266 -0.52920
2617.90422 -0.52863
2615.85578 -0.52817
2613.80734 -0.52839
2611.75891 -0.52836
2609.71047 -0.52768
2607.66203 -0.52670
2605.61359 -0.52630
2603.56515 -0.52615
2601.51671 -0.52550
2599.46828 -0.52459
2597.41984 -0.52346
2595.37140 -0.52280
2593.32296 -0.52334
2591.27452 -0.52325
2589.22608 -0.52134
2587.17765 -0.51906
2585.12921 -0.51776
2583.08077 -0.51762
2581.03233 -0.51783
2578.98389 -0.51761
2576.93545 -0.51661
2574.88702 -0.51535
2572.83858 -0.51447
2570.79014 -0.51372
2568.74170 -0.51320
2566.69326 -0.51318
2564.64482 -0.51348
2562.59639 -0.51378
2560.54795 -0.51386
2558.49951 -0.51352
2556.45107 -0.51250
2554.40263 -0.51164
2552.35419 -0.51185
2550.30576 -0.51195
2548.25732 -0.51065
2546.20888 -0.50912
2544.16044 -0.50888
2542.11200 -0.50956
2540.06356 -0.50999
2538.01513 -0.51000
2535.96669 -0.51020
2533.91825 -0.51071
2531.86981 -0.51112
2529.82137 -0.51109
2527.77293 -0.51107
2525.72450 -0.51134
2523.67606 -0.51167
2521.62762 -0.51194
2519.57918 -0.51194
2517.53074 -0.51177
2515.48230 -0.51187
2513.43387 -0.51237
2511.38543 -0.51287
2509.33699 -0.51303
2507.28855 -0.51302
2505.24011 -0.51304
2503.19167 -0.51344
2501.14324 -0.51356
2499.09480 -0.51228
2497.04636 -0.51119
2494.99792 -0.51182
2492.94948 -0.51270
2490.90104 -0.51335
2488.85260 -0.51472
2486.80417 -0.51601
2484.75573 -0.51610
2482.70729 -0.51542
2480.65885 -0.51495
2478.61041 -0.51523
2476.56197 -0.51610
2474.51354 -0.51645
2472.46510 -0.51554
2470.41666 -0.51473
2468.36822 -0.51492
2466.31978 -0.51474
2464.27134 -0.51367
2462.22291 -0.51238
2460.17447 -0.51146
2458.12603 -0.51187
2456.07759 -0.51341
2454.02915 -0.51403
2451.98071 -0.51265
2449.93228 -0.51081
2447.88384 -0.50991
2445.83540 -0.50874
2443.78696 -0.50699
2441.73852 -0.50680
2439.69008 -0.50780
2437.64165 -0.50745
2435.59321 -0.50579
2433.54477 -0.50436
2431.49633 -0.50397
2429.44789 -0.50386
2427.39945 -0.50266
2425.35102 -0.50080
2423.30258 -0.49950
2421.25414 -0.49895
2419.20570 -0.49857
2417.15726 -0.49827
2415.10882 -0.49797
2413.06039 -0.49698
2411.01195 -0.49592
2408.96351 -0.49596
2406.91507 -0.49609
2404.86663 -0.49478
2402.81819 -0.49257
2400.76976 -0.49110
2398.72132 -0.49103
2396.67288 -0.49169
2394.62444 -0.49203
2392.57600 -0.49162
2390.52756 -0.49139
2388.47913 -0.49159
2386.43069 -0.49147
2384.38225 -0.49085
2382.33381 -0.48995
2380.28537 -0.48950
2378.23693 -0.49084
2376.18850 -0.49473
2374.14006 -0.49975
2372.09162 -0.50250
2370.04318 -0.50197
2367.99474 -0.50087
2365.94630 -0.50025
2363.89787 -0.50224
2361.84943 -0.50896
2359.80099 -0.51228
2357.75255 -0.50489
2355.70411 -0.49582
2353.65567 -0.49466
2351.60723 -0.49597
2349.55880 -0.49520
2347.51036 -0.49386
2345.46192 -0.49338
2343.41348 -0.49664
2341.36504 -0.50288
2339.31660 -0.50451
2337.26817 -0.50172
2335.21973 -0.49920
2333.17129 -0.49763
2331.12285 -0.49637
2329.07441 -0.49512
2327.02597 -0.49438
2324.97754 -0.49348
2322.92910 -0.49290
2320.88066 -0.49351
2318.83222 -0.49447
2316.78378 -0.49438
2314.73534 -0.49282
2312.68691 -0.49094
2310.63847 -0.48911
2308.59003 -0.48828
2306.54159 -0.48938
2304.49315 -0.49050
2302.44471 -0.49048
2300.39628 -0.49031
2298.34784 -0.49031
2296.29940 -0.49033
2294.25096 -0.49039
2292.20252 -0.49016
2290.15408 -0.48997
2288.10565 -0.49039
2286.05721 -0.49054
2284.00877 -0.48981
2281.96033 -0.48923
2279.91189 -0.48929
2277.86345 -0.48931
2275.81502 -0.48911
2273.76658 -0.48959
2271.71814 -0.49104
2269.66970 -0.49200
2267.62126 -0.49173
2265.57282 -0.49163
2263.52439 -0.49205
2261.47595 -0.49195
2259.42751 -0.49145
2257.37907 -0.49124
2255.33063 -0.49141
2253.28219 -0.49136
2251.23376 -0.49084
2249.18532 -0.49016
2247.13688 -0.48930
2245.08844 -0.48866
2243.04000 -0.48848
2240.99156 -0.48842
2238.94313 -0.48854
2236.89469 -0.48890
2234.84625 -0.48904
2232.79781 -0.48860
2230.74937 -0.48842
2228.70093 -0.48877
2226.65250 -0.48884
2224.60406 -0.48875
2222.55562 -0.48866
2220.50718 -0.48810
2218.45874 -0.48727
2216.41030 -0.48634
2214.36186 -0.48525
2212.31343 -0.48487
2210.26499 -0.48565
2208.21655 -0.48662
2206.16811 -0.48735
2204.11967 -0.48826
2202.07123 -0.48881
2200.02280 -0.48839
2197.97436 -0.48803
2195.92592 -0.48855
2193.87748 -0.48881
2191.82904 -0.48835
2189.78060 -0.48801
2187.73217 -0.48843
2185.68373 -0.48933
2183.63529 -0.48944
2181.58685 -0.48911
2179.53841 -0.48953
2177.48997 -0.48983
2175.44154 -0.48933
2173.39310 -0.48928
2171.34466 -0.49069
2169.29622 -0.49260
2167.24778 -0.49310
2165.19934 -0.49185
2163.15091 -0.49061
2161.10247 -0.49109
2159.05403 -0.49313
2157.00559 -0.49503
2154.95715 -0.49567
2152.90871 -0.49613
2150.86028 -0.49681
2148.81184 -0.49636
2146.76340 -0.49554
2144.71496 -0.49555
2142.66652 -0.49575
2140.61808 -0.49591
2138.56965 -0.49648
2136.52121 -0.49747
2134.47277 -0.49815
2132.42433 -0.49781
2130.37589 -0.49667
2128.32745 -0.49594
2126.27902 -0.49621
2124.23058 -0.49651
2122.18214 -0.49691
2120.13370 -0.49822
2118.08526 -0.49890
2116.03682 -0.49778
2113.98839 -0.49637
2111.93995 -0.49592
2109.89151 -0.49638
2107.84307 -0.49694
2105.79463 -0.49681
2103.74619 -0.49574
2101.69776 -0.49425
2099.64932 -0.49353
2097.60088 -0.49353
2095.55244 -0.49318
2093.50400 -0.49240
2091.45556 -0.49185
2089.40713 -0.49126
2087.35869 -0.49022
2085.31025 -0.48955
2083.26181 -0.48924
2081.21337 -0.48845
2079.16493 -0.48809
2077.11649 -0.48888
2075.06806 -0.48941
2073.01962 -0.48856
2070.97118 -0.48735
2068.92274 -0.48710
2066.87430 -0.48758
2064.82586 -0.48762
2062.77743 -0.48651
2060.72899 -0.48494
2058.68055 -0.48431
2056.63211 -0.48482
2054.58367 -0.48581
2052.53523 -0.48760
2050.48680 -0.48913
2048.43836 -0.48845
2046.38992 -0.48712
2044.34148 -0.48724
2042.29304 -0.48762
2040.24460 -0.48747
2038.19617 -0.48755
2036.14773 -0.48783
2034.09929 -0.48823
2032.05085 -0.48874
2030.00241 -0.48883
2027.95397 -0.48862
2025.90554 -0.48903
2023.85710 -0.49048
2021.80866 -0.49176
2019.76022 -0.49241
2017.71178 -0.49312
2015.66334 -0.49351
2013.61491 -0.49399
2011.56647 -0.49536
2009.51803 -0.49686
2007.46959 -0.49787
2005.42115 -0.49870
2003.37271 -0.49983
2001.32428 -0.50108
1999.27584 -0.50205
1997.22740 -0.50262
1995.17896 -0.50313
1993.13052 -0.50426
1991.08208 -0.50560
1989.03365 -0.50641
1986.98521 -0.50744
1984.93677 -0.50889
1982.88833 -0.51002
1980.83989 -0.51069
1978.79145 -0.51130
1976.74302 -0.51234
1974.69458 -0.51368
1972.64614 -0.51478
1970.59770 -0.51569
1968.54926 -0.51668
1966.50082 -0.51728
1964.45239 -0.51750
1962.40395 -0.51808
1960.35551 -0.51869
1958.30707 -0.51874
1956.25863 -0.51845
1954.21019 -0.51843
1952.16176 -0.51862
1950.11332 -0.51867
1948.06488 -0.51890
1946.01644 -0.51894
1943.96800 -0.51887
1941.91956 -0.51855
1939.87112 -0.51692
1937.82269 -0.51590
1935.77425 -0.51638
1933.72581 -0.51663
1931.67737 -0.51657
1929.62893 -0.51679
1927.58049 -0.51611
1925.53206 -0.51419
1923.48362 -0.51289
1921.43518 -0.51248
1919.38674 -0.51185
1917.33830 -0.51209
1915.28986 -0.51235
1913.24143 -0.51068
1911.19299 -0.50871
1909.14455 -0.50861
1907.09611 -0.50897
1905.04767 -0.50804
1902.99923 -0.50703
1900.95080 -0.50663
1898.90236 -0.50602
1896.85392 -0.50526
1894.80548 -0.50420
1892.75704 -0.50267
1890.70860 -0.50191
1888.66017 -0.50239
1886.61173 -0.50262
1884.56329 -0.50220
1882.51485 -0.50145
1880.46641 -0.50075
1878.41797 -0.50078
1876.36954 -0.50125
1874.32110 -0.50142
1872.27266 -0.50080
1870.22422 -0.50067
1868.17578 -0.50252
1866.12734 -0.50380
1864.07891 -0.50391
1862.03047 -0.50421
1859.98203 -0.50464
1857.93359 -0.50544
1855.88515 -0.50705
1853.83671 -0.50877
1851.78828 -0.50964
1849.73984 -0.50995
1847.69140 -0.51052
1845.64296 -0.51123
1843.59452 -0.51305
1841.54608 -0.51542
1839.49765 -0.51667
1837.44921 -0.51781
1835.40077 -0.51929
1833.35233 -0.52032
1831.30389 -0.52135
1829.25545 -0.52344
1827.20702 -0.52451
1825.15858 -0.52454
1823.11014 -0.52608
1821.06170 -0.52911
1819.01326 -0.53214
1816.96482 -0.53383
1814.91639 -0.53470
1812.86795 -0.53573
1810.81951 -0.53670
1808.77107 -0.53742
1806.72263 -0.53814
1804.67419 -0.53934
1802.62575 -0.54130
1800.57732 -0.54350
1798.52888 -0.54514
1796.48044 -0.54525
1794.43200 -0.54423
1792.38356 -0.54532
1790.33512 -0.54789
1788.28669 -0.54830
1786.23825 -0.54708
1784.18981 -0.54538
1782.14137 -0.54467
1780.09293 -0.54553
1778.04449 -0.54692
1775.99606 -0.54744
1773.94762 -0.54676
1771.89918 -0.54582
1769.85074 -0.54493
1767.80230 -0.54416
1765.75386 -0.54406
1763.70543 -0.54408
1761.65699 -0.54407
1759.60855 -0.54323
1757.56011 -0.54159
1755.51167 -0.53994
1753.46323 -0.53750
1751.41480 -0.53491
1749.36636 -0.53516
1747.31792 -0.53693
1745.26948 -0.53715
1743.22104 -0.53658
1741.17260 -0.53558
1739.12417 -0.53443
1737.07573 -0.53357
1735.02729 -0.53396
1732.97885 -0.53542
1730.93041 -0.53455
1728.88197 -0.53381
1726.83354 -0.53366
1724.78510 -0.53324
1722.73666 -0.53246
1720.68822 -0.53082
1718.63978 -0.52936
1716.59134 -0.53003
1714.54291 -0.52991
1712.49447 -0.52901
1710.44603 -0.52997
1708.39759 -0.53206
1706.34915 -0.53326
1704.30071 -0.53324
1702.25228 -0.53383
1700.20384 -0.53681
1698.15540 -0.53966
1696.10696 -0.54146
1694.05852 -0.54211
1692.01008 -0.54067
1689.96165 -0.53982
1687.91321 -0.54060
1685.86477 -0.54277
1683.81633 -0.54791
1681.76789 -0.54996
1679.71945 -0.54929
1677.67102 -0.54896
1675.62258 -0.55057
1673.57414 -0.55329
1671.52570 -0.55411
1669.47726 -0.55561
1667.42882 -0.55738
1665.38038 -0.55740
1663.33195 -0.55806
1661.28351 -0.55966
1659.23507 -0.55990
1657.18663 -0.55907
1655.13819 -0.55859
1653.08975 -0.56237
1651.04132 -0.56436
1648.99288 -0.56243
1646.94444 -0.56272
1644.89600 -0.56221
1642.84756 -0.55893
1640.79912 -0.55646
1638.75069 -0.55475
1636.70225 -0.55380
1634.65381 -0.55464
1632.60537 -0.55343
1630.55693 -0.55054
1628.50849 -0.54756
1626.46006 -0.54581
1624.41162 -0.54463
1622.36318 -0.54210
1620.31474 -0.53952
1618.26630 -0.53879
1616.21786 -0.53980
1614.16943 -0.53896
1612.12099 -0.53591
1610.07255 -0.53253
1608.02411 -0.53067
1605.97567 -0.53021
1603.92723 -0.52934
1601.87880 -0.52745
1599.83036 -0.52538
1597.78192 -0.52353
1595.73348 -0.52166
1593.68504 -0.52041
1591.63660 -0.51955
1589.58817 -0.51856
1587.53973 -0.51768
1585.49129 -0.51625
1583.44285 -0.51452
1581.39441 -0.51348
1579.34597 -0.51310
1577.29754 -0.51377
1575.24910 -0.51417
1573.20066 -0.51142
1571.15222 -0.50803
1569.10378 -0.50707
1567.05534 -0.50762
1565.00691 -0.50805
1562.95847 -0.50864
1560.91003 -0.50920
1558.86159 -0.51213
1556.81315 -0.51263
1554.76471 -0.51148
1552.71628 -0.51159
1550.66784 -0.51157
1548.61940 -0.51114
1546.57096 -0.50979
1544.52252 -0.50779
1542.47408 -0.50658
1540.42565 -0.50766
1538.37721 -0.50921
1536.32877 -0.50845
1534.28033 -0.50746
1532.23189 -0.50810
1530.18345 -0.50880
1528.13501 -0.50965
1526.08658 -0.51141
1524.03814 -0.51145
1521.98970 -0.51045
1519.94126 -0.51102
1517.89282 -0.51168
1515.84438 -0.51123
1513.79595 -0.50941
1511.74751 -0.50779
1509.69907 -0.50688
1507.65063 -0.50736
1505.60219 -0.51035
1503.55375 -0.50985
1501.50532 -0.50814
1499.45688 -0.50762
1497.40844 -0.50868
1495.36000 -0.50885
1493.31156 -0.50709
1491.26312 -0.50541
1489.21469 -0.50599
1487.16625 -0.50768
1485.11781 -0.50770
1483.06937 -0.50634
1481.02093 -0.50519
1478.97249 -0.50524
1476.92406 -0.50580
1474.87562 -0.50613
1472.82718 -0.50717
1470.77874 -0.50837
1468.73030 -0.50791
1466.68186 -0.50750
1464.63343 -0.50857
1462.58499 -0.50856
1460.53655 -0.50599
1458.48811 -0.50410
1456.43967 -0.50889
1454.39123 -0.51138
1452.34280 -0.51011
1450.29436 -0.50881
1448.24592 -0.50836
1446.19748 -0.50884
1444.14904 -0.50923
1442.10060 -0.50890
1440.05217 -0.50794
1438.00373 -0.50760
1435.95529 -0.50929
1433.90685 -0.51018
1431.85841 -0.50926
1429.80997 -0.50790
1427.76154 -0.50722
1425.71310 -0.50779
1423.66466 -0.50884
1421.61622 -0.50866
1419.56778 -0.50942
1417.51934 -0.51236
1415.47091 -0.51249
1413.42247 -0.51124
1411.37403 -0.51148
1409.32559 -0.51290
1407.27715 -0.51448
1405.22871 -0.51625
1403.18028 -0.51691
1401.13184 -0.51631
1399.08340 -0.51575
1397.03496 -0.51550
1394.98652 -0.51576
1392.93808 -0.51528
1390.88965 -0.51382
1388.84121 -0.51365
1386.79277 -0.51539
1384.74433 -0.51599
1382.69589 -0.51506
1380.64745 -0.51476
1378.59901 -0.51566
1376.55058 -0.51639
1374.50214 -0.51682
1372.45370 -0.51755
1370.40526 -0.51746
1368.35682 -0.51626
1366.30838 -0.51495
1364.25995 -0.51494
1362.21151 -0.51585
1360.16307 -0.51524
1358.11463 -0.51372
1356.06619 -0.51240
1354.01775 -0.51124
1351.96932 -0.51055
1349.92088 -0.51032
1347.87244 -0.50978
1345.82400 -0.50886
1343.77556 -0.50853
1341.72712 -0.50891
1339.67869 -0.50930
1337.63025 -0.50845
1335.58181 -0.50684
1333.53337 -0.50646
1331.48493 -0.50738
1329.43649 -0.50767
1327.38806 -0.50627
1325.33962 -0.50527
1323.29118 -0.50613
1321.24274 -0.50725
1319.19430 -0.50793
1317.14586 -0.50895
1315.09743 -0.50991
1313.04899 -0.51054
1311.00055 -0.51154
1308.95211 -0.51305
1306.90367 -0.51424
1304.85523 -0.51487
1302.80680 -0.51565
1300.75836 -0.51666
1298.70992 -0.51737
1296.66148 -0.51817
1294.61304 -0.51936
1292.56460 -0.51982
1290.51617 -0.51996
1288.46773 -0.52127
1286.41929 -0.52282
1284.37085 -0.52363
1282.32241 -0.52373
1280.27397 -0.52365
1278.22554 -0.52441
1276.17710 -0.52537
1274.12866 -0.52590
1272.08022 -0.52665
1270.03178 -0.52674
1267.98334 -0.52535
1265.93491 -0.52427
1263.88647 -0.52431
1261.83803 -0.52497
1259.78959 -0.52585
1257.74115 -0.52530
1255.69271 -0.52254
1253.64428 -0.51893
1251.59584 -0.51592
1249.54740 -0.51425
1247.49896 -0.51320
1245.45052 -0.51186
1243.40208 -0.51053
1241.35364 -0.50972
1239.30521 -0.50917
1237.25677 -0.50758
1235.20833 -0.50478
1233.15989 -0.50226
1231.11145 -0.50078
1229.06301 -0.49986
1227.01458 -0.49859
1224.96614 -0.49706
1222.91770 -0.49574
1220.86926 -0.49444
1218.82082 -0.49299
1216.77238 -0.49184
1214.72395 -0.49123
1212.67551 -0.49085
1210.62707 -0.49034
1208.57863 -0.48949
1206.53019 -0.48882
1204.48175 -0.48853
1202.43332 -0.48833
1200.38488 -0.48820
1198.33644 -0.48767
1196.28800 -0.48697
1194.23956 -0.48687
1192.19112 -0.48697
1190.14269 -0.48729
1188.09425 -0.48852
1186.04581 -0.49058
1183.99737 -0.49230
1181.94893 -0.49334
1179.90049 -0.49455
1177.85206 -0.49604
1175.80362 -0.49829
1173.75518 -0.50163
1171.70674 -0.50471
1169.65830 -0.50651
1167.60986 -0.50728
1165.56143 -0.50787
1163.51299 -0.50954
1161.46455 -0.51204
1159.41611 -0.51470
1157.36767 -0.51789
1155.31923 -0.52033
1153.27080 -0.52124
1151.22236 -0.52205
1149.17392 -0.52411
1147.12548 -0.52679
1145.07704 -0.52773
1143.02860 -0.52752
1140.98017 -0.52841
1138.93173 -0.53012
1136.88329 -0.53161
1134.83485 -0.53292
1132.78641 -0.53382
1130.73797 -0.53373
1128.68954 -0.53371
1126.64110 -0.53469
1124.59266 -0.53549
1122.54422 -0.53577
1120.49578 -0.53541
1118.44734 -0.53401
1116.39891 -0.53309
1114.35047 -0.53299
1112.30203 -0.53273
1110.25359 -0.53211
1108.20515 -0.53196
1106.15671 -0.53197
1104.10827 -0.53030
1102.05984 -0.52787
1100.01140 -0.52577
1097.96296 -0.52271
1095.91452 -0.51999
1093.86608 -0.52057
1091.81764 -0.52249
1089.76921 -0.52139
1087.72077 -0.51861
1085.67233 -0.51798
1083.62389 -0.51930
1081.57545 -0.52020
1079.52701 -0.51944
1077.47858 -0.51782
1075.43014 -0.51682
1073.38170 -0.51704
1071.33326 -0.51748
1069.28482 -0.51724
1067.23638 -0.51668
1065.18795 -0.51645
1063.13951 -0.51746
1061.09107 -0.51893
1059.04263 -0.51878
1056.99419 -0.51782
1054.94575 -0.51838
1052.89732 -0.52042
1050.84888 -0.52227
1048.80044 -0.52275
1046.75200 -0.52364
1044.70356 -0.52708
1042.65512 -0.53082
1040.60669 -0.53338
1038.55825 -0.53459
1036.50981 -0.53337
1034.46137 -0.53157
1032.41293 -0.53115
1030.36449 -0.53192
1028.31606 -0.53373
1026.26762 -0.53499
1024.21918 -0.53430
1022.17074 -0.53442
1020.12230 -0.53766
1018.07386 -0.54134
1016.02543 -0.54197
1013.97699 -0.54102
1011.92855 -0.54045
1009.88011 -0.53874
1007.83167 -0.53620
1005.78323 -0.53418
1003.73480 -0.53327
1001.68636 -0.53315
999.63792 -0.53261
997.58948 -0.53036
995.54104 -0.52701
993.49260 -0.52561
991.44417 -0.52598
989.39573 -0.52547
987.34729 -0.52314
985.29885 -0.51955
983.25041 -0.51795
981.20197 -0.51907
979.15354 -0.51777
977.10510 -0.51297
975.05666 -0.50810
973.00822 -0.50425
970.95978 -0.50176
968.91134 -0.49834
966.86290 -0.49283
964.81447 -0.48905
962.76603 -0.48666
960.71759 -0.48413
958.66915 -0.48179
956.62071 -0.47874
954.57227 -0.47885
952.52384 -0.48351
950.47540 -0.48674
948.42696 -0.48929
946.37852 -0.49853
944.33008 -0.51511
942.28164 -0.53546
940.23321 -0.55875
938.18477 -0.58335
936.13633 -0.60756
934.08789 -0.63163
932.03945 -0.65519
929.99101 -0.67733
927.94258 -0.69697
925.89414 -0.71375
923.84570 -0.72914
921.79726 -0.74312
919.74882 -0.75354
917.70038 -0.75976
915.65195 -0.76355
913.60351 -0.76700
911.55507 -0.77061
909.50663 -0.77338
907.45819 -0.77435
905.40975 -0.77395
903.36132 -0.77213
901.31288 -0.77010
899.26444 -0.77021
897.21600 -0.77110
895.16756 -0.77022
893.11912 -0.76627
891.07069 -0.75982
889.02225 -0.75422
886.97381 -0.75042
884.92537 -0.74636
882.87693 -0.74210
880.82849 -0.73838
878.78006 -0.73408
876.73162 -0.72878
874.68318 -0.72319
872.63474 -0.71694
870.58630 -0.71048
868.53786 -0.70504
866.48943 -0.70081
864.44099 -0.69894
862.39255 -0.69947
860.34411 -0.69857
858.29567 -0.69388
856.24723 -0.68855
854.19880 -0.68459
852.15036 -0.68174
850.10192 -0.68073
848.05348 -0.68069
846.00504 -0.68039
843.95660 -0.67970
841.90817 -0.68009
839.85973 -0.68333
837.81129 -0.68745
835.76285 -0.68871
833.71441 -0.68816
831.66597 -0.68909
829.61753 -0.69095
827.56910 -0.69235
825.52066 -0.69291
823.47222 -0.69292
821.42378 -0.69328
819.37534 -0.69314
817.32690 -0.69130
815.27847 -0.68881
813.23003 -0.68798
811.18159 -0.68882
809.13315 -0.68800
807.08471 -0.68557
805.03627 -0.68476
802.98784 -0.68461
800.93940 -0.68337
798.89096 -0.68215
796.84252 -0.68155
794.79408 -0.68096
792.74564 -0.67918
790.69721 -0.67584
788.64877 -0.67323
786.60033 -0.67269
784.55189 -0.67232
782.50345 -0.67111
780.45501 -0.67005
778.40658 -0.66941
776.35814 -0.66752
774.30970 -0.66490
772.26126 -0.66440
770.21282 -0.66505
768.16438 -0.66567
766.11595 -0.66580
764.06751 -0.66250
762.01907 -0.65560
759.97063 -0.64968
757.92219 -0.64983
755.87375 -0.65510
753.82532 -0.65864
751.77688 -0.65758
749.72844 -0.65486
747.68000 -0.65165
745.63156 -0.64655
743.58312 -0.64143
741.53469 -0.63955
739.48625 -0.64141
737.43781 -0.64319
735.38937 -0.63953
733.34093 -0.63351
731.29249 -0.63159
729.24406 -0.63339
727.19562 -0.63854
725.14718 -0.64454
723.09874 -0.64293
721.05030 -0.63296
719.00186 -0.62375
716.95343 -0.61942
714.90499 -0.61597
712.85655 -0.61597
710.80811 -0.62146
708.75967 -0.62445
706.71123 -0.62473
704.66280 -0.62604
702.61436 -0.62493
700.56592 -0.62491
698.51748 -0.62959
696.46904 -0.63102
694.42060 -0.62956
692.37216 -0.63331
690.32373 -0.64363
688.27529 -0.65563
686.22685 -0.65598
684.17841 -0.64403
682.12997 -0.63387
680.08153 -0.63251
678.03310 -0.63818
675.98466 -0.64785
673.93622 -0.66209
671.88778 -0.67192
669.83934 -0.66682
667.79090 -0.65366
665.74247 -0.65044
663.69403 -0.65280
661.64559 -0.65859
659.59715 -0.66835
657.54871 -0.67845
655.50027 -0.68440
653.45184 -0.69197
651.40340 -0.70244
649.35496 -0.70555
647.30652 -0.69982
645.25808 -0.68695
643.20964 -0.66500
641.16121 -0.64472
639.11277 -0.64094
637.06433 -0.64615
635.01589 -0.64124
632.96745 -0.62909
630.91901 -0.63360
628.87058 -0.65880
626.82214 -0.66825
624.77370 -0.63931
622.72526 -0.60133
620.67682 -0.58309
618.62838 -0.57548
616.57995 -0.53907
614.53151 -0.48229
612.48307 -0.45478
610.43463 -0.46800
608.38619 -0.49852
606.33775 -0.51300
604.28932 -0.50041
602.24088 -0.48646
600.19244 -0.48055
598.14400 -0.48522
