3996.50324 1.11399
3994.45480 1.11197
3992.40636 1.10841
3990.35792 1.10607
3988.30948 1.10808
3986.26104 1.11297
3984.21261 1.11586
3982.16417 1.11690
3980.11573 1.11767
3978.06729 1.11459
3976.01885 1.11048
3973.97041 1.10997
3971.92198 1.11035
3969.87354 1.11178
3967.82510 1.11402
3965.77666 1.11302
3963.72822 1.11045
3961.67978 1.10898
3959.63135 1.10734
3957.58291 1.10814
3955.53447 1.11229
3953.48603 1.11666
3951.43759 1.12062
3949.38915 1.11968
3947.34072 1.11184
3945.29228 1.10619
3943.24384 1.10124
3941.19540 1.09534
3939.14696 1.09786
3937.09852 1.10568
3935.05009 1.11117
3933.00165 1.11039
3930.95321 1.10221
3928.90477 1.10002
3926.85633 1.10600
3924.80789 1.10439
3922.75946 1.09629
3920.71102 1.09494
3918.66258 1.09450
3916.61414 1.09102
3914.56570 1.09248
3912.51726 1.09711
3910.46883 1.09926
3908.42039 1.10187
3906.37195 1.10467
3904.32351 1.09692
3902.27507 1.08294
3900.22663 1.07659
3898.17820 1.07501
3896.12976 1.08127
3894.08132 1.09242
3892.03288 1.09420
3889.98444 1.09209
3887.93600 1.10375
3885.88756 1.10766
3883.83913 1.09629
3881.79069 1.09244
3879.74225 1.08549
3877.69381 1.08683
3875.64537 1.10011
3873.59693 1.10977
3871.54850 1.11516
3869.50006 1.10447
3867.45162 1.09453
3865.40318 1.09823
3863.35474 1.08887
3861.30630 1.08008
3859.25787 1.09115
3857.20943 1.11235
3855.16099 1.12605
3853.11255 1.09145
3851.06411 1.06489
3849.01567 1.08319
3846.96724 1.10778
3844.91880 1.12315
3842.87036 1.12446
3840.82192 1.12131
3838.77348 1.11263
3836.72504 1.09650
3834.67661 1.09707
3832.62817 1.10692
3830.57973 1.11355
3828.53129 1.11959
3826.48285 1.12176
3824.43441 1.12526
3822.38598 1.12933
3820.33754 1.10806
3818.28910 1.09643
3816.24066 1.09966
3814.19222 1.10054
3812.14378 1.11478
3810.09535 1.13434
3808.04691 1.14153
3805.99847 1.13139
3803.95003 1.13055
3801.90159 1.12438
3799.85315 1.10430
3797.80472 1.10858
3795.75628 1.11901
3793.70784 1.12769
3791.65940 1.13910
3789.61096 1.14699
3787.56252 1.15136
3785.51409 1.15070
3783.46565 1.14686
3781.41721 1.14921
3779.36877 1.14666
3777.32033 1.13716
3775.27189 1.13986
3773.22346 1.15299
3771.17502 1.16049
3769.12658 1.15241
3767.07814 1.14799
3765.02970 1.15069
3762.98126 1.15751
3760.93283 1.16731
3758.88439 1.16301
3756.83595 1.15728
3754.78751 1.17016
3752.73907 1.18509
3750.69063 1.16379
3748.64219 1.13671
3746.59376 1.14975
3744.54532 1.15424
3742.49688 1.13763
3740.44844 1.14376
3738.40000 1.16638
3736.35156 1.17330
3734.30313 1.14378
3732.25469 1.13089
3730.20625 1.14727
3728.15781 1.16648
3726.10937 1.17452
3724.06093 1.17460
3722.01250 1.17191
3719.96406 1.16457
3717.91562 1.16501
3715.86718 1.18061
3713.81874 1.19957
3711.77030 1.19371
3709.72187 1.17309
3707.67343 1.17789
3705.62499 1.19118
3703.57655 1.19764
3701.52811 1.19022
3699.47967 1.18885
3697.43124 1.20067
3695.38280 1.21139
3693.33436 1.21955
3691.28592 1.21878
3689.23748 1.19455
3687.18904 1.18139
3685.14061 1.19454
3683.09217 1.21331
3681.04373 1.22730
3678.99529 1.23892
3676.94685 1.24575
3674.89841 1.22206
3672.84998 1.21574
3670.80154 1.23147
3668.75310 1.22693
3666.70466 1.22914
3664.65622 1.24484
3662.60778 1.25635
3660.55935 1.26345
3658.51091 1.27190
3656.46247 1.27177
3654.41403 1.27086
3652.36559 1.28977
3650.31715 1.30144
3648.26872 1.26742
3646.22028 1.25951
3644.17184 1.28206
3642.12340 1.30581
3640.07496 1.32079
3638.02652 1.32704
3635.97809 1.33255
3633.92965 1.34410
3631.88121 1.35651
3629.83277 1.35238
3627.78433 1.32948
3625.73589 1.34065
3623.68746 1.36877
3621.63902 1.38765
3619.59058 1.38631
3617.54214 1.37585
3615.49370 1.38903
3613.44526 1.41331
3611.39682 1.42864
3609.34839 1.43416
3607.29995 1.43215
3605.25151 1.44012
3603.20307 1.46093
3601.15463 1.47773
3599.10619 1.48400
3597.05776 1.49158
3595.00932 1.49632
3592.96088 1.49632
3590.91244 1.51084
3588.86400 1.53322
3586.81556 1.53383
3584.76713 1.53685
3582.71869 1.55997
3580.67025 1.58236
3578.62181 1.59633
3576.57337 1.60714
3574.52493 1.61565
3572.47650 1.62008
3570.42806 1.62779
3568.37962 1.63196
3566.33118 1.61665
3564.28274 1.61701
3562.23430 1.63736
3560.18587 1.65170
3558.13743 1.66372
3556.08899 1.68266
3554.04055 1.69567
3551.99211 1.69024
3549.94367 1.68311
3547.89524 1.68680
3545.84680 1.68875
3543.79836 1.69686
3541.74992 1.71420
3539.70148 1.72319
3537.65304 1.72377
3535.60461 1.72622
3533.55617 1.73785
3531.50773 1.75251
3529.45929 1.75465
3527.41085 1.75112
3525.36241 1.75607
3523.31398 1.75394
3521.26554 1.75378
3519.21710 1.77280
3517.16866 1.79240
3515.12022 1.80286
3513.07178 1.81124
3511.02335 1.81367
3508.97491 1.81230
3506.92647 1.82258
3504.87803 1.83303
3502.82959 1.82496
3500.78115 1.81871
3498.73272 1.82495
3496.68428 1.82588
3494.63584 1.82093
3492.58740 1.82246
3490.53896 1.82797
3488.49052 1.83189
3486.44209 1.83711
3484.39365 1.83979
3482.34521 1.83456
3480.29677 1.82764
3478.24833 1.82919
3476.19989 1.84168
3474.15146 1.86150
3472.10302 1.87930
3470.05458 1.88367
3468.00614 1.87267
3465.95770 1.85490
3463.90926 1.84713
3461.86082 1.85571
3459.81239 1.85986
3457.76395 1.85494
3455.71551 1.85821
3453.66707 1.86330
3451.61863 1.86547
3449.57019 1.87230
3447.52176 1.87779
3445.47332 1.87356
3443.42488 1.86347
3441.37644 1.85768
3439.32800 1.85785
3437.27956 1.85961
3435.23113 1.86943
3433.18269 1.88968
3431.13425 1.90116
3429.08581 1.89915
3427.03737 1.89999
3424.98893 1.90421
3422.94050 1.90204
3420.89206 1.89311
3418.84362 1.88944
3416.79518 1.89095
3414.74674 1.88900
3412.69830 1.89056
3410.64987 1.90062
3408.60143 1.90895
3406.55299 1.90865
3404.50455 1.90434
3402.45611 1.90034
3400.40767 1.89549
3398.35924 1.89496
3396.31080 1.90809
3394.26236 1.92682
3392.21392 1.93934
3390.16548 1.94782
3388.11704 1.95120
3386.06861 1.94700
3384.02017 1.94477
3381.97173 1.94531
3379.92329 1.93865
3377.87485 1.92956
3375.82641 1.92732
3373.77798 1.93340
3371.72954 1.94584
3369.68110 1.95485
3367.63266 1.95438
3365.58422 1.95271
3363.53578 1.95154
3361.48735 1.94936
3359.43891 1.95145
3357.39047 1.95498
3355.34203 1.95593
3353.29359 1.95833
3351.24515 1.95929
3349.19672 1.95480
3347.14828 1.95857
3345.09984 1.97269
3343.05140 1.97867
3341.00296 1.97649
3338.95452 1.97661
3336.90609 1.97623
3334.85765 1.97160
3332.80921 1.96502
3330.76077 1.96154
3328.71233 1.96868
3326.66389 1.98251
3324.61545 1.98709
3322.56702 1.98366
3320.51858 1.98550
3318.47014 1.98728
3316.42170 1.98608
3314.37326 1.99387
3312.32482 2.00088
3310.27639 1.99222
3308.22795 1.98499
3306.17951 1.98926
3304.13107 1.98874
3302.08263 1.98092
3300.03419 1.98514
3297.98576 2.00747
3295.93732 2.02225
3293.88888 2.01514
3291.84044 2.01016
3289.79200 2.01453
3287.74356 2.01152
3285.69513 2.00682
3283.64669 2.00484
3281.59825 1.99927
3279.54981 2.00011
3277.50137 2.00712
3275.45293 2.00702
3273.40450 2.00359
3271.35606 2.00780
3269.30762 2.01532
3267.25918 2.01232
3265.21074 2.00295
3263.16230 2.00185
3261.11387 2.00411
3259.06543 2.00107
3257.01699 1.99744
3254.96855 1.99989
3252.92011 2.00830
3250.87167 2.01367
3248.82324 2.01555
3246.77480 2.01975
3244.72636 2.01934
3242.67792 2.01155
3240.62948 2.00390
3238.58104 1.99754
3236.53261 1.99529
3234.48417 1.99953
3232.43573 2.00330
3230.38729 2.00659
3228.33885 2.00758
3226.29041 1.99893
3224.24198 1.98811
3222.19354 1.98525
3220.14510 1.98637
3218.09666 1.98152
3216.04822 1.97192
3213.99978 1.96869
3211.95135 1.97832
3209.90291 1.99331
3207.85447 1.99807
3205.80603 1.98870
3203.75759 1.97515
3201.70915 1.96724
3199.66072 1.96744
3197.61228 1.96844
3195.56384 1.96089
3193.51540 1.94935
3191.46696 1.94626
3189.41852 1.95314
3187.37008 1.96068
3185.32165 1.96331
3183.27321 1.96208
3181.22477 1.95822
3179.17633 1.94956
3177.12789 1.93765
3175.07945 1.93142
3173.03102 1.93250
3170.98258 1.93824
3168.93414 1.94350
3166.88570 1.93866
3164.83726 1.92730
3162.78882 1.91605
3160.74039 1.90615
3158.69195 1.90583
3156.64351 1.91250
3154.59507 1.91384
3152.54663 1.90653
3150.49819 1.89359
3148.44976 1.88433
3146.40132 1.88402
3144.35288 1.88539
3142.30444 1.88238
3140.25600 1.87990
3138.20756 1.87604
3136.15913 1.86661
3134.11069 1.85847
3132.06225 1.85467
3130.01381 1.85226
3127.96537 1.84870
3125.91693 1.84782
3123.86850 1.84771
3121.82006 1.84206
3119.77162 1.83549
3117.72318 1.83098
3115.67474 1.82603
3113.62630 1.82184
3111.57787 1.82383
3109.52943 1.82929
3107.48099 1.82755
3105.43255 1.81783
3103.38411 1.81077
3101.33567 1.81140
3099.28724 1.81548
3097.23880 1.81639
3095.19036 1.81209
3093.14192 1.80671
3091.09348 1.80119
3089.04504 1.79694
3086.99661 1.79678
3084.94817 1.79701
3082.89973 1.79119
3080.85129 1.78543
3078.80285 1.78953
3076.75441 1.79631
3074.70598 1.79456
3072.65754 1.78489
3070.60910 1.78077
3068.56066 1.78894
3066.51222 1.79267
3064.46378 1.78036
3062.41535 1.76833
3060.36691 1.76547
3058.31847 1.76227
3056.27003 1.75573
3054.22159 1.75056
3052.17315 1.75136
3050.12471 1.75551
3048.07628 1.75551
3046.02784 1.75016
3043.97940 1.74596
3041.93096 1.74703
3039.88252 1.74784
3037.83408 1.74245
3035.78565 1.73585
3033.73721 1.73569
3031.68877 1.73841
3029.64033 1.73716
3027.59189 1.73529
3025.54345 1.73553
3023.49502 1.73353
3021.44658 1.73043
3019.39814 1.72912
3017.34970 1.72668
3015.30126 1.72071
3013.25282 1.71245
3011.20439 1.70662
3009.15595 1.70477
3007.10751 1.69842
3005.05907 1.68616
3003.01063 1.68078
3000.96219 1.68639
2998.91376 1.69624
2996.86532 1.69985
2994.81688 1.69097
2992.76844 1.67741
2990.72000 1.66660
2988.67156 1.66067
2986.62313 1.66045
2984.57469 1.66063
2982.52625 1.65554
2980.47781 1.64632
2978.42937 1.63719
2976.38093 1.62906
2974.33250 1.61950
2972.28406 1.61035
2970.23562 1.60614
2968.18718 1.60729
2966.13874 1.61219
2964.09030 1.61915
2962.04187 1.63026
2959.99343 1.64617
2957.94499 1.65746
2955.89655 1.66133
2953.84811 1.66745
2951.79967 1.67866
2949.75124 1.68682
2947.70280 1.68215
2945.65436 1.67075
2943.60592 1.66716
2941.55748 1.67076
2939.50904 1.67701
2937.46061 1.68441
2935.41217 1.68759
2933.36373 1.68515
2931.31529 1.68433
2929.26685 1.68820
2927.21841 1.69225
2925.16998 1.69901
2923.12154 1.70939
2921.07310 1.71397
2919.02466 1.71104
2916.97622 1.70677
2914.92778 1.70616
2912.87934 1.71075
2910.83091 1.71564
2908.78247 1.71688
2906.73403 1.71562
2904.68559 1.71520
2902.63715 1.71614
2900.58871 1.71330
2898.54028 1.70885
2896.49184 1.71024
2894.44340 1.71097
2892.39496 1.70384
2890.34652 1.69953
2888.29808 1.70435
2886.24965 1.70822
2884.20121 1.70675
2882.15277 1.70341
2880.10433 1.69826
2878.05589 1.69386
2876.00745 1.69486
2873.95902 1.69940
2871.91058 1.70503
2869.86214 1.71478
2867.81370 1.72447
2865.76526 1.72764
2863.71682 1.72955
2861.66839 1.73283
2859.61995 1.73315
2857.57151 1.73180
2855.52307 1.73212
2853.47463 1.73392
2851.42619 1.73545
2849.37776 1.73410
2847.32932 1.73013
2845.28088 1.72633
2843.23244 1.72540
2841.18400 1.72815
2839.13556 1.73054
2837.08713 1.72887
2835.03869 1.72469
2832.99025 1.72254
2830.94181 1.72237
2828.89337 1.71960
2826.84493 1.71522
2824.79650 1.71355
2822.74806 1.71419
2820.69962 1.71487
2818.65118 1.71333
2816.60274 1.70711
2814.55430 1.69916
2812.50587 1.69475
2810.45743 1.69346
2808.40899 1.69338
2806.36055 1.69516
2804.31211 1.69593
2802.26367 1.69168
2800.21524 1.68614
2798.16680 1.68509
2796.11836 1.68725
2794.06992 1.68752
2792.02148 1.68336
2789.97304 1.67882
2787.92461 1.68075
2785.87617 1.68654
2783.82773 1.68821
2781.77929 1.68472
2779.73085 1.67762
2777.68241 1.66746
2775.63397 1.65995
2773.58554 1.65962
2771.53710 1.66436
2769.48866 1.67085
2767.44022 1.67271
2765.39178 1.67096
2763.34334 1.67077
2761.29491 1.66791
2759.24647 1.66309
2757.19803 1.65952
2755.14959 1.65820
2753.10115 1.66157
2751.05271 1.66472
2749.00428 1.66342
2746.95584 1.66394
2744.90740 1.66868
2742.85896 1.66975
2740.81052 1.66639
2738.76208 1.66500
2736.71365 1.66549
2734.66521 1.66484
2732.61677 1.66379
2730.56833 1.66273
2728.51989 1.66075
2726.47145 1.66190
2724.42302 1.66503
2722.37458 1.66487
2720.32614 1.66540
2718.27770 1.66832
2716.22926 1.66970
2714.18082 1.66850
2712.13239 1.66672
2710.08395 1.66414
2708.03551 1.65998
2705.98707 1.65879
2703.93863 1.66163
2701.89019 1.66485
2699.84176 1.66524
2697.79332 1.66375
2695.74488 1.66381
2693.69644 1.66172
2691.64800 1.65570
2689.59956 1.65181
2687.55113 1.65231
2685.50269 1.65475
2683.45425 1.65749
2681.40581 1.65629
2679.35737 1.65177
2677.30893 1.65127
2675.26050 1.65343
2673.21206 1.65381
2671.16362 1.65155
2669.11518 1.64670
2667.06674 1.64361
2665.01830 1.64340
2662.96987 1.64183
2660.92143 1.64066
2658.87299 1.64211
2656.82455 1.64030
2654.77611 1.63301
2652.72767 1.62843
2650.67924 1.63293
2648.63080 1.63823
2646.58236 1.63420
2644.53392 1.62530
2642.48548 1.61980
2640.43704 1.61881
2638.38860 1.61733
2636.34017 1.61314
2634.29173 1.61068
2632.24329 1.61127
2630.19485 1.61200
2628.14641 1.61037
2626.09797 1.60474
2624.04954 1.59718
2622.00110 1.59402
2619.95266 1.59657
2617.90422 1.59815
2615.85578 1.59825
2613.80734 1.59966
2611.75891 1.59882
2609.71047 1.59405
2607.66203 1.58928
2605.61359 1.58935
2603.56515 1.59038
2601.51671 1.58567
2599.46828 1.57936
2597.41984 1.57621
2595.37140 1.57691
2593.32296 1.57983
2591.27452 1.57756
2589.22608 1.57038
2587.17765 1.56467
2585.12921 1.56182
2583.08077 1.56248
2581.03233 1.56407
2578.98389 1.56359
2576.93545 1.55991
2574.88702 1.55416
2572.83858 1.54998
2570.79014 1.54738
2568.74170 1.54607
2566.69326 1.54708
2564.64482 1.54939
2562.59639 1.55141
2560.54795 1.55411
2558.49951 1.55681
2556.45107 1.55530
2554.40263 1.55096
2552.35419 1.54868
2550.30576 1.54791
2548.25732 1.54560
2546.20888 1.54354
2544.16044 1.54453
2542.11200 1.54698
2540.06356 1.54849
2538.01513 1.54976
2535.96669 1.55172
2533.91825 1.55329
2531.86981 1.55415
2529.82137 1.55422
2527.77293 1.55545
2525.72450 1.56023
2523.67606 1.56456
2521.62762 1.56465
2519.57918 1.56358
2517.53074 1.56425
2515.48230 1.56572
2513.43387 1.56749
2511.38543 1.56979
2509.33699 1.57208
2507.28855 1.57451
2505.24011 1.57622
2503.19167 1.57772
2501.14324 1.57950
2499.09480 1.57843
2497.04636 1.57626
2494.99792 1.57660
2492.94948 1.57911
2490.90104 1.58518
2488.85260 1.59380
2486.80417 1.59933
2484.75573 1.59973
2482.70729 1.59750
2480.65885 1.59556
2478.61041 1.59692
2476.56197 1.60216
2474.51354 1.60630
2472.46510 1.60618
2470.41666 1.60558
2468.36822 1.60523
2466.31978 1.60138
2464.27134 1.59505
2462.22291 1.58985
2460.17447 1.58806
2458.12603 1.59173
2456.07759 1.59854
2454.02915 1.60039
2451.98071 1.59440
2449.93228 1.58788
2447.88384 1.58520
2445.83540 1.58168
2443.78696 1.57703
2441.73852 1.57879
2439.69008 1.58410
2437.64165 1.58354
2435.59321 1.57934
2433.54477 1.57614
2431.49633 1.57381
2429.44789 1.57125
2427.39945 1.56632
2425.35102 1.56018
2423.30258 1.55574
2421.25414 1.55249
2419.20570 1.55097
2417.15726 1.55405
2415.10882 1.55753
2413.06039 1.55316
2411.01195 1.54587
2408.96351 1.54587
2406.91507 1.54731
2404.86663 1.54076
2402.81819 1.53106
2400.76976 1.52642
2398.72132 1.52773
2396.67288 1.53125
2394.62444 1.53273
2392.57600 1.53153
2390.52756 1.53122
2388.47913 1.53137
2386.43069 1.52957
2384.38225 1.52762
2382.33381 1.52454
2380.28537 1.52051
2378.23693 1.52301
2376.18850 1.53543
2374.14006 1.54960
2372.09162 1.55710
2370.04318 1.55936
2367.99474 1.55361
2365.94630 1.53387
2363.89787 1.51603
2361.84943 1.52104
2359.80099 1.53402
2357.75255 1.51607
2355.70411 1.48518
2353.65567 1.48102
2351.60723 1.49386
2349.55880 1.51363
2347.51036 1.53495
2345.46192 1.53781
2343.41348 1.52040
2341.36504 1.51815
2339.31660 1.52807
2337.26817 1.52818
2335.21973 1.51753
2333.17129 1.51027
2331.12285 1.50584
2329.07441 1.49485
2327.02597 1.48909
2324.97754 1.49403
2322.92910 1.49797
2320.88066 1.49789
2318.83222 1.50305
2316.78378 1.51199
2314.73534 1.51318
2312.68691 1.50578
2310.63847 1.49780
2308.59003 1.49752
2306.54159 1.50492
2304.49315 1.51098
2302.44471 1.51220
2300.39628 1.51123
2298.34784 1.51095
2296.29940 1.51186
2294.25096 1.51348
2292.20252 1.51612
2290.15408 1.51829
2288.10565 1.52100
2286.05721 1.52336
2284.00877 1.52288
2281.96033 1.52509
2279.91189 1.53091
2277.86345 1.53200
2275.81502 1.52811
2273.76658 1.52637
2271.71814 1.52815
2269.66970 1.52920
2267.62126 1.52909
2265.57282 1.53087
2263.52439 1.53203
2261.47595 1.52962
2259.42751 1.52775
2257.37907 1.52955
2255.33063 1.53245
2253.28219 1.53235
2251.23376 1.52849
2249.18532 1.52411
2247.13688 1.52097
2245.08844 1.51921
2243.04000 1.51884
2240.99156 1.51906
2238.94313 1.51974
2236.89469 1.52089
2234.84625 1.52246
2232.79781 1.52404
2230.74937 1.52611
2228.70093 1.52790
2226.65250 1.52729
2224.60406 1.52604
2222.55562 1.52531
2220.50718 1.52465
2218.45874 1.52440
2216.41030 1.52273
2214.36186 1.51869
2212.31343 1.51598
2210.26499 1.51784
2208.21655 1.52308
2206.16811 1.52900
2204.11967 1.53346
2202.07123 1.53556
2200.02280 1.53544
2197.97436 1.53577
2195.92592 1.53838
2193.87748 1.53892
2191.82904 1.53599
2189.78060 1.53481
2187.73217 1.53824
2185.68373 1.54296
2183.63529 1.54505
2181.58685 1.54640
2179.53841 1.54864
2177.48997 1.54908
2175.44154 1.54761
2173.39310 1.54906
2171.34466 1.55548
2169.29622 1.56228
2167.24778 1.56414
2165.19934 1.56089
2163.15091 1.55821
2161.10247 1.56119
2159.05403 1.56851
2157.00559 1.57541
2154.95715 1.58020
2152.90871 1.58530
2150.86028 1.58951
2148.81184 1.58997
2146.76340 1.58987
2144.71496 1.58997
2142.66652 1.58823
2140.61808 1.58826
2138.56965 1.59333
2136.52121 1.60066
2134.47277 1.60581
2132.42433 1.60698
2130.37589 1.60367
2128.32745 1.60009
2126.27902 1.60081
2124.23058 1.60288
2122.18214 1.60631
2120.13370 1.61326
2118.08526 1.61726
2116.03682 1.61436
2113.98839 1.60997
2111.93995 1.60767
2109.89151 1.60871
2107.84307 1.61208
2105.79463 1.61302
2103.74619 1.60984
2101.69776 1.60511
2099.64932 1.60335
2097.60088 1.60449
2095.55244 1.60370
2093.50400 1.60170
2091.45556 1.60179
2089.40713 1.60183
2087.35869 1.60106
2085.31025 1.60297
2083.26181 1.60528
2081.21337 1.60293
2079.16493 1.60018
2077.11649 1.60367
2075.06806 1.60790
2073.01962 1.60540
2070.97118 1.60079
2068.92274 1.60038
2066.87430 1.60191
2064.82586 1.59964
2062.77743 1.59404
2060.72899 1.58965
2058.68055 1.58875
2056.63211 1.59065
2054.58367 1.59318
2052.53523 1.59907
2050.48680 1.60606
2048.43836 1.60522
2046.38992 1.60050
2044.34148 1.59947
2042.29304 1.59768
2040.24460 1.59350
2038.19617 1.59383
2036.14773 1.59866
2034.09929 1.60321
2032.05085 1.60568
2030.00241 1.60505
2027.95397 1.60241
2025.90554 1.60286
2023.85710 1.60826
2021.80866 1.61306
2019.76022 1.61545
2017.71178 1.61812
2015.66334 1.62046
2013.61491 1.62276
2011.56647 1.62493
2009.51803 1.62603
2007.46959 1.62710
2005.42115 1.62861
2003.37271 1.63159
2001.32428 1.63695
1999.27584 1.64242
1997.22740 1.64491
1995.17896 1.64506
1993.13052 1.64531
1991.08208 1.64646
1989.03365 1.64991
1986.98521 1.65587
1984.93677 1.66341
1982.88833 1.67072
1980.83989 1.67435
1978.79145 1.67511
1976.74302 1.67746
1974.69458 1.68335
1972.64614 1.69010
1970.59770 1.69389
1968.54926 1.69322
1966.50082 1.69090
1964.45239 1.69469
1962.40395 1.70193
1960.35551 1.70407
1958.30707 1.70328
1956.25863 1.70342
1954.21019 1.70372
1952.16176 1.70337
1950.11332 1.70391
1948.06488 1.70708
1946.01644 1.70916
1943.96800 1.70629
1941.91956 1.69745
1939.87112 1.69015
1937.82269 1.69147
1935.77425 1.69421
1933.72581 1.69142
1931.67737 1.68715
1929.62893 1.68508
1927.58049 1.68204
1925.53206 1.67369
1923.48362 1.66204
1921.43518 1.65625
1919.38674 1.65587
1917.33830 1.65606
1915.28986 1.65846
1913.24143 1.65822
1911.19299 1.65303
1909.14455 1.65035
1907.09611 1.65378
1905.04767 1.65709
1902.99923 1.65856
1900.95080 1.66043
1898.90236 1.66097
1896.85392 1.65930
1894.80548 1.65375
1892.75704 1.64784
1890.70860 1.64564
1888.66017 1.64367
1886.61173 1.64355
1884.56329 1.64634
1882.51485 1.64876
1880.46641 1.64997
1878.41797 1.64974
1876.36954 1.64876
1874.32110 1.64895
1872.27266 1.64905
1870.22422 1.64556
1868.17578 1.63878
1866.12734 1.64244
1864.07891 1.65581
1862.03047 1.66483
1859.98203 1.66877
1857.93359 1.67524
1855.88515 1.68593
1853.83671 1.69718
1851.78828 1.70490
1849.73984 1.71047
1847.69140 1.71705
1845.64296 1.71730
1843.59452 1.71141
1841.54608 1.71897
1839.49765 1.73333
1837.44921 1.74356
1835.40077 1.75064
1833.35233 1.75828
1831.30389 1.76417
1829.25545 1.76550
1827.20702 1.76798
1825.15858 1.77077
1823.11014 1.77809
1821.06170 1.79548
1819.01326 1.81078
1816.96482 1.81606
1814.91639 1.82065
1812.86795 1.82713
1810.81951 1.83034
1808.77107 1.83301
1806.72263 1.83665
1804.67419 1.83965
1802.62575 1.84015
1800.57732 1.84036
1798.52888 1.84730
1796.48044 1.85257
1794.43200 1.85032
1792.38356 1.84595
1790.33512 1.85004
1788.28669 1.86214
1786.23825 1.86544
1784.18981 1.85702
1782.14137 1.84937
1780.09293 1.84530
1778.04449 1.84817
1775.99606 1.85470
1773.94762 1.85027
1771.89918 1.82822
1769.85074 1.81423
1767.80230 1.81619
1765.75386 1.82385
1763.70543 1.82915
1761.65699 1.82391
1759.60855 1.81481
1757.56011 1.80788
1755.51167 1.80044
1753.46323 1.79564
1751.41480 1.79050
1749.36636 1.78638
1747.31792 1.79786
1745.26948 1.82633
1743.22104 1.86632
1741.17260 1.91182
1739.12417 1.96715
1737.07573 2.02313
1735.02729 2.09272
1732.97885 2.19284
1730.93041 2.25558
1728.88197 2.28962
1726.83354 2.30194
1724.78510 2.28344
1722.73666 2.23810
1720.68822 2.18282
1718.63978 2.10343
1716.59134 1.98192
1714.54291 1.90159
1712.49447 1.86577
1710.44603 1.84344
1708.39759 1.82471
1706.34915 1.79991
1704.30071 1.77663
1702.25228 1.76596
1700.20384 1.74840
1698.15540 1.72883
1696.10696 1.73401
1694.05852 1.74335
1692.01008 1.74316
1689.96165 1.73696
1687.91321 1.73030
1685.86477 1.72709
1683.81633 1.73147
1681.76789 1.74069
1679.71945 1.74590
1677.67102 1.74751
1675.62258 1.75095
1673.57414 1.75819
1671.52570 1.75619
1669.47726 1.75546
1667.42882 1.77286
1665.38038 1.78571
1663.33195 1.78566
1661.28351 1.78213
1659.23507 1.78396
1657.18663 1.78315
1655.13819 1.77303
1653.08975 1.76587
1651.04132 1.77636
1648.99288 1.77468
1646.94444 1.76968
1644.89600 1.77470
1642.84756 1.77553
1640.79912 1.77238
1638.75069 1.76635
1636.70225 1.75432
1634.65381 1.75381
1632.60537 1.76214
1630.55693 1.75944
1628.50849 1.74570
1626.46006 1.73235
1624.41162 1.72215
1622.36318 1.70972
1620.31474 1.70309
1618.26630 1.69970
1616.21786 1.69915
1614.16943 1.70342
1612.12099 1.69945
1610.07255 1.68537
1608.02411 1.67483
1605.97567 1.67612
1603.92723 1.67876
1601.87880 1.67644
1599.83036 1.67323
1597.78192 1.66768
1595.73348 1.65842
1593.68504 1.65429
1591.63660 1.65445
1589.58817 1.65297
1587.53973 1.65116
1585.49129 1.64838
1583.44285 1.64672
1581.39441 1.64707
1579.34597 1.64472
1577.29754 1.63735
1575.24910 1.63289
1573.20066 1.63203
1571.15222 1.62537
1569.10378 1.62131
1567.05534 1.62696
1565.00691 1.63268
1562.95847 1.63573
1560.91003 1.63196
1558.86159 1.62366
1556.81315 1.63150
1554.76471 1.64150
1552.71628 1.64880
1550.66784 1.65188
1548.61940 1.65543
1546.57096 1.65594
1544.52252 1.64402
1542.47408 1.62094
1540.42565 1.61119
1538.37721 1.63386
1536.32877 1.64663
1534.28033 1.64870
1532.23189 1.65440
1530.18345 1.66428
1528.13501 1.66964
1526.08658 1.66782
1524.03814 1.65876
1521.98970 1.64934
1519.94126 1.65215
1517.89282 1.66056
1515.84438 1.66736
1513.79595 1.67110
1511.74751 1.66920
1509.69907 1.65341
1507.65063 1.62481
1505.60219 1.64881
1503.55375 1.67878
1501.50532 1.68768
1499.45688 1.68721
1497.40844 1.68828
1495.36000 1.70287
1493.31156 1.71456
1491.26312 1.71806
1489.21469 1.73242
1487.16625 1.76329
1485.11781 1.78318
1483.06937 1.78721
1481.02093 1.78829
1478.97249 1.79513
1476.92406 1.80105
1474.87562 1.80214
1472.82718 1.81620
1470.77874 1.84559
1468.73030 1.85796
1466.68186 1.85439
1464.63343 1.84682
1462.58499 1.84165
1460.53655 1.82864
1458.48811 1.80370
1456.43967 1.80342
1454.39123 1.82971
1452.34280 1.84403
1450.29436 1.84872
1448.24592 1.85015
1446.19748 1.85444
1444.14904 1.85558
1442.10060 1.85173
1440.05217 1.84573
1438.00373 1.83387
1435.95529 1.82394
1433.90685 1.82770
1431.85841 1.82844
1429.80997 1.82212
1427.76154 1.82246
1425.71310 1.83045
1423.66466 1.83753
1421.61622 1.83731
1419.56778 1.83432
1417.51934 1.85023
1415.47091 1.87274
1413.42247 1.88396
1411.37403 1.89298
1409.32559 1.90768
1407.27715 1.92171
1405.22871 1.93015
1403.18028 1.93441
1401.13184 1.93285
1399.08340 1.92590
1397.03496 1.92990
1394.98652 1.95452
1392.93808 1.97664
1390.88965 1.98429
1388.84121 1.98910
1386.79277 2.00151
1384.74433 2.01712
1382.69589 2.02584
1380.64745 2.03203
1378.59901 2.04068
1376.55058 2.04436
1374.50214 2.04548
1372.45370 2.05937
1370.40526 2.07685
1368.35682 2.08194
1366.30838 2.07635
1364.25995 2.07149
1362.21151 2.07201
1360.16307 2.07574
1358.11463 2.07925
1356.06619 2.08028
1354.01775 2.07898
1351.96932 2.07769
1349.92088 2.07781
1347.87244 2.07958
1345.82400 2.08304
1343.77556 2.08842
1341.72712 2.09060
1339.67869 2.08598
1337.63025 2.08235
1335.58181 2.08505
1333.53337 2.09372
1331.48493 2.10564
1329.43649 2.11400
1327.38806 2.11615
1325.33962 2.11976
1323.29118 2.12745
1321.24274 2.13128
1319.19430 2.13362
1317.14586 2.14352
1315.09743 2.15649
1313.04899 2.16714
1311.00055 2.18070
1308.95211 2.19748
1306.90367 2.20955
1304.85523 2.21678
1302.80680 2.22642
1300.75836 2.23794
1298.70992 2.24678
1296.66148 2.25628
1294.61304 2.26999
1292.56460 2.27985
1290.51617 2.28471
1288.46773 2.29629
1286.41929 2.31466
1284.37085 2.33180
1282.32241 2.34516
1280.27397 2.35935
1278.22554 2.37848
1276.17710 2.39938
1274.12866 2.42198
1272.08022 2.44388
1270.03178 2.45284
1267.98334 2.44669
1265.93491 2.43963
1263.88647 2.43520
1261.83803 2.43030
1259.78959 2.43014
1257.74115 2.43021
1255.69271 2.42330
1253.64428 2.41501
1251.59584 2.41268
1249.54740 2.41934
1247.49896 2.43326
1245.45052 2.45036
1243.40208 2.46680
1241.35364 2.47980
1239.30521 2.48447
1237.25677 2.47086
1235.20833 2.44034
1233.15989 2.40780
1231.11145 2.38307
1229.06301 2.36289
1227.01458 2.34034
1224.96614 2.31626
1222.91770 2.29263
1220.86926 2.27014
1218.82082 2.25117
1216.77238 2.23989
1214.72395 2.23624
1212.67551 2.23429
1210.62707 2.23287
1208.57863 2.23524
1206.53019 2.24748
1204.48175 2.26937
1202.43332 2.29482
1200.38488 2.32364
1198.33644 2.35271
1196.28800 2.37990
1194.23956 2.40730
1192.19112 2.43401
1190.14269 2.46296
1188.09425 2.50361
1186.04581 2.55717
1183.99737 2.60891
1181.94893 2.65201
1179.90049 2.68964
1177.85206 2.72177
1175.80362 2.75298
1173.75518 2.78732
1171.70674 2.81755
1169.65830 2.83402
1167.60986 2.84113
1165.56143 2.85315
1163.51299 2.88224
1161.46455 2.92452
1159.41611 2.97182
1157.36767 3.02900
1155.31923 3.08590
1153.27080 3.12830
1151.22236 3.16486
1149.17392 3.20484
1147.12548 3.23740
1145.07704 3.24373
1143.02860 3.22584
1140.98017 3.20201
1138.93173 3.17942
1136.88329 3.15468
1134.83485 3.12911
1132.78641 3.10257
1130.73797 3.07398
1128.68954 3.05693
1126.64110 3.05465
1124.59266 3.04783
1122.54422 3.03755
1120.49578 3.02795
1118.44734 3.00772
1116.39891 2.98346
1114.35047 2.96244
1112.30203 2.94094
1110.25359 2.91670
1108.20515 2.89523
1106.15671 2.87754
1104.10827 2.85333
1102.05984 2.82852
1100.01140 2.81064
1097.96296 2.78842
1095.91452 2.76959
1093.86608 2.77422
1091.81764 2.78376
1089.76921 2.77278
1087.72077 2.75909
1085.67233 2.76633
1083.62389 2.78672
1081.57545 2.80030
1079.52701 2.80391
1077.47858 2.81002
1075.43014 2.82555
1073.38170 2.84904
1071.33326 2.87543
1069.28482 2.89928
1067.23638 2.91667
1065.18795 2.92720
1063.13951 2.94126
1061.09107 2.95743
1059.04263 2.96084
1056.99419 2.95313
1054.94575 2.94850
1052.89732 2.95473
1050.84888 2.96651
1048.80044 2.97359
1046.75200 2.98316
1044.70356 3.00564
1042.65512 3.02990
1040.60669 3.05465
1038.55825 3.07786
1036.50981 3.08318
1034.46137 3.08166
1032.41293 3.09526
1030.36449 3.12026
1028.31606 3.14279
1026.26762 3.15522
1024.21918 3.15723
1022.17074 3.16926
1020.12230 3.20408
1018.07386 3.23199
1016.02543 3.22483
1013.97699 3.20756
1011.92855 3.20106
1009.88011 3.19101
1007.83167 3.17990
1005.78323 3.18668
1003.73480 3.21860
1001.68636 3.26128
999.63792 3.30139
997.58948 3.33187
995.54104 3.34930
993.49260 3.35793
991.44417 3.34470
989.39573 3.30613
987.34729 3.25520
985.29885 3.20302
983.25041 3.17839
981.20197 3.18336
979.15354 3.18147
977.10510 3.17141
975.05666 3.17032
973.00822 3.18053
970.95978 3.20614
968.91134 3.22346
966.86290 3.21681
964.81447 3.21468
962.76603 3.21369
960.71759 3.20568
958.66915 3.20613
956.62071 3.21904
954.57227 3.26472
952.52384 3.33383
950.47540 3.37853
948.42696 3.39566
946.37852 3.40965
944.33008 3.40907
942.28164 3.37125
940.23321 3.29668
938.18477 3.17984
936.13633 3.02487
934.08789 2.85664
932.03945 2.67543
929.99101 2.47225
927.94258 2.26321
925.89414 2.06482
923.84570 1.88837
921.79726 1.73927
919.74882 1.60848
917.70038 1.48634
915.65195 1.37528
913.60351 1.28216
911.55507 1.20370
909.50663 1.13455
907.45819 1.07166
905.40975 1.00944
903.36132 0.94578
901.31288 0.88572
899.26444 0.83118
897.21600 0.78087
895.16756 0.73572
893.11912 0.68988
891.07069 0.63993
889.02225 0.59522
886.97381 0.56223
884.92537 0.53772
882.87693 0.51891
880.82849 0.50652
878.78006 0.50084
876.73162 0.50331
874.68318 0.52378
872.63474 0.57839
870.58630 0.67549
868.53786 0.82037
866.48943 1.02032
864.44099 1.27335
862.39255 1.56731
860.34411 1.87886
858.29567 2.18184
856.24723 2.47137
854.19880 2.75174
852.15036 3.02537
850.10192 3.29475
848.05348 3.54214
846.00504 3.75350
843.95660 3.92803
841.90817 4.06783
839.85973 4.18650
837.81129 4.27309
835.76285 4.28543
833.71441 4.22997
831.66597 4.14923
829.61753 4.05098
827.56910 3.93616
825.52066 3.82392
823.47222 3.74017
821.42378 3.70089
819.37534 3.70440
817.32690 3.73653
815.27847 3.78616
813.23003 3.85512
811.18159 3.93066
809.13315 3.97598
807.08471 3.98724
805.03627 3.99013
802.98784 3.97935
800.93940 3.94921
798.89096 3.91156
796.84252 3.86675
794.79408 3.81335
792.74564 3.75067
790.69721 3.67485
788.64877 3.59999
786.60033 3.54318
784.55189 3.49474
782.50345 3.44513
780.45501 3.39897
778.40658 3.35719
776.35814 3.31564
774.30970 3.29276
772.26126 3.32749
770.21282 3.44627
768.16438 3.68194
766.11595 4.05015
764.06751 4.50952
762.01907 5.03232
759.97063 5.64327
757.92219 6.36762
755.87375 7.17234
753.82532 7.94925
751.77688 8.59958
749.72844 9.14068
747.68000 9.63073
745.63156 10.05316
743.58312 10.41394
741.53469 10.76242
739.48625 11.12504
737.43781 11.45262
735.38937 11.61633
733.34093 11.68952
731.29249 11.84747
729.24406 12.06690
727.19562 12.32908
725.14718 12.57879
723.09874 12.60119
721.05030 12.37319
719.00186 12.12668
716.95343 11.98341
714.90499 11.84792
712.85655 11.76010
710.80811 11.79369
708.75967 11.79556
706.71123 11.75107
704.66280 11.71893
702.61436 11.60045
700.56592 11.48001
698.51748 11.46097
696.46904 11.41223
694.42060 11.36597
692.37216 11.43433
690.32373 11.62337
688.27529 11.84065
686.22685 11.63295
684.17841 10.97351
682.12997 10.35514
680.08153 9.96309
678.03310 9.67576
675.98466 9.42606
673.93622 9.32765
671.88778 9.23430
669.83934 8.78091
667.79090 7.94871
665.74247 7.53876
663.69403 7.43926
661.64559 7.37227
659.59715 7.30300
657.54871 7.18661
655.50027 7.03745
653.45184 7.00852
651.40340 7.06318
649.35496 6.97116
647.30652 6.71141
645.25808 6.36104
643.20964 5.95681
641.16121 5.66382
639.11277 5.59801
637.06433 5.59485
635.01589 5.46394
632.96745 5.32166
630.91901 5.40256
628.87058 5.70975
626.82214 5.84922
624.77370 5.58533
622.72526 5.23782
620.67682 5.05480
618.62838 4.99459
616.57995 4.71959
614.53151 4.28049
612.48307 4.05202
610.43463 4.13228
608.38619 4.41780
606.33775 4.58180
604.28932 4.43691
602.24088 4.32814
600.19244 4.31728
598.14400 4.23587
