3996.50324 0.15568
3994.45480 0.15490
3992.40636 0.15449
3990.35792 0.15524
3988.30948 0.15503
3986.26104 0.15321
3984.21261 0.15154
3982.16417 0.15116
3980.11573 0.15214
3978.06729 0.15360
3976.01885 0.15471
3973.97041 0.15554
3971.92198 0.15527
3969.87354 0.15389
3967.82510 0.15372
3965.77666 0.15417
3963.72822 0.15352
3961.67978 0.15389
3959.63135 0.15597
3957.58291 0.15627
3955.53447 0.15400
3953.48603 0.15054
3951.43759 0.14687
3949.38915 0.14820
3947.34072 0.15509
3945.29228 0.15736
3943.24384 0.15712
3941.19540 0.15942
3939.14696 0.15789
3937.09852 0.15265
3935.05009 0.14748
3933.00165 0.14660
3930.95321 0.15443
3928.90477 0.16011
3926.85633 0.15652
3924.80789 0.15461
3922.75946 0.15662
3920.71102 0.15417
3918.66258 0.15359
3916.61414 0.16023
3914.56570 0.16326
3912.51726 0.15925
3910.46883 0.15566
3908.42039 0.15252
3906.37195 0.14819
3904.32351 0.15094
3902.27507 0.16191
3900.22663 0.17071
3898.17820 0.17419
3896.12976 0.16751
3894.08132 0.15496
3892.03288 0.15407
3889.98444 0.16355
3887.93600 0.15757
3885.88756 0.15098
3883.83913 0.15926
3881.79069 0.16426
3879.74225 0.16964
3877.69381 0.16794
3875.64537 0.15470
3873.59693 0.14694
3871.54850 0.14836
3869.50006 0.16066
3867.45162 0.16816
3865.40318 0.16188
3863.35474 0.16638
3861.30630 0.17330
3859.25787 0.16318
3857.20943 0.14412
3855.16099 0.12959
3853.11255 0.15276
3851.06411 0.18379
3849.01567 0.17795
3846.96724 0.16142
3844.91880 0.14805
3842.87036 0.14278
3840.82192 0.14137
3838.77348 0.14596
3836.72504 0.16007
3834.67661 0.16521
3832.62817 0.16155
3830.57973 0.15681
3828.53129 0.15112
3826.48285 0.14828
3824.43441 0.14417
3822.38598 0.13636
3820.33754 0.14673
3818.28910 0.15695
3816.24066 0.15725
3814.19222 0.16230
3812.14378 0.15723
3810.09535 0.14296
3808.04691 0.13324
3805.99847 0.13833
3803.95003 0.13903
3801.90159 0.14044
3799.85315 0.15645
3797.80472 0.15862
3795.75628 0.15665
3793.70784 0.15460
3791.65940 0.14716
3789.61096 0.14124
3787.56252 0.13814
3785.51409 0.13945
3783.46565 0.14313
3781.41721 0.13972
3779.36877 0.14028
3777.32033 0.14898
3775.27189 0.14763
3773.22346 0.13760
3771.17502 0.13260
3769.12658 0.14004
3767.07814 0.14377
3765.02970 0.14242
3762.98126 0.14101
3760.93283 0.13520
3758.88439 0.13601
3756.83595 0.13989
3754.78751 0.13000
3752.73907 0.11482
3750.69063 0.12566
3748.64219 0.14973
3746.59376 0.14493
3744.54532 0.14803
3742.49688 0.16360
3740.44844 0.15462
3738.40000 0.13409
3736.35156 0.12690
3734.30313 0.14709
3732.25469 0.16293
3730.20625 0.15600
3728.15781 0.14122
3726.10937 0.13420
3724.06093 0.13848
3722.01250 0.14462
3719.96406 0.14761
3717.91562 0.14505
3715.86718 0.13638
3713.81874 0.12492
3711.77030 0.12858
3709.72187 0.15216
3707.67343 0.15802
3705.62499 0.14976
3703.57655 0.14331
3701.52811 0.15008
3699.47967 0.16044
3697.43124 0.16056
3695.38280 0.15334
3693.33436 0.14066
3691.28592 0.13103
3689.23748 0.14571
3687.18904 0.16579
3685.14061 0.16346
3683.09217 0.15315
3681.04373 0.14523
3678.99529 0.13787
3676.94685 0.13213
3674.89841 0.15193
3672.84998 0.16617
3670.80154 0.16249
3668.75310 0.17407
3666.70466 0.17904
3664.65622 0.16929
3662.60778 0.15981
3660.55935 0.15445
3658.51091 0.15091
3656.46247 0.15523
3654.41403 0.16315
3652.36559 0.15769
3650.31715 0.15485
3648.26872 0.18462
3646.22028 0.19468
3644.17184 0.18095
3642.12340 0.16899
3640.07496 0.16453
3638.02652 0.16400
3635.97809 0.16256
3633.92965 0.16012
3631.88121 0.15756
3629.83277 0.16023
3627.78433 0.17811
3625.73589 0.18026
3623.68746 0.16537
3621.63902 0.15099
3619.59058 0.14932
3617.54214 0.15560
3615.49370 0.14964
3613.44526 0.14048
3611.39682 0.13752
3609.34839 0.13652
3607.29995 0.13666
3605.25151 0.13162
3603.20307 0.12094
3601.15463 0.11389
3599.10619 0.11360
3597.05776 0.11279
3595.00932 0.11217
3592.96088 0.11206
3590.91244 0.10450
3588.86400 0.09720
3586.81556 0.10645
3584.76713 0.11175
3582.71869 0.10266
3580.67025 0.09235
3578.62181 0.08470
3576.57337 0.07944
3574.52493 0.07783
3572.47650 0.07759
3570.42806 0.07298
3568.37962 0.06917
3566.33118 0.07956
3564.28274 0.08663
3562.23430 0.07972
3560.18587 0.07302
3558.13743 0.07101
3556.08899 0.06786
3554.04055 0.06308
3551.99211 0.06187
3549.94367 0.06174
3547.89524 0.06152
3545.84680 0.06712
3543.79836 0.07079
3541.74992 0.06747
3539.70148 0.06336
3537.65304 0.06226
3535.60461 0.06467
3533.55617 0.06350
3531.50773 0.05861
3529.45929 0.05841
3527.41085 0.06227
3525.36241 0.06370
3523.31398 0.06557
3521.26554 0.06724
3519.21710 0.06410
3517.16866 0.06074
3515.12022 0.05930
3513.07178 0.05668
3511.02335 0.05619
3508.97491 0.05993
3506.92647 0.05930
3504.87803 0.05290
3502.82959 0.05024
3500.78115 0.05268
3498.73272 0.05373
3496.68428 0.05447
3494.63584 0.05923
3492.58740 0.06448
3490.53896 0.06410
3488.49052 0.05980
3486.44209 0.05597
3484.39365 0.05462
3482.34521 0.05716
3480.29677 0.06044
3478.24833 0.06052
3476.19989 0.05908
3474.15146 0.05675
3472.10302 0.05308
3470.05458 0.05043
3468.00614 0.05269
3465.95770 0.05929
3463.90926 0.06231
3461.86082 0.05948
3459.81239 0.05919
3457.76395 0.06271
3455.71551 0.06396
3453.66707 0.06483
3451.61863 0.06708
3449.57019 0.06753
3447.52176 0.06697
3445.47332 0.06701
3443.42488 0.06834
3441.37644 0.07160
3439.32800 0.07383
3437.27956 0.07383
3435.23113 0.07368
3433.18269 0.07435
3431.13425 0.07658
3429.08581 0.07790
3427.03737 0.07615
3424.98893 0.07303
3422.94050 0.07165
3420.89206 0.07686
3418.84362 0.08292
3416.79518 0.08107
3414.74674 0.07667
3412.69830 0.07461
3410.64987 0.07438
3408.60143 0.07669
3406.55299 0.08090
3404.50455 0.08436
3402.45611 0.08621
3400.40767 0.08789
3398.35924 0.08871
3396.31080 0.08602
3394.26236 0.08212
3392.21392 0.08008
3390.16548 0.07761
3388.11704 0.07658
3386.06861 0.07916
3384.02017 0.07874
3381.97173 0.07334
3379.92329 0.06957
3377.87485 0.06961
3375.82641 0.07058
3373.77798 0.06968
3371.72954 0.06555
3369.68110 0.06136
3367.63266 0.06072
3365.58422 0.06052
3363.53578 0.05864
3361.48735 0.05795
3359.43891 0.05946
3357.39047 0.06165
3355.34203 0.06216
3353.29359 0.06032
3351.24515 0.05957
3349.19672 0.06185
3347.14828 0.06286
3345.09984 0.06040
3343.05140 0.05753
3341.00296 0.05559
3338.95452 0.05513
3336.90609 0.05530
3334.85765 0.05503
3332.80921 0.05616
3330.76077 0.05772
3328.71233 0.05674
3326.66389 0.05351
3324.61545 0.05215
3322.56702 0.05212
3320.51858 0.04913
3318.47014 0.04683
3316.42170 0.04735
3314.37326 0.04689
3312.32482 0.04591
3310.27639 0.04663
3308.22795 0.04825
3306.17951 0.04908
3304.13107 0.04917
3302.08263 0.04878
3300.03419 0.04637
3297.98576 0.04348
3295.93732 0.04477
3293.88888 0.04810
3291.84044 0.04791
3289.79200 0.04726
3287.74356 0.04989
3285.69513 0.05094
3283.64669 0.04926
3281.59825 0.04885
3279.54981 0.04836
3277.50137 0.04710
3275.45293 0.04637
3273.40450 0.04529
3271.35606 0.04433
3269.30762 0.04467
3267.25918 0.04635
3265.21074 0.04744
3263.16230 0.04674
3261.11387 0.04669
3259.06543 0.04773
3257.01699 0.04786
3254.96855 0.04748
3252.92011 0.04664
3250.87167 0.04486
3248.82324 0.04350
3246.77480 0.04324
3244.72636 0.04291
3242.67792 0.04225
3240.62948 0.04347
3238.58104 0.04573
3236.53261 0.04621
3234.48417 0.04603
3232.43573 0.04617
3230.38729 0.04547
3228.33885 0.04402
3226.29041 0.04408
3224.24198 0.04655
3222.19354 0.04935
3220.14510 0.05114
3218.09666 0.05224
3216.04822 0.05176
3213.99978 0.04829
3211.95135 0.04318
3209.90291 0.03968
3207.85447 0.04004
3205.80603 0.04395
3203.75759 0.04846
3201.70915 0.05055
3199.66072 0.05084
3197.61228 0.05112
3195.56384 0.05163
3193.51540 0.05268
3191.46696 0.05235
3189.41852 0.04940
3187.37008 0.04734
3185.32165 0.04796
3183.27321 0.04902
3181.22477 0.05017
3179.17633 0.05230
3177.12789 0.05281
3175.07945 0.05084
3173.03102 0.04921
3170.98258 0.04900
3168.93414 0.05082
3166.88570 0.05479
3164.83726 0.05873
3162.78882 0.06132
3160.74039 0.06278
3158.69195 0.06273
3156.64351 0.06117
3154.59507 0.05952
3152.54663 0.06132
3150.49819 0.06610
3148.44976 0.06776
3146.40132 0.06532
3144.35288 0.06274
3142.30444 0.06221
3140.25600 0.06339
3138.20756 0.06548
3136.15913 0.06740
3134.11069 0.06867
3132.06225 0.06925
3130.01381 0.06867
3127.96537 0.06822
3125.91693 0.06840
3123.86850 0.06926
3121.82006 0.07064
3119.77162 0.07135
3117.72318 0.07231
3115.67474 0.07406
3113.62630 0.07541
3111.57787 0.07527
3109.52943 0.07394
3107.48099 0.07381
3105.43255 0.07587
3103.38411 0.07692
3101.33567 0.07562
3099.28724 0.07495
3097.23880 0.07543
3095.19036 0.07455
3093.14192 0.07281
3091.09348 0.07259
3089.04504 0.07329
3086.99661 0.07371
3084.94817 0.07444
3082.89973 0.07446
3080.85129 0.07235
3078.80285 0.07127
3076.75441 0.07306
3074.70598 0.07458
3072.65754 0.07466
3070.60910 0.07378
3068.56066 0.07225
3066.51222 0.07141
3064.46378 0.07217
3062.41535 0.07422
3060.36691 0.07562
3058.31847 0.07484
3056.27003 0.07425
3054.22159 0.07514
3052.17315 0.07512
3050.12471 0.07387
3048.07628 0.07323
3046.02784 0.07397
3043.97940 0.07438
3041.93096 0.07286
3039.88252 0.07119
3037.83408 0.07222
3035.78565 0.07418
3033.73721 0.07376
3031.68877 0.07319
3029.64033 0.07443
3027.59189 0.07517
3025.54345 0.07611
3023.49502 0.07925
3021.44658 0.08198
3019.39814 0.08396
3017.34970 0.08738
3015.30126 0.09138
3013.25282 0.09578
3011.20439 0.10023
3009.15595 0.10336
3007.10751 0.10673
3005.05907 0.11055
3003.01063 0.11271
3000.96219 0.11299
2998.91376 0.11179
2996.86532 0.11197
2994.81688 0.11762
2992.76844 0.12642
2990.72000 0.13322
2988.67156 0.13749
2986.62313 0.14097
2984.57469 0.14448
2982.52625 0.14941
2980.47781 0.15685
2978.42937 0.16573
2976.38093 0.17714
2974.33250 0.19255
2972.28406 0.20975
2970.23562 0.22696
2968.18718 0.24217
2966.13874 0.25523
2964.09030 0.26894
2962.04187 0.27892
2959.99343 0.27936
2957.94499 0.27482
2955.89655 0.26846
2953.84811 0.25763
2951.79967 0.24356
2949.75124 0.22958
2947.70280 0.21904
2945.65436 0.21450
2943.60592 0.21471
2941.55748 0.21689
2939.50904 0.21849
2937.46061 0.21860
2935.41217 0.21906
2933.36373 0.22087
2931.31529 0.22089
2929.26685 0.21444
2927.21841 0.20430
2925.16998 0.19696
2923.12154 0.19292
2921.07310 0.18910
2919.02466 0.18306
2916.97622 0.17702
2914.92778 0.17323
2912.87934 0.16931
2910.83091 0.16394
2908.78247 0.15820
2906.73403 0.15394
2904.68559 0.15120
2902.63715 0.14893
2900.58871 0.14863
2898.54028 0.14946
2896.49184 0.14878
2894.44340 0.14938
2892.39496 0.15240
2890.34652 0.15259
2888.29808 0.14878
2886.24965 0.14589
2884.20121 0.14622
2882.15277 0.14921
2880.10433 0.15569
2878.05589 0.16452
2876.00745 0.17205
2873.95902 0.17465
2871.91058 0.16887
2869.86214 0.15646
2867.81370 0.14482
2865.76526 0.13713
2863.71682 0.13050
2861.66839 0.12314
2859.61995 0.11592
2857.57151 0.11029
2855.52307 0.10668
2853.47463 0.10500
2851.42619 0.10481
2849.37776 0.10448
2847.32932 0.10288
2845.28088 0.10014
2843.23244 0.09563
2841.18400 0.09037
2839.13556 0.08693
2837.08713 0.08574
2835.03869 0.08544
2832.99025 0.08388
2830.94181 0.08128
2828.89337 0.08042
2826.84493 0.08148
2824.79650 0.08183
2822.74806 0.08070
2820.69962 0.07969
2818.65118 0.07996
2816.60274 0.08097
2814.55430 0.08113
2812.50587 0.08064
2810.45743 0.07974
2808.40899 0.07785
2806.36055 0.07662
2804.31211 0.07683
2802.26367 0.07701
2800.21524 0.07710
2798.16680 0.07768
2796.11836 0.07838
2794.06992 0.07873
2792.02148 0.07910
2789.97304 0.07938
2787.92461 0.07781
2785.87617 0.07560
2783.82773 0.07490
2781.77929 0.07487
2779.73085 0.07614
2777.68241 0.07933
2775.63397 0.08169
2773.58554 0.08170
2771.53710 0.08069
2769.48866 0.07909
2767.44022 0.07663
2765.39178 0.07473
2763.34334 0.07501
2761.29491 0.07563
2759.24647 0.07515
2757.19803 0.07555
2755.14959 0.07637
2753.10115 0.07557
2751.05271 0.07404
2749.00428 0.07383
2746.95584 0.07464
2744.90740 0.07474
2742.85896 0.07430
2740.81052 0.07453
2738.76208 0.07500
2736.71365 0.07550
2734.66521 0.07631
2732.61677 0.07600
2730.56833 0.07396
2728.51989 0.07237
2726.47145 0.07229
2724.42302 0.07252
2722.37458 0.07288
2720.32614 0.07334
2718.27770 0.07282
2716.22926 0.07171
2714.18082 0.07129
2712.13239 0.07102
2710.08395 0.07063
2708.03551 0.07043
2705.98707 0.06932
2703.93863 0.06796
2701.89019 0.06788
2699.84176 0.06894
2697.79332 0.06974
2695.74488 0.06941
2693.69644 0.06940
2691.64800 0.07000
2689.59956 0.07030
2687.55113 0.07083
2685.50269 0.07065
2683.45425 0.06937
2681.40581 0.06930
2679.35737 0.06946
2677.30893 0.06765
2675.26050 0.06572
2673.21206 0.06595
2671.16362 0.06797
2669.11518 0.07030
2667.06674 0.07149
2665.01830 0.07168
2662.96987 0.07221
2660.92143 0.07224
2658.87299 0.07123
2656.82455 0.07072
2654.77611 0.07121
2652.72767 0.07209
2650.67924 0.07272
2648.63080 0.07286
2646.58236 0.07324
2644.53392 0.07381
2642.48548 0.07401
2640.43704 0.07468
2638.38860 0.07610
2636.34017 0.07718
2634.29173 0.07701
2632.24329 0.07620
2630.19485 0.07555
2628.14641 0.07554
2626.09797 0.07743
2624.04954 0.07986
2622.00110 0.08000
2619.95266 0.07824
2617.90422 0.07722
2615.85578 0.07750
2613.80734 0.07775
2611.75891 0.07765
2609.71047 0.07859
2607.66203 0.08055
2605.61359 0.08085
2603.56515 0.07955
2601.51671 0.07913
2599.46828 0.07988
2597.41984 0.08124
2595.37140 0.08236
2593.32296 0.08188
2591.27452 0.08197
2589.22608 0.08448
2587.17765 0.08632
2585.12921 0.08628
2583.08077 0.08607
2581.03233 0.08652
2578.98389 0.08664
2576.93545 0.08577
2574.88702 0.08566
2572.83858 0.08702
2570.79014 0.08855
2568.74170 0.08939
2566.69326 0.08938
2564.64482 0.08874
2562.59639 0.08840
2560.54795 0.08902
2558.49951 0.09019
2556.45107 0.09078
2554.40263 0.09016
2552.35419 0.08941
2550.30576 0.08992
2548.25732 0.09144
2546.20888 0.09166
2544.16044 0.09011
2542.11200 0.08896
2540.06356 0.08901
2538.01513 0.08923
2535.96669 0.08870
2533.91825 0.08787
2531.86981 0.08766
2529.82137 0.08749
2527.77293 0.08686
2525.72450 0.08716
2523.67606 0.08822
2521.62762 0.08792
2519.57918 0.08723
2517.53074 0.08736
2515.48230 0.08683
2513.43387 0.08586
2511.38543 0.08576
2509.33699 0.08616
2507.28855 0.08604
2505.24011 0.08499
2503.19167 0.08372
2501.14324 0.08381
2499.09480 0.08547
2497.04636 0.08628
2494.99792 0.08465
2492.94948 0.08239
2490.90104 0.08133
2488.85260 0.08106
2486.80417 0.08114
2484.75573 0.08120
2482.70729 0.08096
2480.65885 0.08075
2478.61041 0.08011
2476.56197 0.07953
2474.51354 0.08046
2472.46510 0.08218
2470.41666 0.08238
2468.36822 0.08106
2466.31978 0.08100
2464.27134 0.08325
2462.22291 0.08557
2460.17447 0.08572
2458.12603 0.08379
2456.07759 0.08230
2454.02915 0.08336
2451.98071 0.08605
2449.93228 0.08785
2447.88384 0.08840
2445.83540 0.08967
2443.78696 0.09127
2441.73852 0.09070
2439.69008 0.08916
2437.64165 0.08963
2435.59321 0.09175
2433.54477 0.09360
2431.49633 0.09430
2429.44789 0.09440
2427.39945 0.09524
2425.35102 0.09733
2423.30258 0.09928
2421.25414 0.09987
2419.20570 0.09982
2417.15726 0.09987
2415.10882 0.10052
2413.06039 0.10232
2411.01195 0.10418
2408.96351 0.10439
2406.91507 0.10362
2404.86663 0.10435
2402.81819 0.10666
2400.76976 0.10842
2398.72132 0.10904
2396.67288 0.10924
2394.62444 0.10957
2392.57600 0.11057
2390.52756 0.11090
2388.47913 0.10967
2386.43069 0.10895
2384.38225 0.10957
2382.33381 0.11018
2380.28537 0.11028
2378.23693 0.10975
2376.18850 0.10806
2374.14006 0.10573
2372.09162 0.10288
2370.04318 0.10060
2367.99474 0.10313
2365.94630 0.10901
2363.89787 0.11479
2361.84943 0.12080
2359.80099 0.12412
2357.75255 0.13126
2355.70411 0.13922
2353.65567 0.13647
2351.60723 0.13212
2349.55880 0.12789
2347.51036 0.12131
2345.46192 0.11795
2343.41348 0.11796
2341.36504 0.11493
2339.31660 0.11885
2337.26817 0.13241
2335.21973 0.14120
2333.17129 0.13816
2331.12285 0.13346
2329.07441 0.13572
2327.02597 0.13888
2324.97754 0.13669
2322.92910 0.13283
2320.88066 0.13251
2318.83222 0.13351
2316.78378 0.13285
2314.73534 0.13200
2312.68691 0.13182
2310.63847 0.13240
2308.59003 0.13267
2306.54159 0.13049
2304.49315 0.12702
2302.44471 0.12509
2300.39628 0.12525
2298.34784 0.12582
2296.29940 0.12575
2294.25096 0.12535
2292.20252 0.12498
2290.15408 0.12478
2288.10565 0.12419
2286.05721 0.12326
2284.00877 0.12287
2281.96033 0.12253
2279.91189 0.12126
2277.86345 0.11993
2275.81502 0.11981
2273.76658 0.12008
2271.71814 0.11945
2269.66970 0.11917
2267.62126 0.11986
2265.57282 0.11987
2263.52439 0.11907
2261.47595 0.11842
2259.42751 0.11791
2257.37907 0.11672
2255.33063 0.11509
2253.28219 0.11439
2251.23376 0.11470
2249.18532 0.11520
2247.13688 0.11569
2245.08844 0.11576
2243.04000 0.11533
2240.99156 0.11493
2238.94313 0.11480
2236.89469 0.11446
2234.84625 0.11379
2232.79781 0.11361
2230.74937 0.11264
2228.70093 0.11015
2226.65250 0.10856
2224.60406 0.10888
2222.55562 0.10996
2220.50718 0.11041
2218.45874 0.10992
2216.41030 0.10947
2214.36186 0.10995
2212.31343 0.10980
2210.26499 0.10795
2208.21655 0.10655
2206.16811 0.10594
2204.11967 0.10516
2202.07123 0.10504
2200.02280 0.10495
2197.97436 0.10348
2195.92592 0.10172
2193.87748 0.10142
2191.82904 0.10253
2189.78060 0.10358
2187.73217 0.10303
2185.68373 0.10167
2183.63529 0.10122
2181.58685 0.10047
2179.53841 0.09836
2177.48997 0.09675
2175.44154 0.09652
2173.39310 0.09621
2171.34466 0.09478
2169.29622 0.09283
2167.24778 0.09189
2165.19934 0.09262
2163.15091 0.09314
2161.10247 0.09172
2159.05403 0.08921
2157.00559 0.08681
2154.95715 0.08534
2152.90871 0.08432
2150.86028 0.08357
2148.81184 0.08386
2146.76340 0.08332
2144.71496 0.08113
2142.66652 0.07951
2140.61808 0.07904
2138.56965 0.07816
2136.52121 0.07602
2134.47277 0.07437
2132.42433 0.07422
2130.37589 0.07432
2128.32745 0.07402
2126.27902 0.07374
2124.23058 0.07409
2122.18214 0.07384
2120.13370 0.07183
2118.08526 0.07041
2116.03682 0.07178
2113.98839 0.07426
2111.93995 0.07494
2109.89151 0.07313
2107.84307 0.07082
2105.79463 0.07034
2103.74619 0.07149
2101.69776 0.07239
2099.64932 0.07281
2097.60088 0.07350
2095.55244 0.07396
2093.50400 0.07396
2091.45556 0.07401
2089.40713 0.07427
2087.35869 0.07531
2085.31025 0.07648
2083.26181 0.07675
2081.21337 0.07728
2079.16493 0.07799
2077.11649 0.07732
2075.06806 0.07700
2073.01962 0.07853
2070.97118 0.07974
2068.92274 0.07930
2066.87430 0.07871
2064.82586 0.07970
2062.77743 0.08141
2060.72899 0.08249
2058.68055 0.08323
2056.63211 0.08413
2054.58367 0.08460
2052.53523 0.08356
2050.48680 0.08246
2048.43836 0.08359
2046.38992 0.08549
2044.34148 0.08628
2042.29304 0.08740
2040.24460 0.08869
2038.19617 0.08815
2036.14773 0.08721
2034.09929 0.08817
2032.05085 0.09010
2030.00241 0.09136
2027.95397 0.09227
2025.90554 0.09240
2023.85710 0.09143
2021.80866 0.09123
2019.76022 0.09208
2017.71178 0.09317
2015.66334 0.09411
2013.61491 0.09450
2011.56647 0.09539
2009.51803 0.09668
2007.46959 0.09715
2005.42115 0.09718
2003.37271 0.09691
2001.32428 0.09684
1999.27584 0.09813
1997.22740 0.09974
1995.17896 0.10005
1993.13052 0.10044
1991.08208 0.10274
1989.03365 0.10420
1986.98521 0.10262
1984.93677 0.10027
1982.88833 0.09894
1980.83989 0.09839
1978.79145 0.09854
1976.74302 0.09881
1974.69458 0.09831
1972.64614 0.09759
1970.59770 0.09663
1968.54926 0.09583
1966.50082 0.09655
1964.45239 0.09687
1962.40395 0.09619
1960.35551 0.09745
1958.30707 0.10001
1956.25863 0.10138
1954.21019 0.10136
1952.16176 0.10084
1950.11332 0.10083
1948.06488 0.10145
1946.01644 0.10282
1943.96800 0.10551
1941.91956 0.11069
1939.87112 0.11604
1937.82269 0.11787
1935.77425 0.11801
1933.72581 0.12017
1931.67737 0.12430
1929.62893 0.12754
1927.58049 0.12983
1925.53206 0.13334
1923.48362 0.13901
1921.43518 0.14346
1919.38674 0.14474
1917.33830 0.14663
1915.28986 0.14837
1913.24143 0.14876
1911.19299 0.14891
1909.14455 0.14863
1907.09611 0.14844
1905.04767 0.14855
1902.99923 0.14872
1900.95080 0.14895
1898.90236 0.14908
1896.85392 0.15012
1894.80548 0.15387
1892.75704 0.15653
1890.70860 0.15562
1888.66017 0.15571
1886.61173 0.15712
1884.56329 0.15794
1882.51485 0.15884
1880.46641 0.15950
1878.41797 0.15969
1876.36954 0.15992
1874.32110 0.15971
1872.27266 0.15905
1870.22422 0.16084
1868.17578 0.16654
1866.12734 0.16865
1864.07891 0.16512
1862.03047 0.16092
1859.98203 0.15790
1857.93359 0.15485
1855.88515 0.15131
1853.83671 0.14802
1851.78828 0.14521
1849.73984 0.14275
1847.69140 0.13976
1845.64296 0.13799
1843.59452 0.14096
1841.54608 0.14154
1839.49765 0.13796
1837.44921 0.13568
1835.40077 0.13423
1833.35233 0.13144
1831.30389 0.13080
1829.25545 0.13452
1827.20702 0.13530
1825.15858 0.13401
1823.11014 0.13302
1821.06170 0.12838
1819.01326 0.12368
1816.96482 0.12338
1814.91639 0.12422
1812.86795 0.12428
1810.81951 0.12707
1808.77107 0.13087
1806.72263 0.13167
1804.67419 0.13073
1802.62575 0.13033
1800.57732 0.13286
1798.52888 0.13575
1796.48044 0.13619
1794.43200 0.13654
1792.38356 0.14070
1790.33512 0.14650
1788.28669 0.14784
1786.23825 0.14951
1784.18981 0.15442
1782.14137 0.15883
1780.09293 0.16275
1778.04449 0.16518
1775.99606 0.16496
1773.94762 0.16819
1771.89918 0.18194
1769.85074 0.19509
1767.80230 0.20156
1765.75386 0.20586
1763.70543 0.20959
1761.65699 0.21826
1759.60855 0.22841
1757.56011 0.23781
1755.51167 0.24935
1753.46323 0.25928
1751.41480 0.27518
1749.36636 0.30324
1747.31792 0.33013
1745.26948 0.35515
1743.22104 0.38739
1741.17260 0.43280
1739.12417 0.48919
1737.07573 0.53004
1735.02729 0.56438
1732.97885 0.62367
1730.93041 0.65955
1728.88197 0.66828
1726.83354 0.66928
1724.78510 0.66339
1722.73666 0.65056
1720.68822 0.63454
1718.63978 0.61731
1716.59134 0.60216
1714.54291 0.59270
1712.49447 0.58863
1710.44603 0.58721
1708.39759 0.58916
1706.34915 0.60414
1704.30071 0.63034
1702.25228 0.64896
1700.20384 0.67082
1698.15540 0.71249
1696.10696 0.76126
1694.05852 0.79556
1692.01008 0.81006
1689.96165 0.82748
1687.91321 0.84685
1685.86477 0.85753
1683.81633 0.90008
1681.76789 0.96625
1679.71945 0.98794
1677.67102 0.98791
1675.62258 0.99934
1673.57414 1.01870
1671.52570 1.03744
1669.47726 1.09116
1667.42882 1.13274
1665.38038 1.12426
1663.33195 1.11934
1661.28351 1.13556
1659.23507 1.14617
1657.18663 1.14693
1655.13819 1.14295
1653.08975 1.12957
1651.04132 1.12465
1648.99288 1.12990
1646.94444 1.16318
1644.89600 1.20569
1642.84756 1.20596
1640.79912 1.19163
1638.75069 1.17486
1636.70225 1.17727
1634.65381 1.19231
1632.60537 1.17512
1630.55693 1.16662
1628.50849 1.17060
1626.46006 1.16443
1624.41162 1.16217
1622.36318 1.18074
1620.31474 1.18646
1618.26630 1.17406
1616.21786 1.18152
1614.16943 1.21217
1612.12099 1.22284
1610.07255 1.21307
1608.02411 1.20583
1605.97567 1.21315
1603.92723 1.22348
1601.87880 1.21951
1599.83036 1.20012
1597.78192 1.18885
1595.73348 1.19898
1593.68504 1.21706
1591.63660 1.22947
1589.58817 1.22759
1587.53973 1.21418
1585.49129 1.20803
1583.44285 1.20708
1581.39441 1.20092
1579.34597 1.19002
1577.29754 1.18752
1575.24910 1.21396
1573.20066 1.22450
1571.15222 1.21236
1569.10378 1.21568
1567.05534 1.22839
1565.00691 1.21858
1562.95847 1.20114
1560.91003 1.19925
1558.86159 1.21564
1556.81315 1.21724
1554.76471 1.21367
1552.71628 1.19897
1550.66784 1.18136
1548.61940 1.17872
1546.57096 1.18829
1544.52252 1.21925
1542.47408 1.26859
1540.42565 1.24946
1538.37721 1.19371
1536.32877 1.17515
1534.28033 1.15896
1532.23189 1.12703
1530.18345 1.10062
1528.13501 1.09405
1526.08658 1.10547
1524.03814 1.11457
1521.98970 1.12227
1519.94126 1.13331
1517.89282 1.11751
1515.84438 1.10057
1513.79595 1.10699
1511.74751 1.11856
1509.69907 1.11651
1507.65063 1.09530
1505.60219 1.09330
1503.55375 1.09907
1501.50532 1.09833
1499.45688 1.09914
1497.40844 1.11014
1495.36000 1.12181
1493.31156 1.11741
1491.26312 1.11011
1489.21469 1.10230
1487.16625 1.08087
1485.11781 1.07115
1483.06937 1.07950
1481.02093 1.08456
1478.97249 1.07513
1476.92406 1.06939
1474.87562 1.08398
1472.82718 1.09957
1470.77874 1.08677
1468.73030 1.06871
1466.68186 1.05336
1464.63343 1.04280
1462.58499 1.02982
1460.53655 1.01210
1458.48811 1.00639
1456.43967 1.01524
1454.39123 1.00246
1452.34280 0.98438
1450.29436 0.96779
1448.24592 0.94874
1446.19748 0.92521
1444.14904 0.89986
1442.10060 0.87906
1440.05217 0.86576
1438.00373 0.85067
1435.95529 0.82523
1433.90685 0.80009
1431.85841 0.77971
1429.80997 0.76372
1427.76154 0.74996
1425.71310 0.73249
1423.66466 0.71167
1421.61622 0.69619
1419.56778 0.68208
1417.51934 0.65776
1415.47091 0.63657
1413.42247 0.62030
1411.37403 0.60367
1409.32559 0.58873
1407.27715 0.57837
1405.22871 0.56781
1403.18028 0.55104
1401.13184 0.53494
1399.08340 0.52642
1397.03496 0.52132
1394.98652 0.51198
1392.93808 0.50065
1390.88965 0.49020
1388.84121 0.47822
1386.79277 0.46393
1384.74433 0.45037
1382.69589 0.43800
1380.64745 0.42617
1378.59901 0.41382
1376.55058 0.40164
1374.50214 0.39130
1372.45370 0.38292
1370.40526 0.37596
1368.35682 0.36817
1366.30838 0.35787
1364.25995 0.34618
1362.21151 0.33420
1360.16307 0.32220
1358.11463 0.31115
1356.06619 0.30213
1354.01775 0.29549
1351.96932 0.28995
1349.92088 0.28481
1347.87244 0.28144
1345.82400 0.27916
1343.77556 0.27465
1341.72712 0.26816
1339.67869 0.26400
1337.63025 0.26171
1335.58181 0.25580
1333.53337 0.24759
1331.48493 0.24137
1329.43649 0.23786
1327.38806 0.23649
1325.33962 0.23487
1323.29118 0.23077
1321.24274 0.22740
1319.19430 0.22688
1317.14586 0.22556
1315.09743 0.22185
1313.04899 0.21840
1311.00055 0.21505
1308.95211 0.21114
1306.90367 0.20741
1304.85523 0.20354
1302.80680 0.19967
1300.75836 0.19623
1298.70992 0.19368
1296.66148 0.19260
1294.61304 0.19160
1292.56460 0.18971
1290.51617 0.18829
1288.46773 0.18797
1286.41929 0.18887
1284.37085 0.19035
1282.32241 0.19252
1280.27397 0.19662
1278.22554 0.20231
1276.17710 0.20914
1274.12866 0.21619
1272.08022 0.22186
1270.03178 0.22609
1267.98334 0.22902
1265.93491 0.22859
1263.88647 0.22498
1261.83803 0.22093
1259.78959 0.21854
1257.74115 0.22060
1255.69271 0.22691
1253.64428 0.23444
1251.59584 0.24293
1249.54740 0.25335
1247.49896 0.26477
1245.45052 0.27807
1243.40208 0.29347
1241.35364 0.30543
1239.30521 0.31168
1237.25677 0.31512
1235.20833 0.31552
1233.15989 0.31363
1231.11145 0.31300
1229.06301 0.31556
1227.01458 0.32208
1224.96614 0.33128
1222.91770 0.34120
1220.86926 0.35143
1218.82082 0.36308
1216.77238 0.37806
1214.72395 0.39551
1212.67551 0.41335
1210.62707 0.43180
1208.57863 0.45254
1206.53019 0.47751
1204.48175 0.50705
1202.43332 0.53922
1200.38488 0.57224
1198.33644 0.60455
1196.28800 0.63491
1194.23956 0.66321
1192.19112 0.68901
1190.14269 0.71336
1188.09425 0.73829
1186.04581 0.76274
1183.99737 0.78552
1181.94893 0.80799
1179.90049 0.82823
1177.85206 0.84503
1175.80362 0.86098
1173.75518 0.87374
1171.70674 0.88243
1169.65830 0.89496
1167.60986 0.91346
1165.56143 0.92400
1163.51299 0.92048
1161.46455 0.91299
1159.41611 0.91025
1157.36767 0.91789
1155.31923 0.93137
1153.27080 0.94087
1151.22236 0.94131
1149.17392 0.93242
1147.12548 0.93117
1145.07704 0.94695
1143.02860 0.95895
1140.98017 0.96072
1138.93173 0.96409
1136.88329 0.97310
1134.83485 0.99045
1132.78641 1.00553
1130.73797 1.00383
1128.68954 0.99035
1126.64110 0.97533
1124.59266 0.96457
1122.54422 0.96256
1120.49578 0.97096
1118.44734 0.98844
1116.39891 1.00017
1114.35047 1.00273
1112.30203 1.00802
1110.25359 1.00470
1108.20515 0.99530
1106.15671 0.99494
1104.10827 1.00659
1102.05984 1.02237
1100.01140 1.01832
1097.96296 1.00311
1095.91452 1.00213
1093.86608 1.00505
1091.81764 1.00119
1089.76921 0.99904
1087.72077 1.00314
1085.67233 1.00986
1083.62389 1.00603
1081.57545 0.99861
1079.52701 1.00530
1077.47858 1.01045
1075.43014 1.00206
1073.38170 0.98436
1071.33326 0.96703
1069.28482 0.96854
1067.23638 0.97790
1065.18795 0.97874
1063.13951 0.98205
1061.09107 0.98059
1059.04263 0.96609
1056.99419 0.95436
1054.94575 0.94583
1052.89732 0.93868
1050.84888 0.94281
1048.80044 0.95027
1046.75200 0.94669
1044.70356 0.93658
1042.65512 0.93714
1040.60669 0.95654
1038.55825 0.97289
1036.50981 0.96567
1034.46137 0.94908
1032.41293 0.93586
1030.36449 0.91950
1028.31606 0.89821
1026.26762 0.88830
1024.21918 0.88516
1022.17074 0.87109
1020.12230 0.87196
1018.07386 0.89426
1016.02543 0.89782
1013.97699 0.88167
1011.92855 0.86456
1009.88011 0.85622
1007.83167 0.87537
1005.78323 0.90974
1003.73480 0.92109
1001.68636 0.91630
999.63792 0.91490
997.58948 0.90908
995.54104 0.89543
993.49260 0.87668
991.44417 0.86731
989.39573 0.87839
987.34729 0.89382
985.29885 0.90106
983.25041 0.89848
981.20197 0.87961
979.15354 0.86142
977.10510 0.86254
975.05666 0.87630
973.00822 0.88406
970.95978 0.87247
968.91134 0.87134
966.86290 0.90548
964.81447 0.94049
962.76603 0.92874
960.71759 0.88424
958.66915 0.86469
956.62071 0.88193
954.57227 0.89891
952.52384 0.90248
950.47540 0.89389
948.42696 0.85997
946.37852 0.82759
944.33008 0.83180
942.28164 0.86172
940.23321 0.88547
938.18477 0.89430
936.13633 0.90506
934.08789 0.92060
932.03945 0.93986
929.99101 0.97917
927.94258 1.03199
925.89414 1.05849
923.84570 1.04901
921.79726 1.05018
919.74882 1.07859
917.70038 1.10189
915.65195 1.11386
913.60351 1.13050
911.55507 1.15350
909.50663 1.17711
907.45819 1.19697
905.40975 1.22440
903.36132 1.25656
901.31288 1.26965
899.26444 1.26418
897.21600 1.24974
895.16756 1.23387
893.11912 1.23455
891.07069 1.24939
889.02225 1.24633
886.97381 1.22051
884.92537 1.20422
882.87693 1.20549
880.82849 1.20046
878.78006 1.17633
876.73162 1.12921
874.68318 1.07412
872.63474 1.04386
870.58630 1.03339
868.53786 1.02587
866.48943 1.01535
864.44099 0.97849
862.39255 0.92218
860.34411 0.87440
858.29567 0.83765
856.24723 0.81213
854.19880 0.79674
852.15036 0.77498
850.10192 0.74428
848.05348 0.72715
846.00504 0.72764
843.95660 0.72747
841.90817 0.72040
839.85973 0.71687
837.81129 0.72569
835.76285 0.74077
833.71441 0.75462
831.66597 0.76924
829.61753 0.79163
827.56910 0.82174
825.52066 0.84716
823.47222 0.86111
821.42378 0.86373
819.37534 0.86667
817.32690 0.88390
815.27847 0.90473
813.23003 0.91485
811.18159 0.92098
809.13315 0.93044
807.08471 0.93898
805.03627 0.94342
802.98784 0.94835
800.93940 0.95442
798.89096 0.95881
796.84252 0.97034
794.79408 0.99229
792.74564 1.00499
790.69721 0.99220
788.64877 0.97012
786.60033 0.95808
784.55189 0.95882
782.50345 0.96721
780.45501 0.96520
778.40658 0.94849
776.35814 0.94363
774.30970 0.96254
772.26126 0.98868
770.21282 0.99518
768.16438 0.95207
766.11595 0.88638
764.06751 0.85047
762.01907 0.84426
759.97063 0.84315
757.92219 0.81918
755.87375 0.77416
753.82532 0.74603
751.77688 0.73850
749.72844 0.73016
747.68000 0.71433
745.63156 0.69325
743.58312 0.67651
741.53469 0.67101
739.48625 0.67288
737.43781 0.68074
735.38937 0.69237
733.34093 0.68990
731.29249 0.67236
729.24406 0.65418
727.19562 0.63209
725.14718 0.60742
723.09874 0.59453
721.05030 0.59926
719.00186 0.61331
716.95343 0.63578
714.90499 0.66494
712.85655 0.67804
710.80811 0.67580
708.75967 0.69271
706.71123 0.71286
704.66280 0.67812
702.61436 0.63409
700.56592 0.62872
698.51748 0.63013
696.46904 0.62126
694.42060 0.61363
692.37216 0.60953
690.32373 0.59250
688.27529 0.57339
686.22685 0.59714
684.17841 0.62319
682.12997 0.60739
680.08153 0.60647
678.03310 0.64134
675.98466 0.67354
673.93622 0.66726
671.88778 0.66282
669.83934 0.71386
667.79090 0.78541
665.74247 0.80206
663.69403 0.81924
661.64559 0.84064
659.59715 0.83171
657.54871 0.79032
655.50027 0.72614
653.45184 0.68251
651.40340 0.69522
649.35496 0.71581
647.30652 0.71554
645.25808 0.74229
643.20964 0.80990
641.16121 0.87218
639.11277 0.84847
637.06433 0.78346
635.01589 0.78389
632.96745 0.84749
630.91901 0.87722
628.87058 0.83145
626.82214 0.81942
624.77370 0.84994
622.72526 0.82402
620.67682 0.81407
618.62838 0.93727
616.57995 1.26520
614.53151 1.45060
612.48307 1.16073
610.43463 0.92052
608.38619 0.82108
606.33775 0.84396
604.28932 0.97688
602.24088 1.30898
600.19244 1.45859
598.14400 1.00273
