3996.50324 0.25908
3994.45480 0.26020
3992.40636 0.26126
3990.35792 0.26068
3988.30948 0.25965
3986.26104 0.25865
3984.21261 0.25748
3982.16417 0.25678
3980.11573 0.25692
3978.06729 0.25788
3976.01885 0.25870
3973.97041 0.25799
3971.92198 0.25642
3969.87354 0.25607
3967.82510 0.25748
3965.77666 0.25916
3963.72822 0.25988
3961.67978 0.26019
3959.63135 0.26113
3957.58291 0.26078
3955.53447 0.25730
3953.48603 0.25350
3951.43759 0.25184
3949.38915 0.25373
3947.34072 0.25781
3945.29228 0.25833
3943.24384 0.25771
3941.19540 0.25908
3939.14696 0.25872
3937.09852 0.25739
3935.05009 0.25712
3933.00165 0.25942
3930.95321 0.26436
3928.90477 0.26381
3926.85633 0.25823
3924.80789 0.25743
3922.75946 0.26125
3920.71102 0.26214
3918.66258 0.26148
3916.61414 0.26197
3914.56570 0.26315
3912.51726 0.26499
3910.46883 0.26623
3908.42039 0.26529
3906.37195 0.26351
3904.32351 0.26394
3902.27507 0.26669
3900.22663 0.26987
3898.17820 0.27247
3896.12976 0.27175
3894.08132 0.26886
3892.03288 0.26709
3889.98444 0.26411
3887.93600 0.25762
3885.88756 0.25598
3883.83913 0.26260
3881.79069 0.26707
3879.74225 0.26846
3877.69381 0.26587
3875.64537 0.26092
3873.59693 0.25652
3871.54850 0.25343
3869.50006 0.25929
3867.45162 0.26600
3865.40318 0.26529
3863.35474 0.26709
3861.30630 0.27009
3859.25787 0.26856
3857.20943 0.26437
3855.16099 0.26153
3853.11255 0.27032
3851.06411 0.27708
3849.01567 0.27291
3846.96724 0.26620
3844.91880 0.26003
3842.87036 0.25774
3840.82192 0.25896
3838.77348 0.26335
3836.72504 0.26905
3834.67661 0.26886
3832.62817 0.26581
3830.57973 0.26300
3828.53129 0.26073
3826.48285 0.26104
3824.43441 0.26214
3822.38598 0.26443
3820.33754 0.27208
3818.28910 0.27457
3816.24066 0.27374
3814.19222 0.27165
3812.14378 0.26613
3810.09535 0.26131
3808.04691 0.26047
3805.99847 0.26332
3803.95003 0.26418
3801.90159 0.26460
3799.85315 0.26517
3797.80472 0.26384
3795.75628 0.26375
3793.70784 0.26263
3791.65940 0.26019
3789.61096 0.25923
3787.56252 0.25909
3785.51409 0.25911
3783.46565 0.25980
3781.41721 0.26053
3779.36877 0.26218
3777.32033 0.26398
3775.27189 0.26460
3773.22346 0.26450
3771.17502 0.26461
3769.12658 0.26558
3767.07814 0.26654
3765.02970 0.26932
3762.98126 0.27034
3760.93283 0.26725
3758.88439 0.26590
3756.83595 0.26552
3754.78751 0.26160
3752.73907 0.25867
3750.69063 0.26859
3748.64219 0.27934
3746.59376 0.27469
3744.54532 0.27008
3742.49688 0.27487
3740.44844 0.27846
3738.40000 0.27761
3736.35156 0.27689
3734.30313 0.28379
3732.25469 0.28945
3730.20625 0.28695
3728.15781 0.28309
3726.10937 0.28279
3724.06093 0.28197
3722.01250 0.27971
3719.96406 0.28228
3717.91562 0.28472
3715.86718 0.28285
3713.81874 0.28092
3711.77030 0.28326
3709.72187 0.28730
3707.67343 0.28988
3705.62499 0.29213
3703.57655 0.29474
3701.52811 0.30072
3699.47967 0.30756
3697.43124 0.31137
3695.38280 0.31274
3693.33436 0.31028
3691.28592 0.30641
3689.23748 0.30942
3687.18904 0.31370
3685.14061 0.31206
3683.09217 0.31019
3681.04373 0.31273
3678.99529 0.31829
3676.94685 0.32414
3674.89841 0.33150
3672.84998 0.33205
3670.80154 0.33057
3668.75310 0.33351
3666.70466 0.33454
3664.65622 0.33342
3662.60778 0.33388
3660.55935 0.33714
3658.51091 0.34000
3656.46247 0.34260
3654.41403 0.34590
3652.36559 0.34821
3650.31715 0.35462
3648.26872 0.36250
3646.22028 0.35982
3644.17184 0.35520
3642.12340 0.35048
3640.07496 0.34726
3638.02652 0.34814
3635.97809 0.35109
3633.92965 0.35307
3631.88121 0.35442
3629.83277 0.35985
3627.78433 0.36632
3625.73589 0.36340
3623.68746 0.36061
3621.63902 0.36165
3619.59058 0.36439
3617.54214 0.36090
3615.49370 0.34993
3613.44526 0.34152
3611.39682 0.34270
3609.34839 0.35024
3607.29995 0.35559
3605.25151 0.35572
3603.20307 0.35510
3601.15463 0.35509
3599.10619 0.35531
3597.05776 0.35547
3595.00932 0.35388
3592.96088 0.35144
3590.91244 0.35220
3588.86400 0.35278
3586.81556 0.34835
3584.76713 0.34696
3582.71869 0.34946
3580.67025 0.34881
3578.62181 0.34379
3576.57337 0.33758
3574.52493 0.33267
3572.47650 0.33115
3570.42806 0.33097
3568.37962 0.32990
3566.33118 0.32726
3564.28274 0.32474
3562.23430 0.32479
3560.18587 0.32710
3558.13743 0.32999
3556.08899 0.33146
3554.04055 0.33172
3551.99211 0.33251
3549.94367 0.33431
3547.89524 0.33616
3545.84680 0.33699
3543.79836 0.33464
3541.74992 0.33153
3539.70148 0.33361
3537.65304 0.33906
3535.60461 0.33879
3533.55617 0.33416
3531.50773 0.33320
3529.45929 0.33313
3527.41085 0.32919
3525.36241 0.32520
3523.31398 0.32582
3521.26554 0.32977
3519.21710 0.33462
3517.16866 0.33884
3515.12022 0.33960
3513.07178 0.33615
3511.02335 0.33030
3508.97491 0.32661
3506.92647 0.32615
3504.87803 0.32451
3502.82959 0.32001
3500.78115 0.31988
3498.73272 0.32750
3496.68428 0.33421
3494.63584 0.33491
3492.58740 0.33497
3490.53896 0.33867
3488.49052 0.34052
3486.44209 0.33714
3484.39365 0.33614
3482.34521 0.33903
3480.29677 0.34042
3478.24833 0.33918
3476.19989 0.33585
3474.15146 0.33099
3472.10302 0.32721
3470.05458 0.32759
3468.00614 0.33335
3465.95770 0.33976
3463.90926 0.34049
3461.86082 0.33819
3459.81239 0.34044
3457.76395 0.34615
3455.71551 0.34812
3453.66707 0.34542
3451.61863 0.34050
3449.57019 0.33738
3447.52176 0.34084
3445.47332 0.34803
3443.42488 0.35311
3441.37644 0.35437
3439.32800 0.35402
3437.27956 0.35429
3435.23113 0.35329
3433.18269 0.35012
3431.13425 0.34866
3429.08581 0.35182
3427.03737 0.35460
3424.98893 0.35209
3422.94050 0.34646
3420.89206 0.34381
3418.84362 0.34665
3416.79518 0.34942
3414.74674 0.34709
3412.69830 0.34088
3410.64987 0.33739
3408.60143 0.34115
3406.55299 0.34717
3404.50455 0.34742
3402.45611 0.34532
3400.40767 0.34612
3398.35924 0.34537
3396.31080 0.34185
3394.26236 0.34102
3392.21392 0.34683
3390.16548 0.35338
3388.11704 0.35440
3386.06861 0.35276
3384.02017 0.34965
3381.97173 0.34626
3379.92329 0.34467
3377.87485 0.34398
3375.82641 0.34512
3373.77798 0.34640
3371.72954 0.34277
3369.68110 0.33986
3367.63266 0.34119
3365.58422 0.34018
3363.53578 0.34064
3361.48735 0.34560
3359.43891 0.34869
3357.39047 0.34889
3355.34203 0.34964
3353.29359 0.35110
3351.24515 0.35141
3349.19672 0.35195
3347.14828 0.35175
3345.09984 0.35063
3343.05140 0.35089
3341.00296 0.34984
3338.95452 0.35157
3336.90609 0.36042
3334.85765 0.36577
3332.80921 0.36294
3330.76077 0.35860
3328.71233 0.35452
3326.66389 0.35101
3324.61545 0.35222
3322.56702 0.35764
3320.51858 0.36003
3318.47014 0.35825
3316.42170 0.35544
3314.37326 0.35149
3312.32482 0.34914
3310.27639 0.35192
3308.22795 0.35759
3306.17951 0.36114
3304.13107 0.36137
3302.08263 0.36103
3300.03419 0.35979
3297.98576 0.35752
3295.93732 0.35644
3293.88888 0.35348
3291.84044 0.34936
3289.79200 0.35064
3287.74356 0.35468
3285.69513 0.35531
3283.64669 0.35642
3281.59825 0.35983
3279.54981 0.35805
3277.50137 0.35552
3275.45293 0.35950
3273.40450 0.36167
3271.35606 0.35839
3269.30762 0.35425
3267.25918 0.35169
3265.21074 0.35225
3263.16230 0.35659
3261.11387 0.36302
3259.06543 0.36537
3257.01699 0.36094
3254.96855 0.35623
3252.92011 0.35509
3250.87167 0.35476
3248.82324 0.35426
3246.77480 0.35450
3244.72636 0.35534
3242.67792 0.35736
3240.62948 0.36024
3238.58104 0.36161
3236.53261 0.36286
3234.48417 0.36518
3232.43573 0.36612
3230.38729 0.36722
3228.33885 0.36869
3226.29041 0.36732
3224.24198 0.36570
3222.19354 0.36746
3220.14510 0.36956
3218.09666 0.36913
3216.04822 0.36776
3213.99978 0.36590
3211.95135 0.36419
3209.90291 0.36521
3207.85447 0.36742
3205.80603 0.36771
3203.75759 0.36812
3201.70915 0.37026
3199.66072 0.37285
3197.61228 0.37331
3195.56384 0.37204
3193.51540 0.37321
3191.46696 0.37399
3189.41852 0.36973
3187.37008 0.36536
3185.32165 0.36753
3183.27321 0.37291
3181.22477 0.37516
3179.17633 0.37598
3177.12789 0.37776
3175.07945 0.37838
3173.03102 0.37685
3170.98258 0.37595
3168.93414 0.37849
3166.88570 0.38338
3164.83726 0.38714
3162.78882 0.39036
3160.74039 0.39244
3158.69195 0.38997
3156.64351 0.38888
3154.59507 0.39268
3152.54663 0.39454
3150.49819 0.39245
3148.44976 0.39076
3146.40132 0.39180
3144.35288 0.39493
3142.30444 0.39801
3140.25600 0.39813
3138.20756 0.39560
3136.15913 0.39302
3134.11069 0.39288
3132.06225 0.39561
3130.01381 0.39803
3127.96537 0.39887
3125.91693 0.39837
3123.86850 0.39756
3121.82006 0.39964
3119.77162 0.40368
3117.72318 0.40611
3115.67474 0.40642
3113.62630 0.40566
3111.57787 0.40471
3109.52943 0.40471
3107.48099 0.40670
3105.43255 0.40706
3103.38411 0.40412
3101.33567 0.40264
3099.28724 0.40266
3097.23880 0.40114
3095.19036 0.39924
3093.14192 0.40018
3091.09348 0.40407
3089.04504 0.40688
3086.99661 0.40480
3084.94817 0.40012
3082.89973 0.39904
3080.85129 0.39841
3078.80285 0.39272
3076.75441 0.39054
3074.70598 0.39626
3072.65754 0.39945
3070.60910 0.39666
3068.56066 0.39319
3066.51222 0.39223
3064.46378 0.39278
3062.41535 0.39185
3060.36691 0.39242
3058.31847 0.39558
3056.27003 0.39701
3054.22159 0.39502
3052.17315 0.39107
3050.12471 0.38738
3048.07628 0.38514
3046.02784 0.38435
3043.97940 0.38412
3041.93096 0.38516
3039.88252 0.38810
3037.83408 0.39096
3035.78565 0.39173
3033.73721 0.38933
3031.68877 0.38631
3029.64033 0.38652
3027.59189 0.38729
3025.54345 0.38642
3023.49502 0.38800
3021.44658 0.39232
3019.39814 0.39561
3017.34970 0.39795
3015.30126 0.40137
3013.25282 0.40622
3011.20439 0.41177
3009.15595 0.41652
3007.10751 0.41897
3005.05907 0.41927
3003.01063 0.42085
3000.96219 0.42464
2998.91376 0.42607
2996.86532 0.42557
2994.81688 0.42844
2992.76844 0.43445
2990.72000 0.44028
2988.67156 0.44545
2986.62313 0.44907
2984.57469 0.44987
2982.52625 0.45164
2980.47781 0.45885
2978.42937 0.46849
2976.38093 0.47790
2974.33250 0.49030
2972.28406 0.50317
2970.23562 0.51204
2968.18718 0.51792
2966.13874 0.52318
2964.09030 0.53118
2962.04187 0.53825
2959.99343 0.53651
2957.94499 0.52840
2955.89655 0.51898
2953.84811 0.50955
2951.79967 0.50253
2949.75124 0.49940
2947.70280 0.49918
2945.65436 0.49984
2943.60592 0.49895
2941.55748 0.49454
2939.50904 0.49093
2937.46061 0.49289
2935.41217 0.49513
2933.36373 0.49432
2931.31529 0.49353
2929.26685 0.49267
2927.21841 0.48954
2925.16998 0.48445
2923.12154 0.47996
2921.07310 0.47656
2919.02466 0.47126
2916.97622 0.46222
2914.92778 0.45269
2912.87934 0.44704
2910.83091 0.44373
2908.78247 0.43899
2906.73403 0.43355
2904.68559 0.43110
2902.63715 0.43423
2900.58871 0.43912
2898.54028 0.43882
2896.49184 0.43385
2894.44340 0.43024
2892.39496 0.43116
2890.34652 0.43418
2888.29808 0.43540
2886.24965 0.43491
2884.20121 0.43376
2882.15277 0.43260
2880.10433 0.43479
2878.05589 0.44298
2876.00745 0.45346
2873.95902 0.45797
2871.91058 0.45455
2869.86214 0.44708
2867.81370 0.43713
2865.76526 0.42715
2863.71682 0.42120
2861.66839 0.41905
2859.61995 0.41694
2857.57151 0.41230
2855.52307 0.40629
2853.47463 0.40239
2851.42619 0.39922
2849.37776 0.39460
2847.32932 0.39094
2845.28088 0.38793
2843.23244 0.38253
2841.18400 0.37566
2839.13556 0.37079
2837.08713 0.36861
2835.03869 0.36837
2832.99025 0.36798
2830.94181 0.36593
2828.89337 0.36507
2826.84493 0.36713
2824.79650 0.36790
2822.74806 0.36452
2820.69962 0.36093
2818.65118 0.36024
2816.60274 0.36236
2814.55430 0.36363
2812.50587 0.36043
2810.45743 0.35578
2808.40899 0.35223
2806.36055 0.35046
2804.31211 0.35209
2802.26367 0.35629
2800.21524 0.35972
2798.16680 0.35851
2796.11836 0.35406
2794.06992 0.35228
2792.02148 0.35355
2789.97304 0.35443
2787.92461 0.35509
2785.87617 0.35661
2783.82773 0.35701
2781.77929 0.35499
2779.73085 0.35289
2777.68241 0.35308
2775.63397 0.35495
2773.58554 0.35499
2771.53710 0.35187
2769.48866 0.34963
2767.44022 0.35167
2765.39178 0.35523
2763.34334 0.35637
2761.29491 0.35539
2759.24647 0.35406
2757.19803 0.35377
2755.14959 0.35407
2753.10115 0.35322
2751.05271 0.35233
2749.00428 0.35342
2746.95584 0.35432
2744.90740 0.35252
2742.85896 0.35072
2740.81052 0.35041
2738.76208 0.35053
2736.71365 0.35122
2734.66521 0.35172
2732.61677 0.35161
2730.56833 0.35195
2728.51989 0.35240
2726.47145 0.35134
2724.42302 0.34956
2722.37458 0.34955
2720.32614 0.35040
2718.27770 0.34887
2716.22926 0.34589
2714.18082 0.34451
2712.13239 0.34400
2710.08395 0.34418
2708.03551 0.34680
2705.98707 0.35017
2703.93863 0.35116
2701.89019 0.34909
2699.84176 0.34745
2697.79332 0.34743
2695.74488 0.34543
2693.69644 0.34353
2691.64800 0.34446
2689.59956 0.34516
2687.55113 0.34346
2685.50269 0.33988
2683.45425 0.33884
2681.40581 0.34277
2679.35737 0.34511
2677.30893 0.34192
2675.26050 0.33847
2673.21206 0.33840
2671.16362 0.34056
2669.11518 0.34296
2667.06674 0.34278
2665.01830 0.34062
2662.96987 0.33930
2660.92143 0.33880
2658.87299 0.34000
2656.82455 0.34259
2654.77611 0.34427
2652.72767 0.34382
2650.67924 0.34066
2648.63080 0.33855
2646.58236 0.34019
2644.53392 0.34240
2642.48548 0.34205
2640.43704 0.33983
2638.38860 0.34026
2636.34017 0.34400
2634.29173 0.34586
2632.24329 0.34390
2630.19485 0.34066
2628.14641 0.34003
2626.09797 0.34381
2624.04954 0.34732
2622.00110 0.34703
2619.95266 0.34646
2617.90422 0.34812
2615.85578 0.34948
2613.80734 0.34860
2611.75891 0.34631
2609.71047 0.34428
2607.66203 0.34528
2605.61359 0.34763
2603.56515 0.34663
2601.51671 0.34424
2599.46828 0.34447
2597.41984 0.34689
2595.37140 0.34860
2593.32296 0.34753
2591.27452 0.34594
2589.22608 0.34579
2587.17765 0.34641
2585.12921 0.34784
2583.08077 0.34859
2581.03233 0.34764
2578.98389 0.34698
2576.93545 0.34806
2574.88702 0.34945
2572.83858 0.34966
2570.79014 0.34920
2568.74170 0.34868
2566.69326 0.34871
2564.64482 0.34869
2562.59639 0.34849
2560.54795 0.34857
2558.49951 0.34788
2556.45107 0.34657
2554.40263 0.34536
2552.35419 0.34420
2550.30576 0.34416
2548.25732 0.34631
2546.20888 0.34886
2544.16044 0.34946
2542.11200 0.34794
2540.06356 0.34584
2538.01513 0.34471
2535.96669 0.34469
2533.91825 0.34408
2531.86981 0.34259
2529.82137 0.34264
2527.77293 0.34322
2525.72450 0.34227
2523.67606 0.34138
2521.62762 0.34063
2519.57918 0.33915
2517.53074 0.33742
2515.48230 0.33594
2513.43387 0.33587
2511.38543 0.33756
2509.33699 0.33907
2507.28855 0.33840
2505.24011 0.33569
2503.19167 0.33259
2501.14324 0.33207
2499.09480 0.33554
2497.04636 0.33769
2494.99792 0.33564
2492.94948 0.33345
2490.90104 0.33115
2488.85260 0.32726
2486.80417 0.32443
2484.75573 0.32426
2482.70729 0.32578
2480.65885 0.32788
2478.61041 0.32877
2476.56197 0.32726
2474.51354 0.32477
2472.46510 0.32271
2470.41666 0.32168
2468.36822 0.32115
2466.31978 0.32076
2464.27134 0.32241
2462.22291 0.32613
2460.17447 0.32902
2458.12603 0.33000
2456.07759 0.33009
2454.02915 0.32877
2451.98071 0.32600
2449.93228 0.32399
2447.88384 0.32355
2445.83540 0.32462
2443.78696 0.32717
2441.73852 0.32896
2439.69008 0.32890
2437.64165 0.32830
2435.59321 0.32764
2433.54477 0.32802
2431.49633 0.32868
2429.44789 0.32720
2427.39945 0.32589
2425.35102 0.32702
2423.30258 0.32854
2421.25414 0.33033
2419.20570 0.33374
2417.15726 0.33611
2415.10882 0.33491
2413.06039 0.33298
2411.01195 0.33319
2408.96351 0.33346
2406.91507 0.33216
2404.86663 0.33185
2402.81819 0.33445
2400.76976 0.33658
2398.72132 0.33485
2396.67288 0.33242
2394.62444 0.33316
2392.57600 0.33525
2390.52756 0.33528
2388.47913 0.33418
2386.43069 0.33434
2384.38225 0.33528
2382.33381 0.33513
2380.28537 0.33411
2378.23693 0.33410
2376.18850 0.33343
2374.14006 0.32977
2372.09162 0.32686
2370.04318 0.32797
2367.99474 0.33189
2365.94630 0.34258
2363.89787 0.35487
2361.84943 0.35250
2359.80099 0.34182
2357.75255 0.33690
2355.70411 0.34061
2353.65567 0.34783
2351.60723 0.35146
2349.55880 0.34841
2347.51036 0.34310
2345.46192 0.34426
2343.41348 0.35544
2341.36504 0.35928
2339.31660 0.34830
2337.26817 0.33992
2335.21973 0.33786
2333.17129 0.33308
2331.12285 0.32965
2329.07441 0.33403
2327.02597 0.34066
2324.97754 0.34522
2322.92910 0.34925
2320.88066 0.35189
2318.83222 0.34748
2316.78378 0.33986
2314.73534 0.33844
2312.68691 0.34138
2310.63847 0.34433
2308.59003 0.34655
2306.54159 0.34647
2304.49315 0.34506
2302.44471 0.34625
2300.39628 0.34899
2298.34784 0.34772
2296.29940 0.34384
2294.25096 0.34144
2292.20252 0.34045
2290.15408 0.34083
2288.10565 0.34249
2286.05721 0.34350
2284.00877 0.34231
2281.96033 0.33944
2279.91189 0.33757
2277.86345 0.33849
2275.81502 0.34011
2273.76658 0.34075
2271.71814 0.33954
2269.66970 0.33717
2267.62126 0.33667
2265.57282 0.33708
2263.52439 0.33722
2261.47595 0.33813
2259.42751 0.33783
2257.37907 0.33637
2255.33063 0.33638
2253.28219 0.33706
2251.23376 0.33751
2249.18532 0.33823
2247.13688 0.33903
2245.08844 0.33927
2243.04000 0.33874
2240.99156 0.33779
2238.94313 0.33646
2236.89469 0.33533
2234.84625 0.33562
2232.79781 0.33708
2230.74937 0.33701
2228.70093 0.33524
2226.65250 0.33419
2224.60406 0.33324
2222.55562 0.33160
2220.50718 0.33075
2218.45874 0.33162
2216.41030 0.33332
2214.36186 0.33502
2212.31343 0.33611
2210.26499 0.33559
2208.21655 0.33365
2206.16811 0.33131
2204.11967 0.32990
2202.07123 0.33005
2200.02280 0.33118
2197.97436 0.33260
2195.92592 0.33280
2193.87748 0.33091
2191.82904 0.32919
2189.78060 0.32922
2187.73217 0.32976
2185.68373 0.33008
2183.63529 0.32975
2181.58685 0.32816
2179.53841 0.32689
2177.48997 0.32744
2175.44154 0.32945
2173.39310 0.33240
2171.34466 0.33307
2169.29622 0.32934
2167.24778 0.32554
2165.19934 0.32523
2163.15091 0.32653
2161.10247 0.32732
2159.05403 0.32679
2157.00559 0.32432
2154.95715 0.32209
2152.90871 0.32053
2150.86028 0.31834
2148.81184 0.31769
2146.76340 0.31849
2144.71496 0.31854
2142.66652 0.31758
2140.61808 0.31645
2138.56965 0.31644
2136.52121 0.31634
2134.47277 0.31470
2132.42433 0.31365
2130.37589 0.31452
2128.32745 0.31527
2126.27902 0.31540
2124.23058 0.31644
2122.18214 0.31726
2120.13370 0.31615
2118.08526 0.31453
2116.03682 0.31431
2113.98839 0.31520
2111.93995 0.31655
2109.89151 0.31798
2107.84307 0.31789
2105.79463 0.31673
2103.74619 0.31796
2101.69776 0.32088
2099.64932 0.32124
2097.60088 0.32049
2095.55244 0.32236
2093.50400 0.32536
2091.45556 0.32660
2089.40713 0.32662
2087.35869 0.32738
2085.31025 0.32778
2083.26181 0.32727
2081.21337 0.32752
2079.16493 0.32775
2077.11649 0.32670
2075.06806 0.32551
2073.01962 0.32614
2070.97118 0.32899
2068.92274 0.33202
2066.87430 0.33345
2064.82586 0.33379
2062.77743 0.33443
2060.72899 0.33605
2058.68055 0.33803
2056.63211 0.33911
2054.58367 0.33964
2052.53523 0.33975
2050.48680 0.33911
2048.43836 0.33943
2046.38992 0.34033
2044.34148 0.34009
2042.29304 0.34003
2040.24460 0.34161
2038.19617 0.34357
2036.14773 0.34487
2034.09929 0.34620
2032.05085 0.34697
2030.00241 0.34701
2027.95397 0.34781
2025.90554 0.34799
2023.85710 0.34688
2021.80866 0.34724
2019.76022 0.34874
2017.71178 0.34898
2015.66334 0.34799
2013.61491 0.34774
2011.56647 0.34933
2009.51803 0.34988
2007.46959 0.34842
2005.42115 0.34848
2003.37271 0.35010
2001.32428 0.35069
1999.27584 0.35049
1997.22740 0.35133
1995.17896 0.35195
1993.13052 0.35031
1991.08208 0.34878
1989.03365 0.34973
1986.98521 0.35103
1984.93677 0.35018
1982.88833 0.34757
1980.83989 0.34505
1978.79145 0.34540
1976.74302 0.34947
1974.69458 0.35200
1972.64614 0.34936
1970.59770 0.34565
1968.54926 0.34586
1966.50082 0.34898
1964.45239 0.34998
1962.40395 0.34939
1960.35551 0.35009
1958.30707 0.35058
1956.25863 0.34904
1954.21019 0.34703
1952.16176 0.34765
1950.11332 0.35061
1948.06488 0.35146
1946.01644 0.35004
1943.96800 0.35026
1941.91956 0.35256
1939.87112 0.35462
1937.82269 0.35601
1935.77425 0.35875
1933.72581 0.36277
1931.67737 0.36598
1929.62893 0.36781
1927.58049 0.36967
1925.53206 0.37303
1923.48362 0.37720
1921.43518 0.38008
1919.38674 0.38014
1917.33830 0.37839
1915.28986 0.37795
1913.24143 0.38139
1911.19299 0.38731
1909.14455 0.38981
1907.09611 0.38744
1905.04767 0.38529
1902.99923 0.38562
1900.95080 0.38716
1898.90236 0.38768
1896.85392 0.38668
1894.80548 0.38642
1892.75704 0.38748
1890.70860 0.38756
1888.66017 0.38659
1886.61173 0.38636
1884.56329 0.38724
1882.51485 0.38887
1880.46641 0.38978
1878.41797 0.38956
1876.36954 0.38940
1874.32110 0.39019
1872.27266 0.39310
1870.22422 0.39804
1868.17578 0.40094
1866.12734 0.39775
1864.07891 0.39332
1862.03047 0.39168
1859.98203 0.39149
1857.93359 0.38929
1855.88515 0.38578
1853.83671 0.38346
1851.78828 0.38216
1849.73984 0.38123
1847.69140 0.38022
1845.64296 0.38122
1843.59452 0.38541
1841.54608 0.38758
1839.49765 0.38653
1837.44921 0.38321
1835.40077 0.38030
1833.35233 0.37992
1831.30389 0.37942
1829.25545 0.37705
1827.20702 0.37754
1825.15858 0.38230
1823.11014 0.38535
1821.06170 0.38372
1819.01326 0.37987
1816.96482 0.37663
1814.91639 0.37561
1812.86795 0.37535
1810.81951 0.37468
1808.77107 0.37576
1806.72263 0.37872
1804.67419 0.37989
1802.62575 0.37907
1800.57732 0.37842
1798.52888 0.37812
1796.48044 0.38015
1794.43200 0.38465
1792.38356 0.38812
1790.33512 0.38755
1788.28669 0.38641
1786.23825 0.38795
1784.18981 0.39032
1782.14137 0.39041
1780.09293 0.39100
1778.04449 0.39305
1775.99606 0.39402
1773.94762 0.39644
1771.89918 0.40216
1769.85074 0.40567
1767.80230 0.40691
1765.75386 0.40948
1763.70543 0.41529
1761.65699 0.42401
1759.60855 0.43053
1757.56011 0.43418
1755.51167 0.43906
1753.46323 0.44738
1751.41480 0.45985
1749.36636 0.47612
1747.31792 0.49466
1745.26948 0.51672
1743.22104 0.54260
1741.17260 0.56752
1739.12417 0.58634
1737.07573 0.59521
1735.02729 0.59872
1732.97885 0.59988
1730.93041 0.59543
1728.88197 0.58581
1726.83354 0.57348
1724.78510 0.56492
1722.73666 0.56414
1720.68822 0.56651
1718.63978 0.56513
1716.59134 0.55540
1714.54291 0.54300
1712.49447 0.53425
1710.44603 0.52832
1708.39759 0.52576
1706.34915 0.52784
1704.30071 0.53046
1702.25228 0.52800
1700.20384 0.52548
1698.15540 0.53506
1696.10696 0.54772
1694.05852 0.55027
1692.01008 0.54807
1689.96165 0.54485
1687.91321 0.54162
1685.86477 0.53860
1683.81633 0.54106
1681.76789 0.55311
1679.71945 0.55875
1677.67102 0.55865
1675.62258 0.55848
1673.57414 0.56009
1671.52570 0.55976
1669.47726 0.55452
1667.42882 0.55238
1665.38038 0.55558
1663.33195 0.55680
1661.28351 0.55265
1659.23507 0.55050
1657.18663 0.55231
1655.13819 0.55625
1653.08975 0.55917
1651.04132 0.55950
1648.99288 0.56064
1646.94444 0.55406
1644.89600 0.54397
1642.84756 0.54209
1640.79912 0.54368
1638.75069 0.54797
1636.70225 0.55442
1634.65381 0.55464
1632.60537 0.55177
1630.55693 0.55255
1628.50849 0.55743
1626.46006 0.56431
1624.41162 0.57091
1622.36318 0.57532
1620.31474 0.57530
1618.26630 0.57442
1616.21786 0.57362
1614.16943 0.57385
1612.12099 0.57616
1610.07255 0.57954
1608.02411 0.58414
1605.97567 0.58833
1603.92723 0.59235
1601.87880 0.59704
1599.83036 0.59916
1597.78192 0.60004
1595.73348 0.60252
1593.68504 0.60413
1591.63660 0.60416
1589.58817 0.60556
1587.53973 0.61005
1585.49129 0.61533
1583.44285 0.61682
1581.39441 0.61635
1579.34597 0.61810
1577.29754 0.61989
1575.24910 0.61663
1573.20066 0.61514
1571.15222 0.62052
1569.10378 0.62600
1567.05534 0.62242
1565.00691 0.61843
1562.95847 0.62133
1560.91003 0.62952
1558.86159 0.62734
1556.81315 0.61393
1554.76471 0.61380
1552.71628 0.61668
1550.66784 0.61812
1548.61940 0.61785
1546.57096 0.61871
1544.52252 0.61998
1542.47408 0.61636
1540.42565 0.60386
1538.37721 0.59616
1536.32877 0.59847
1534.28033 0.60176
1532.23189 0.60121
1530.18345 0.60343
1528.13501 0.61056
1526.08658 0.61538
1524.03814 0.61704
1521.98970 0.62125
1519.94126 0.61987
1517.89282 0.61557
1515.84438 0.61057
1513.79595 0.60203
1511.74751 0.59668
1509.69907 0.60064
1507.65063 0.60980
1505.60219 0.60276
1503.55375 0.59830
1501.50532 0.60125
1499.45688 0.60832
1497.40844 0.61665
1495.36000 0.61988
1493.31156 0.62037
1491.26312 0.62414
1489.21469 0.62931
1487.16625 0.62547
1485.11781 0.62203
1483.06937 0.62494
1481.02093 0.62941
1478.97249 0.63063
1476.92406 0.62704
1474.87562 0.62080
1472.82718 0.61856
1470.77874 0.62098
1468.73030 0.62119
1466.68186 0.61421
1464.63343 0.60288
1462.58499 0.60265
1460.53655 0.61298
1458.48811 0.62687
1456.43967 0.62218
1454.39123 0.60644
1452.34280 0.60236
1450.29436 0.60470
1448.24592 0.60685
1446.19748 0.60246
1444.14904 0.59325
1442.10060 0.58552
1440.05217 0.58428
1438.00373 0.58684
1435.95529 0.58179
1433.90685 0.57159
1431.85841 0.56680
1429.80997 0.56537
1427.76154 0.56256
1425.71310 0.55925
1423.66466 0.55635
1421.61622 0.55342
1419.56778 0.55106
1417.51934 0.54718
1415.47091 0.54238
1413.42247 0.53868
1411.37403 0.53377
1409.32559 0.52847
1407.27715 0.52645
1405.22871 0.52534
1403.18028 0.52247
1401.13184 0.52021
1399.08340 0.51973
1397.03496 0.51833
1394.98652 0.51626
1392.93808 0.51761
1390.88965 0.51906
1388.84121 0.51902
1386.79277 0.51760
1384.74433 0.51246
1382.69589 0.50549
1380.64745 0.49891
1378.59901 0.49390
1376.55058 0.49206
1374.50214 0.49238
1372.45370 0.49093
1370.40526 0.48827
1368.35682 0.48557
1366.30838 0.48167
1364.25995 0.47783
1362.21151 0.47350
1360.16307 0.46741
1358.11463 0.46279
1356.06619 0.46097
1354.01775 0.46053
1351.96932 0.45834
1349.92088 0.45414
1347.87244 0.45171
1345.82400 0.45111
1343.77556 0.44912
1341.72712 0.44774
1339.67869 0.45080
1337.63025 0.45394
1335.58181 0.45139
1333.53337 0.44605
1331.48493 0.44264
1329.43649 0.44075
1327.38806 0.43834
1325.33962 0.43852
1323.29118 0.44135
1321.24274 0.44213
1319.19430 0.43941
1317.14586 0.43547
1315.09743 0.43264
1313.04899 0.42981
1311.00055 0.42624
1308.95211 0.42395
1306.90367 0.42449
1304.85523 0.42636
1302.80680 0.42589
1300.75836 0.42365
1298.70992 0.42239
1296.66148 0.42144
1294.61304 0.42025
1292.56460 0.42131
1290.51617 0.42427
1288.46773 0.42524
1286.41929 0.42469
1284.37085 0.42687
1282.32241 0.43328
1280.27397 0.44151
1278.22554 0.44928
1276.17710 0.45740
1274.12866 0.46622
1272.08022 0.47100
1270.03178 0.47044
1267.98334 0.47221
1265.93491 0.47591
1263.88647 0.47212
1261.83803 0.46095
1259.78959 0.45194
1257.74115 0.45022
1255.69271 0.45384
1253.64428 0.46103
1251.59584 0.47065
1249.54740 0.48016
1247.49896 0.49002
1245.45052 0.50086
1243.40208 0.50730
1241.35364 0.50598
1239.30521 0.50125
1237.25677 0.49789
1235.20833 0.49578
1233.15989 0.49237
1231.11145 0.48796
1229.06301 0.48534
1227.01458 0.48534
1224.96614 0.48635
1222.91770 0.48745
1220.86926 0.48906
1218.82082 0.49146
1216.77238 0.49375
1214.72395 0.49587
1212.67551 0.49952
1210.62707 0.50535
1208.57863 0.51256
1206.53019 0.51935
1204.48175 0.52482
1202.43332 0.53105
1200.38488 0.53958
1198.33644 0.54867
1196.28800 0.55520
1194.23956 0.55818
1192.19112 0.56003
1190.14269 0.56236
1188.09425 0.56330
1186.04581 0.56227
1183.99737 0.55964
1181.94893 0.55460
1179.90049 0.55049
1177.85206 0.54983
1175.80362 0.54711
1173.75518 0.53911
1171.70674 0.53101
1169.65830 0.52862
1167.60986 0.53128
1165.56143 0.53224
1163.51299 0.52728
1161.46455 0.51874
1159.41611 0.51026
1157.36767 0.50151
1155.31923 0.49412
1153.27080 0.49252
1151.22236 0.49293
1149.17392 0.48844
1147.12548 0.48004
1145.07704 0.47624
1143.02860 0.47875
1140.98017 0.47987
1138.93173 0.47918
1136.88329 0.47979
1134.83485 0.47934
1132.78641 0.47710
1130.73797 0.47477
1128.68954 0.47484
1126.64110 0.47693
1124.59266 0.47571
1122.54422 0.47332
1120.49578 0.47554
1118.44734 0.47799
1116.39891 0.47762
1114.35047 0.47828
1112.30203 0.47944
1110.25359 0.47994
1108.20515 0.47904
1106.15671 0.47499
1104.10827 0.47244
1102.05984 0.47391
1100.01140 0.47918
1097.96296 0.48656
1095.91452 0.48982
1093.86608 0.48876
1091.81764 0.48870
1089.76921 0.49352
1087.72077 0.50198
1085.67233 0.50583
1083.62389 0.49851
1081.57545 0.48684
1079.52701 0.48041
1077.47858 0.47981
1075.43014 0.48466
1073.38170 0.49087
1071.33326 0.49144
1069.28482 0.49026
1067.23638 0.49393
1065.18795 0.49558
1063.13951 0.48607
1061.09107 0.47507
1059.04263 0.47439
1056.99419 0.47558
1054.94575 0.46891
1052.89732 0.46262
1050.84888 0.46437
1048.80044 0.46647
1046.75200 0.46126
1044.70356 0.45195
1042.65512 0.44372
1040.60669 0.43845
1038.55825 0.43781
1036.50981 0.43996
1034.46137 0.44033
1032.41293 0.43977
1030.36449 0.43909
1028.31606 0.43803
1026.26762 0.43681
1024.21918 0.43296
1022.17074 0.42705
1020.12230 0.42293
1018.07386 0.42276
1016.02543 0.42729
1013.97699 0.43474
1011.92855 0.44065
1009.88011 0.44051
1007.83167 0.43645
1005.78323 0.43735
1003.73480 0.44183
1001.68636 0.44248
999.63792 0.43889
997.58948 0.43084
995.54104 0.42549
993.49260 0.43053
991.44417 0.43527
989.39573 0.43058
987.34729 0.42864
985.29885 0.43666
983.25041 0.44173
981.20197 0.43589
979.15354 0.43053
977.10510 0.43576
975.05666 0.44538
973.00822 0.44940
970.95978 0.44611
968.91134 0.43799
966.86290 0.43068
964.81447 0.43017
962.76603 0.43397
960.71759 0.43109
958.66915 0.42335
956.62071 0.42395
954.57227 0.42341
952.52384 0.41214
950.47540 0.40625
948.42696 0.41501
946.37852 0.42499
944.33008 0.42832
942.28164 0.44037
940.23321 0.45635
938.18477 0.46004
936.13633 0.46801
934.08789 0.49508
932.03945 0.53275
929.99101 0.56633
927.94258 0.59776
925.89414 0.63249
923.84570 0.66330
921.79726 0.69350
919.74882 0.73213
917.70038 0.77555
915.65195 0.81190
913.60351 0.83401
911.55507 0.84573
909.50663 0.85798
907.45819 0.88056
905.40975 0.90778
903.36132 0.93028
901.31288 0.94591
899.26444 0.94844
897.21600 0.95113
895.16756 0.96801
893.11912 0.97885
891.07069 0.97357
889.02225 0.96899
886.97381 0.97206
884.92537 0.97741
882.87693 0.97493
880.82849 0.95601
878.78006 0.93278
876.73162 0.91892
874.68318 0.90411
872.63474 0.86924
870.58630 0.80987
868.53786 0.74773
866.48943 0.70385
864.44099 0.66689
862.39255 0.61007
860.34411 0.53945
858.29567 0.48264
856.24723 0.44454
854.19880 0.41558
852.15036 0.38868
850.10192 0.36281
848.05348 0.34483
846.00504 0.33254
843.95660 0.32020
841.90817 0.31193
839.85973 0.30437
837.81129 0.29501
835.76285 0.29320
833.71441 0.30299
831.66597 0.32106
829.61753 0.34159
827.56910 0.36155
825.52066 0.38460
823.47222 0.40741
821.42378 0.41986
819.37534 0.42116
817.32690 0.41814
815.27847 0.41596
813.23003 0.41353
811.18159 0.40998
809.13315 0.41092
807.08471 0.41562
805.03627 0.41914
802.98784 0.42526
800.93940 0.43752
798.89096 0.45226
796.84252 0.46330
794.79408 0.46954
792.74564 0.47795
790.69721 0.48877
788.64877 0.49470
786.60033 0.49954
784.55189 0.50706
782.50345 0.50943
780.45501 0.50565
778.40658 0.50424
776.35814 0.50550
774.30970 0.50293
772.26126 0.49463
770.21282 0.47665
768.16438 0.44373
766.11595 0.40383
764.06751 0.36914
762.01907 0.33486
759.97063 0.29175
757.92219 0.24674
755.87375 0.20952
753.82532 0.18062
751.77688 0.15935
749.72844 0.14313
747.68000 0.12707
745.63156 0.11009
743.58312 0.09274
741.53469 0.07683
739.48625 0.06184
737.43781 0.04767
735.38937 0.04123
733.34093 0.04090
731.29249 0.03387
729.24406 0.02081
727.19562 0.01209
725.14718 0.00985
723.09874 0.01338
721.05030 0.02166
719.00186 0.03188
716.95343 0.03839
714.90499 0.04076
712.85655 0.04239
710.80811 0.04221
708.75967 0.04173
706.71123 0.04262
704.66280 0.04978
702.61436 0.06600
700.56592 0.07490
698.51748 0.07078
696.46904 0.07348
694.42060 0.08039
692.37216 0.07217
690.32373 0.06143
688.27529 0.06255
686.22685 0.07089
684.17841 0.09171
682.12997 0.12010
680.08153 0.13783
678.03310 0.15061
675.98466 0.16354
673.93622 0.16740
671.88778 0.17361
669.83934 0.21077
667.79090 0.27468
665.74247 0.29544
663.69403 0.28347
661.64559 0.25285
659.59715 0.22676
657.54871 0.22962
655.50027 0.24651
653.45184 0.23233
651.40340 0.19603
649.35496 0.20297
647.30652 0.27019
645.25808 0.34395
643.20964 0.35698
641.16121 0.33514
639.11277 0.33993
637.06433 0.36994
635.01589 0.39674
632.96745 0.42266
630.91901 0.43362
628.87058 0.43727
626.82214 0.47515
624.77370 0.49585
622.72526 0.45622
620.67682 0.42088
618.62838 0.40639
616.57995 0.41423
614.53151 0.45332
612.48307 0.48454
610.43463 0.46457
608.38619 0.41898
606.33775 0.42491
604.28932 0.49194
602.24088 0.57608
600.19244 0.65958
598.14400 0.67667
