3996.50324 0.69874
3994.45480 0.70001
3992.40636 0.70066
3990.35792 0.69946
3988.30948 0.69980
3986.26104 0.70273
3984.21261 0.70545
3982.16417 0.70605
3980.11573 0.70447
3978.06729 0.70209
3976.01885 0.70030
3973.97041 0.69897
3971.92198 0.69940
3969.87354 0.70163
3967.82510 0.70191
3965.77666 0.70118
3963.72822 0.70224
3961.67978 0.70163
3959.63135 0.69828
3957.58291 0.69780
3955.53447 0.70145
3953.48603 0.70706
3951.43759 0.71306
3949.38915 0.71088
3947.34072 0.69969
3945.29228 0.69604
3943.24384 0.69643
3941.19540 0.69276
3939.14696 0.69520
3937.09852 0.70363
3935.05009 0.71206
3933.00165 0.71351
3930.95321 0.70076
3928.90477 0.69165
3926.85633 0.69740
3924.80789 0.70046
3922.75946 0.69724
3920.71102 0.70117
3918.66258 0.70212
3916.61414 0.69146
3914.56570 0.68666
3912.51726 0.69303
3910.46883 0.69878
3908.42039 0.70385
3906.37195 0.71090
3904.32351 0.70641
3902.27507 0.68879
3900.22663 0.67498
3898.17820 0.66958
3896.12976 0.67997
3894.08132 0.69990
3892.03288 0.70134
3889.98444 0.68620
3887.93600 0.69572
3885.88756 0.70635
3883.83913 0.69301
3881.79069 0.68507
3879.74225 0.67665
3877.69381 0.67930
3875.64537 0.70033
3873.59693 0.71296
3871.54850 0.71062
3869.50006 0.69079
3867.45162 0.67895
3865.40318 0.68884
3863.35474 0.68174
3861.30630 0.67097
3859.25787 0.68678
3857.20943 0.71760
3855.16099 0.74202
3853.11255 0.70346
3851.06411 0.65495
3849.01567 0.66382
3846.96724 0.68957
3844.91880 0.71113
3842.87036 0.71981
3840.82192 0.72216
3838.77348 0.71457
3836.72504 0.69172
3834.67661 0.68358
3832.62817 0.68937
3830.57973 0.69693
3828.53129 0.70612
3826.48285 0.71075
3824.43441 0.71752
3822.38598 0.73053
3820.33754 0.71329
3818.28910 0.69671
3816.24066 0.69623
3814.19222 0.68818
3812.14378 0.69626
3810.09535 0.71952
3808.04691 0.73580
3805.99847 0.72722
3803.95003 0.72605
3801.90159 0.72370
3799.85315 0.69752
3797.80472 0.69403
3795.75628 0.69718
3793.70784 0.70049
3791.65940 0.71259
3789.61096 0.72237
3787.56252 0.72754
3785.51409 0.72535
3783.46565 0.71923
3781.41721 0.72491
3779.36877 0.72397
3777.32033 0.70961
3775.27189 0.71182
3773.22346 0.72845
3771.17502 0.73688
3769.12658 0.72437
3767.07814 0.71818
3765.02970 0.72041
3762.98126 0.72276
3760.93283 0.73249
3758.88439 0.73112
3756.83595 0.72461
3754.78751 0.74131
3752.73907 0.76768
3750.69063 0.74876
3748.64219 0.70838
3746.59376 0.71627
3744.54532 0.71117
3742.49688 0.68612
3740.44844 0.70045
3738.40000 0.73437
3736.35156 0.74663
3734.30313 0.71271
3732.25469 0.68718
3730.20625 0.69823
3728.15781 0.72240
3726.10937 0.73418
3724.06093 0.72697
3722.01250 0.71678
3719.96406 0.71186
3717.91562 0.71606
3715.86718 0.73050
3713.81874 0.75004
3711.77030 0.74375
3709.72187 0.70443
3707.67343 0.69500
3705.62499 0.70833
3703.57655 0.71893
3701.52811 0.70782
3699.47967 0.69113
3697.43124 0.69094
3695.38280 0.70251
3693.33436 0.72334
3691.28592 0.73955
3689.23748 0.71498
3687.18904 0.68267
3685.14061 0.68635
3683.09217 0.70283
3681.04373 0.71576
3678.99529 0.72800
3676.94685 0.73769
3674.89841 0.70481
3672.84998 0.68208
3670.80154 0.68788
3668.75310 0.66977
3666.70466 0.66215
3664.65622 0.67719
3662.60778 0.69214
3660.55935 0.70072
3658.51091 0.70646
3656.46247 0.69947
3654.41403 0.68683
3652.36559 0.69553
3650.31715 0.70008
3648.26872 0.65370
3646.22028 0.63874
3644.17184 0.65925
3642.12340 0.67766
3640.07496 0.68464
3638.02652 0.68548
3635.97809 0.68776
3633.92965 0.69165
3631.88121 0.69573
3629.83277 0.69146
3627.78433 0.66358
3625.73589 0.66030
3623.68746 0.68333
3621.63902 0.70634
3619.59058 0.70906
3617.54214 0.69887
3615.49370 0.70854
3613.44526 0.72363
3611.39682 0.72858
3609.34839 0.73027
3607.29995 0.73003
3605.25151 0.73854
3603.20307 0.75694
3601.15463 0.76932
3599.10619 0.76984
3597.05776 0.77127
3595.00932 0.77238
3592.96088 0.77258
3590.91244 0.78613
3588.86400 0.79946
3586.81556 0.78262
3584.76713 0.77312
3582.71869 0.78948
3580.67025 0.80845
3578.62181 0.82280
3576.57337 0.83285
3574.52493 0.83593
3572.47650 0.83639
3570.42806 0.84532
3568.37962 0.85277
3566.33118 0.83260
3564.28274 0.81916
3562.23430 0.83231
3560.18587 0.84524
3558.13743 0.84917
3556.08899 0.85534
3554.04055 0.86481
3551.99211 0.86722
3549.94367 0.86749
3547.89524 0.86793
3545.84680 0.85679
3543.79836 0.84959
3541.74992 0.85611
3539.70148 0.86425
3537.65304 0.86644
3535.60461 0.86165
3533.55617 0.86398
3531.50773 0.87377
3529.45929 0.87416
3527.41085 0.86643
3525.36241 0.86358
3523.31398 0.85987
3521.26554 0.85657
3519.21710 0.86278
3517.16866 0.86947
3515.12022 0.87237
3513.07178 0.87766
3511.02335 0.87864
3508.97491 0.87110
3506.92647 0.87236
3504.87803 0.88532
3502.82959 0.89075
3500.78115 0.88577
3498.73272 0.88363
3496.68428 0.88212
3494.63584 0.87251
3492.58740 0.86202
3490.53896 0.86278
3488.49052 0.87137
3486.44209 0.87908
3484.39365 0.88181
3482.34521 0.87668
3480.29677 0.87009
3478.24833 0.86993
3476.19989 0.87280
3474.15146 0.87750
3472.10302 0.88495
3470.05458 0.89036
3468.00614 0.88574
3465.95770 0.87238
3463.90926 0.86635
3461.86082 0.87201
3459.81239 0.87260
3457.76395 0.86555
3455.71551 0.86306
3453.66707 0.86133
3451.61863 0.85689
3449.57019 0.85599
3447.52176 0.85709
3445.47332 0.85702
3443.42488 0.85439
3441.37644 0.84800
3439.32800 0.84366
3437.27956 0.84366
3435.23113 0.84395
3433.18269 0.84266
3431.13425 0.83834
3429.08581 0.83579
3427.03737 0.83917
3424.98893 0.84523
3422.94050 0.84792
3420.89206 0.83780
3418.84362 0.82620
3416.79518 0.82973
3414.74674 0.83817
3412.69830 0.84216
3410.64987 0.84260
3408.60143 0.83812
3406.55299 0.83004
3404.50455 0.82346
3402.45611 0.81995
3400.40767 0.81678
3398.35924 0.81525
3396.31080 0.82030
3394.26236 0.82771
3392.21392 0.83162
3390.16548 0.83635
3388.11704 0.83834
3386.06861 0.83337
3384.02017 0.83418
3381.97173 0.84462
3379.92329 0.85199
3377.87485 0.85190
3375.82641 0.85000
3373.77798 0.85177
3371.72954 0.85990
3369.68110 0.86823
3367.63266 0.86951
3365.58422 0.86992
3363.53578 0.87369
3361.48735 0.87509
3359.43891 0.87205
3357.39047 0.86765
3355.34203 0.86663
3353.29359 0.87032
3351.24515 0.87182
3349.19672 0.86727
3347.14828 0.86525
3345.09984 0.87015
3343.05140 0.87593
3341.00296 0.87986
3338.95452 0.88079
3336.90609 0.88043
3334.85765 0.88099
3332.80921 0.87870
3330.76077 0.87555
3328.71233 0.87752
3326.66389 0.88408
3324.61545 0.88685
3322.56702 0.88690
3320.51858 0.89304
3318.47014 0.89777
3316.42170 0.89671
3314.37326 0.89766
3312.32482 0.89968
3310.27639 0.89819
3308.22795 0.89484
3306.17951 0.89315
3304.13107 0.89296
3302.08263 0.89376
3300.03419 0.89872
3297.98576 0.90472
3295.93732 0.90206
3293.88888 0.89517
3291.84044 0.89555
3289.79200 0.89690
3287.74356 0.89149
3285.69513 0.88932
3283.64669 0.89277
3281.59825 0.89362
3279.54981 0.89463
3277.50137 0.89723
3275.45293 0.89873
3273.40450 0.90097
3271.35606 0.90297
3269.30762 0.90227
3267.25918 0.89878
3265.21074 0.89653
3263.16230 0.89796
3261.11387 0.89807
3259.06543 0.89592
3257.01699 0.89565
3254.96855 0.89643
3252.92011 0.89817
3250.87167 0.90187
3248.82324 0.90469
3246.77480 0.90523
3244.72636 0.90592
3242.67792 0.90731
3240.62948 0.90474
3238.58104 0.90006
3236.53261 0.89906
3234.48417 0.89944
3232.43573 0.89915
3230.38729 0.90060
3228.33885 0.90361
3226.29041 0.90349
3224.24198 0.89837
3222.19354 0.89259
3220.14510 0.88892
3218.09666 0.88666
3216.04822 0.88765
3213.99978 0.89478
3211.95135 0.90537
3209.90291 0.91269
3207.85447 0.91192
3205.80603 0.90375
3203.75759 0.89442
3201.70915 0.89013
3199.66072 0.88954
3197.61228 0.88896
3195.56384 0.88791
3193.51540 0.88577
3191.46696 0.88645
3189.41852 0.89248
3187.37008 0.89672
3185.32165 0.89544
3183.27321 0.89327
3181.22477 0.89091
3179.17633 0.88655
3177.12789 0.88550
3175.07945 0.88952
3173.03102 0.89288
3170.98258 0.89331
3168.93414 0.88957
3166.88570 0.88147
3164.83726 0.87352
3162.78882 0.86833
3160.74039 0.86542
3158.69195 0.86550
3156.64351 0.86863
3154.59507 0.87193
3152.54663 0.86831
3150.49819 0.85881
3148.44976 0.85555
3146.40132 0.86037
3144.35288 0.86548
3142.30444 0.86653
3140.25600 0.86419
3138.20756 0.86005
3136.15913 0.85625
3134.11069 0.85375
3132.06225 0.85260
3130.01381 0.85375
3127.96537 0.85463
3125.91693 0.85428
3123.86850 0.85259
3121.82006 0.84989
3119.77162 0.84850
3117.72318 0.84662
3115.67474 0.84321
3113.62630 0.84061
3111.57787 0.84087
3109.52943 0.84344
3107.48099 0.84370
3105.43255 0.83971
3103.38411 0.83768
3101.33567 0.84019
3099.28724 0.84149
3097.23880 0.84056
3095.19036 0.84226
3093.14192 0.84564
3091.09348 0.84608
3089.04504 0.84472
3086.99661 0.84389
3084.94817 0.84249
3082.89973 0.84244
3080.85129 0.84655
3078.80285 0.84865
3076.75441 0.84517
3074.70598 0.84220
3072.65754 0.84205
3070.60910 0.84377
3068.56066 0.84674
3066.51222 0.84838
3064.46378 0.84689
3062.41535 0.84291
3060.36691 0.84019
3058.31847 0.84170
3056.27003 0.84284
3054.22159 0.84113
3052.17315 0.84116
3050.12471 0.84358
3048.07628 0.84482
3046.02784 0.84340
3043.97940 0.84260
3041.93096 0.84554
3039.88252 0.84882
3037.83408 0.84680
3035.78565 0.84299
3033.73721 0.84380
3031.68877 0.84491
3029.64033 0.84249
3027.59189 0.84107
3025.54345 0.83924
3023.49502 0.83320
3021.44658 0.82798
3019.39814 0.82422
3017.34970 0.81774
3015.30126 0.81025
3013.25282 0.80208
3011.20439 0.79391
3009.15595 0.78821
3007.10751 0.78211
3005.05907 0.77527
3003.01063 0.77142
3000.96219 0.77093
2998.91376 0.77306
2996.86532 0.77273
2994.81688 0.76274
2992.76844 0.74745
2990.72000 0.73583
2988.67156 0.72864
2986.62313 0.72282
2984.57469 0.71700
2982.52625 0.70891
2980.47781 0.69687
2978.42937 0.68276
2976.38093 0.66506
2974.33250 0.64188
2972.28406 0.61695
2970.23562 0.59298
2968.18718 0.57257
2966.13874 0.55560
2964.09030 0.53834
2962.04187 0.52612
2959.99343 0.52558
2957.94499 0.53110
2955.89655 0.53893
2953.84811 0.55254
2951.79967 0.57075
2949.75124 0.58941
2947.70280 0.60389
2945.65436 0.61024
2943.60592 0.60994
2941.55748 0.60689
2939.50904 0.60466
2937.46061 0.60450
2935.41217 0.60387
2933.36373 0.60135
2931.31529 0.60133
2929.26685 0.61032
2927.21841 0.62474
2925.16998 0.63539
2923.12154 0.64132
2921.07310 0.64699
2919.02466 0.65605
2916.97622 0.66524
2914.92778 0.67107
2912.87934 0.67716
2910.83091 0.68558
2908.78247 0.69471
2906.73403 0.70156
2904.68559 0.70599
2902.63715 0.70969
2900.58871 0.71019
2898.54028 0.70882
2896.49184 0.70994
2894.44340 0.70896
2892.39496 0.70405
2890.34652 0.70374
2888.29808 0.70993
2886.24965 0.71468
2884.20121 0.71413
2882.15277 0.70924
2880.10433 0.69873
2878.05589 0.68467
2876.00745 0.67290
2873.95902 0.66889
2871.91058 0.67784
2869.86214 0.69749
2867.81370 0.71644
2865.76526 0.72925
2863.71682 0.74046
2861.66839 0.75312
2859.61995 0.76573
2857.57151 0.77573
2855.52307 0.78220
2853.47463 0.78524
2851.42619 0.78558
2849.37776 0.78618
2847.32932 0.78907
2845.28088 0.79408
2843.23244 0.80236
2841.18400 0.81213
2839.13556 0.81859
2837.08713 0.82085
2835.03869 0.82141
2832.99025 0.82437
2830.94181 0.82932
2828.89337 0.83095
2826.84493 0.82894
2824.79650 0.82826
2822.74806 0.83042
2820.69962 0.83236
2818.65118 0.83184
2816.60274 0.82991
2814.55430 0.82960
2812.50587 0.83054
2810.45743 0.83226
2808.40899 0.83589
2806.36055 0.83826
2804.31211 0.83785
2802.26367 0.83751
2800.21524 0.83734
2798.16680 0.83623
2796.11836 0.83487
2794.06992 0.83419
2792.02148 0.83349
2789.97304 0.83295
2787.92461 0.83597
2785.87617 0.84024
2783.82773 0.84159
2781.77929 0.84165
2779.73085 0.83919
2777.68241 0.83306
2775.63397 0.82854
2773.58554 0.82851
2771.53710 0.83045
2769.48866 0.83352
2767.44022 0.83824
2765.39178 0.84191
2763.34334 0.84137
2761.29491 0.84017
2759.24647 0.84111
2757.19803 0.84033
2755.14959 0.83874
2753.10115 0.84029
2751.05271 0.84325
2749.00428 0.84367
2746.95584 0.84209
2744.90740 0.84190
2742.85896 0.84276
2740.81052 0.84231
2738.76208 0.84140
2736.71365 0.84043
2734.66521 0.83886
2732.61677 0.83947
2730.56833 0.84341
2728.51989 0.84650
2726.47145 0.84666
2724.42302 0.84621
2722.37458 0.84552
2720.32614 0.84462
2718.27770 0.84564
2716.22926 0.84779
2714.18082 0.84862
2712.13239 0.84914
2710.08395 0.84990
2708.03551 0.85031
2705.98707 0.85246
2703.93863 0.85515
2701.89019 0.85530
2699.84176 0.85321
2697.79332 0.85166
2695.74488 0.85230
2693.69644 0.85232
2691.64800 0.85114
2689.59956 0.85055
2687.55113 0.84951
2685.50269 0.84986
2683.45425 0.85237
2681.40581 0.85251
2679.35737 0.85220
2677.30893 0.85577
2675.26050 0.85956
2673.21206 0.85911
2671.16362 0.85513
2669.11518 0.85055
2667.06674 0.84822
2665.01830 0.84785
2662.96987 0.84683
2660.92143 0.84675
2658.87299 0.84873
2656.82455 0.84973
2654.77611 0.84876
2652.72767 0.84705
2650.67924 0.84583
2648.63080 0.84555
2646.58236 0.84482
2644.53392 0.84371
2642.48548 0.84332
2640.43704 0.84201
2638.38860 0.83928
2636.34017 0.83718
2634.29173 0.83752
2632.24329 0.83907
2630.19485 0.84033
2628.14641 0.84034
2626.09797 0.83669
2624.04954 0.83203
2622.00110 0.83176
2619.95266 0.83514
2617.90422 0.83710
2615.85578 0.83657
2613.80734 0.83609
2611.75891 0.83627
2609.71047 0.83447
2607.66203 0.83071
2605.61359 0.83014
2603.56515 0.83262
2601.51671 0.83343
2599.46828 0.83200
2597.41984 0.82940
2595.37140 0.82726
2593.32296 0.82816
2591.27452 0.82800
2589.22608 0.82323
2587.17765 0.81975
2585.12921 0.81982
2583.08077 0.82022
2581.03233 0.81938
2578.98389 0.81915
2576.93545 0.82078
2574.88702 0.82100
2572.83858 0.81843
2570.79014 0.81555
2568.74170 0.81398
2566.69326 0.81399
2564.64482 0.81520
2562.59639 0.81582
2560.54795 0.81468
2558.49951 0.81248
2556.45107 0.81138
2554.40263 0.81254
2552.35419 0.81394
2550.30576 0.81297
2548.25732 0.81014
2546.20888 0.80973
2544.16044 0.81263
2542.11200 0.81478
2540.06356 0.81469
2538.01513 0.81427
2535.96669 0.81526
2533.91825 0.81682
2531.86981 0.81723
2529.82137 0.81754
2527.77293 0.81872
2525.72450 0.81817
2523.67606 0.81616
2521.62762 0.81673
2519.57918 0.81803
2517.53074 0.81778
2515.48230 0.81879
2513.43387 0.82061
2511.38543 0.82080
2509.33699 0.82005
2507.28855 0.82027
2505.24011 0.82226
2503.19167 0.82466
2501.14324 0.82449
2499.09480 0.82135
2497.04636 0.81983
2494.99792 0.82291
2492.94948 0.82720
2490.90104 0.82923
2488.85260 0.82973
2486.80417 0.82958
2484.75573 0.82947
2482.70729 0.82993
2480.65885 0.83033
2478.61041 0.83155
2476.56197 0.83267
2474.51354 0.83088
2472.46510 0.82760
2470.41666 0.82721
2468.36822 0.82974
2466.31978 0.82985
2464.27134 0.82557
2462.22291 0.82116
2460.17447 0.82088
2458.12603 0.82454
2456.07759 0.82738
2454.02915 0.82536
2451.98071 0.82025
2449.93228 0.81687
2447.88384 0.81582
2445.83540 0.81345
2443.78696 0.81045
2441.73852 0.81152
2439.69008 0.81441
2437.64165 0.81351
2435.59321 0.80956
2433.54477 0.80612
2431.49633 0.80482
2429.44789 0.80464
2427.39945 0.80308
2425.35102 0.79922
2423.30258 0.79565
2421.25414 0.79457
2419.20570 0.79466
2417.15726 0.79457
2415.10882 0.79338
2413.06039 0.79010
2411.01195 0.78671
2408.96351 0.78633
2406.91507 0.78773
2404.86663 0.78642
2402.81819 0.78224
2400.76976 0.77908
2398.72132 0.77796
2396.67288 0.77762
2394.62444 0.77701
2392.57600 0.77523
2390.52756 0.77464
2388.47913 0.77684
2386.43069 0.77813
2384.38225 0.77701
2382.33381 0.77592
2380.28537 0.77575
2378.23693 0.77669
2376.18850 0.77972
2374.14006 0.78391
2372.09162 0.78909
2370.04318 0.79324
2367.99474 0.78862
2365.94630 0.77801
2363.89787 0.76773
2361.84943 0.75718
2359.80099 0.75141
2357.75255 0.73916
2355.70411 0.72573
2353.65567 0.73035
2351.60723 0.73769
2349.55880 0.74492
2347.51036 0.75630
2345.46192 0.76216
2343.41348 0.76215
2341.36504 0.76749
2339.31660 0.76059
2337.26817 0.73720
2335.21973 0.72243
2333.17129 0.72751
2331.12285 0.73544
2329.07441 0.73162
2327.02597 0.72631
2324.97754 0.72998
2322.92910 0.73650
2320.88066 0.73705
2318.83222 0.73534
2316.78378 0.73646
2314.73534 0.73790
2312.68691 0.73822
2310.63847 0.73722
2308.59003 0.73677
2306.54159 0.74048
2304.49315 0.74641
2302.44471 0.74975
2300.39628 0.74946
2298.34784 0.74848
2296.29940 0.74860
2294.25096 0.74930
2292.20252 0.74992
2290.15408 0.75028
2288.10565 0.75129
2286.05721 0.75290
2284.00877 0.75358
2281.96033 0.75417
2279.91189 0.75638
2277.86345 0.75870
2275.81502 0.75891
2273.76658 0.75843
2271.71814 0.75954
2269.66970 0.76003
2267.62126 0.75883
2265.57282 0.75880
2263.52439 0.76020
2261.47595 0.76134
2259.42751 0.76225
2257.37907 0.76432
2255.33063 0.76720
2253.28219 0.76844
2251.23376 0.76789
2249.18532 0.76701
2247.13688 0.76614
2245.08844 0.76601
2243.04000 0.76679
2240.99156 0.76749
2238.94313 0.76771
2236.89469 0.76831
2234.84625 0.76951
2232.79781 0.76983
2230.74937 0.77154
2228.70093 0.77597
2226.65250 0.77883
2224.60406 0.77824
2222.55562 0.77632
2220.50718 0.77551
2218.45874 0.77639
2216.41030 0.77720
2214.36186 0.77634
2212.31343 0.77660
2210.26499 0.77992
2208.21655 0.78244
2206.16811 0.78354
2204.11967 0.78495
2202.07123 0.78517
2200.02280 0.78532
2197.97436 0.78799
2195.92592 0.79118
2193.87748 0.79174
2191.82904 0.78971
2189.78060 0.78781
2187.73217 0.78880
2185.68373 0.79127
2183.63529 0.79211
2181.58685 0.79347
2179.53841 0.79734
2177.48997 0.80030
2175.44154 0.80073
2173.39310 0.80129
2171.34466 0.80394
2169.29622 0.80754
2167.24778 0.80929
2165.19934 0.80794
2163.15091 0.80697
2161.10247 0.80962
2159.05403 0.81431
2157.00559 0.81883
2154.95715 0.82160
2152.90871 0.82353
2150.86028 0.82496
2148.81184 0.82440
2146.76340 0.82543
2144.71496 0.82960
2142.66652 0.83270
2140.61808 0.83360
2138.56965 0.83529
2136.52121 0.83942
2134.47277 0.84261
2132.42433 0.84291
2130.37589 0.84271
2128.32745 0.84330
2126.27902 0.84384
2124.23058 0.84316
2122.18214 0.84365
2120.13370 0.84755
2118.08526 0.85033
2116.03682 0.84766
2113.98839 0.84283
2111.93995 0.84151
2109.89151 0.84502
2107.84307 0.84954
2105.79463 0.85047
2103.74619 0.84822
2101.69776 0.84647
2099.64932 0.84566
2097.60088 0.84431
2095.55244 0.84341
2093.50400 0.84341
2091.45556 0.84332
2089.40713 0.84281
2087.35869 0.84079
2085.31025 0.83853
2083.26181 0.83802
2081.21337 0.83700
2079.16493 0.83562
2077.11649 0.83692
2075.06806 0.83752
2073.01962 0.83458
2070.97118 0.83226
2068.92274 0.83311
2066.87430 0.83424
2064.82586 0.83235
2062.77743 0.82907
2060.72899 0.82701
2058.68055 0.82560
2056.63211 0.82389
2054.58367 0.82300
2052.53523 0.82498
2050.48680 0.82707
2048.43836 0.82491
2046.38992 0.82132
2044.34148 0.81982
2042.29304 0.81772
2040.24460 0.81528
2038.19617 0.81629
2036.14773 0.81807
2034.09929 0.81627
2032.05085 0.81265
2030.00241 0.81030
2027.95397 0.80859
2025.90554 0.80835
2023.85710 0.81016
2021.80866 0.81053
2019.76022 0.80894
2017.71178 0.80691
2015.66334 0.80517
2013.61491 0.80445
2011.56647 0.80280
2009.51803 0.80043
2007.46959 0.79955
2005.42115 0.79950
2003.37271 0.80001
2001.32428 0.80013
1999.27584 0.79776
1997.22740 0.79481
1995.17896 0.79423
1993.13052 0.79353
1991.08208 0.78933
1989.03365 0.78669
1986.98521 0.78954
1984.93677 0.79384
1982.88833 0.79627
1980.83989 0.79728
1978.79145 0.79701
1976.74302 0.79651
1974.69458 0.79743
1972.64614 0.79875
1970.59770 0.80051
1968.54926 0.80199
1966.50082 0.80065
1964.45239 0.80007
1962.40395 0.80132
1960.35551 0.79901
1958.30707 0.79431
1956.25863 0.79181
1954.21019 0.79184
1952.16176 0.79279
1950.11332 0.79280
1948.06488 0.79167
1946.01644 0.78919
1943.96800 0.78431
1941.91956 0.77501
1939.87112 0.76553
1937.82269 0.76231
1935.77425 0.76207
1933.72581 0.75828
1931.67737 0.75110
1929.62893 0.74552
1927.58049 0.74160
1925.53206 0.73564
1923.48362 0.72609
1921.43518 0.71870
1919.38674 0.71657
1917.33830 0.71346
1915.28986 0.71060
1913.24143 0.70997
1911.19299 0.70972
1909.14455 0.71019
1907.09611 0.71049
1905.04767 0.71031
1902.99923 0.71004
1900.95080 0.70967
1898.90236 0.70945
1896.85392 0.70776
1894.80548 0.70166
1892.75704 0.69737
1890.70860 0.69884
1888.66017 0.69871
1886.61173 0.69644
1884.56329 0.69512
1882.51485 0.69368
1880.46641 0.69263
1878.41797 0.69232
1876.36954 0.69196
1874.32110 0.69229
1872.27266 0.69334
1870.22422 0.69049
1868.17578 0.68150
1866.12734 0.67819
1864.07891 0.68372
1862.03047 0.69037
1859.98203 0.69518
1857.93359 0.70008
1855.88515 0.70581
1853.83671 0.71119
1851.78828 0.71580
1849.73984 0.71986
1847.69140 0.72484
1845.64296 0.72779
1843.59452 0.72283
1841.54608 0.72187
1839.49765 0.72784
1837.44921 0.73169
1835.40077 0.73412
1833.35233 0.73885
1831.30389 0.73994
1829.25545 0.73364
1827.20702 0.73231
1825.15858 0.73449
1823.11014 0.73618
1821.06170 0.74407
1819.01326 0.75218
1816.96482 0.75270
1814.91639 0.75125
1812.86795 0.75113
1810.81951 0.74632
1808.77107 0.73983
1806.72263 0.73847
1804.67419 0.74007
1802.62575 0.74075
1800.57732 0.73644
1798.52888 0.73156
1796.48044 0.73082
1794.43200 0.73023
1792.38356 0.72328
1790.33512 0.71368
1788.28669 0.71148
1786.23825 0.70875
1784.18981 0.70078
1782.14137 0.69369
1780.09293 0.68747
1778.04449 0.68364
1775.99606 0.68398
1773.94762 0.67890
1771.89918 0.65775
1769.85074 0.63813
1767.80230 0.62870
1765.75386 0.62250
1763.70543 0.61718
1761.65699 0.60497
1759.60855 0.59100
1757.56011 0.57835
1755.51167 0.56318
1753.46323 0.55045
1751.41480 0.53066
1749.36636 0.49747
1747.31792 0.46760
1745.26948 0.44141
1743.22104 0.40984
1741.17260 0.36915
1739.12417 0.32420
1737.07573 0.29509
1735.02729 0.27266
1732.97885 0.23786
1730.93041 0.21900
1728.88197 0.21465
1726.83354 0.21415
1724.78510 0.21708
1722.73666 0.22358
1720.68822 0.23198
1718.63978 0.24137
1716.59134 0.24994
1714.54291 0.25545
1712.49447 0.25785
1710.44603 0.25870
1708.39759 0.25754
1706.34915 0.24880
1704.30071 0.23424
1702.25228 0.22441
1700.20384 0.21339
1698.15540 0.19387
1696.10696 0.17328
1694.05852 0.16012
1692.01008 0.15486
1689.96165 0.14877
1687.91321 0.14228
1685.86477 0.13883
1683.81633 0.12587
1681.76789 0.10808
1679.71945 0.10282
1677.67102 0.10282
1675.62258 0.10015
1673.57414 0.09579
1671.52570 0.09174
1669.47726 0.08107
1667.42882 0.07366
1665.38038 0.07512
1663.33195 0.07597
1661.28351 0.07319
1659.23507 0.07142
1657.18663 0.07130
1655.13819 0.07195
1653.08975 0.07421
1651.04132 0.07505
1648.99288 0.07415
1646.94444 0.06868
1644.89600 0.06227
1642.84756 0.06224
1640.79912 0.06432
1638.75069 0.06686
1636.70225 0.06649
1634.65381 0.06422
1632.60537 0.06682
1630.55693 0.06814
1628.50849 0.06752
1626.46006 0.06848
1624.41162 0.06884
1622.36318 0.06596
1620.31474 0.06509
1618.26630 0.06698
1616.21786 0.06584
1614.16943 0.06135
1612.12099 0.05986
1610.07255 0.06122
1608.02411 0.06225
1605.97567 0.06121
1603.92723 0.05977
1601.87880 0.06032
1599.83036 0.06308
1597.78192 0.06474
1595.73348 0.06324
1593.68504 0.06067
1591.63660 0.05896
1589.58817 0.05921
1587.53973 0.06107
1585.49129 0.06194
1583.44285 0.06208
1581.39441 0.06296
1579.34597 0.06456
1577.29754 0.06493
1575.24910 0.06110
1573.20066 0.05963
1571.15222 0.06133
1569.10378 0.06086
1567.05534 0.05910
1565.00691 0.06045
1562.95847 0.06293
1560.91003 0.06320
1558.86159 0.06086
1556.81315 0.06064
1554.76471 0.06114
1552.71628 0.06324
1550.66784 0.06586
1548.61940 0.06626
1546.57096 0.06482
1544.52252 0.06036
1542.47408 0.05388
1540.42565 0.05630
1538.37721 0.06402
1536.32877 0.06681
1534.28033 0.06935
1532.23189 0.07464
1530.18345 0.07932
1528.13501 0.08053
1526.08658 0.07844
1524.03814 0.07681
1521.98970 0.07546
1519.94126 0.07357
1517.89282 0.07629
1515.84438 0.07933
1513.79595 0.07816
1511.74751 0.07611
1509.69907 0.07647
1507.65063 0.08030
1505.60219 0.08067
1503.55375 0.07960
1501.50532 0.07974
1499.45688 0.07959
1497.40844 0.07760
1495.36000 0.07554
1493.31156 0.07631
1491.26312 0.07761
1489.21469 0.07901
1487.16625 0.08301
1485.11781 0.08489
1483.06937 0.08327
1481.02093 0.08231
1478.97249 0.08411
1476.92406 0.08523
1474.87562 0.08242
1472.82718 0.07951
1470.77874 0.08189
1468.73030 0.08537
1466.68186 0.08844
1464.63343 0.09061
1462.58499 0.09336
1460.53655 0.09725
1458.48811 0.09854
1456.43967 0.09655
1454.39123 0.09943
1452.34280 0.10366
1450.29436 0.10770
1448.24592 0.11253
1446.19748 0.11879
1444.14904 0.12593
1442.10060 0.13211
1440.05217 0.13622
1438.00373 0.14104
1435.95529 0.14954
1433.90685 0.15846
1431.85841 0.16607
1429.80997 0.17230
1427.76154 0.17784
1425.71310 0.18514
1423.66466 0.19424
1421.61622 0.20129
1419.56778 0.20793
1417.51934 0.21991
1415.47091 0.23090
1413.42247 0.23972
1411.37403 0.24907
1409.32559 0.25779
1407.27715 0.26402
1405.22871 0.27051
1403.18028 0.28116
1401.13184 0.29178
1399.08340 0.29756
1397.03496 0.30108
1394.98652 0.30763
1392.93808 0.31576
1390.88965 0.32344
1388.84121 0.33249
1386.79277 0.34362
1384.74433 0.35451
1382.69589 0.36475
1380.64745 0.37482
1378.59901 0.38564
1376.55058 0.39661
1374.50214 0.40617
1372.45370 0.41407
1370.40526 0.42077
1368.35682 0.42838
1366.30838 0.43866
1364.25995 0.45063
1362.21151 0.46324
1360.16307 0.47621
1358.11463 0.48848
1356.06619 0.49874
1354.01775 0.50642
1351.96932 0.51292
1349.92088 0.51903
1347.87244 0.52307
1345.82400 0.52582
1343.77556 0.53131
1341.72712 0.53931
1339.67869 0.54450
1337.63025 0.54738
1335.58181 0.55488
1333.53337 0.56547
1331.48493 0.57363
1329.43649 0.57828
1327.38806 0.58011
1325.33962 0.58228
1323.29118 0.58780
1321.24274 0.59238
1319.19430 0.59309
1317.14586 0.59489
1315.09743 0.59999
1313.04899 0.60478
1311.00055 0.60946
1308.95211 0.61497
1306.90367 0.62028
1304.85523 0.62584
1302.80680 0.63144
1300.75836 0.63646
1298.70992 0.64021
1296.66148 0.64181
1294.61304 0.64329
1292.56460 0.64609
1290.51617 0.64820
1288.46773 0.64868
1286.41929 0.64734
1284.37085 0.64514
1282.32241 0.64192
1280.27397 0.63589
1278.22554 0.62761
1276.17710 0.61782
1274.12866 0.60788
1272.08022 0.59999
1270.03178 0.59418
1267.98334 0.59018
1265.93491 0.59076
1263.88647 0.59569
1261.83803 0.60127
1259.78959 0.60458
1257.74115 0.60173
1255.69271 0.59305
1253.64428 0.58285
1251.59584 0.57157
1249.54740 0.55802
1247.49896 0.54353
1245.45052 0.52714
1243.40208 0.50878
1241.35364 0.49496
1239.30521 0.48789
1237.25677 0.48404
1235.20833 0.48360
1233.15989 0.48570
1231.11145 0.48641
1229.06301 0.48354
1227.01458 0.47634
1224.96614 0.46636
1222.91770 0.45582
1220.86926 0.44522
1218.82082 0.43343
1216.77238 0.41874
1214.72395 0.40225
1212.67551 0.38606
1210.62707 0.36999
1208.57863 0.35274
1206.53019 0.33303
1204.48175 0.31114
1202.43332 0.28892
1200.38488 0.26777
1198.33644 0.24857
1196.28800 0.23179
1194.23956 0.21716
1192.19112 0.20464
1190.14269 0.19348
1188.09425 0.18269
1186.04581 0.17269
1183.99737 0.16386
1181.94893 0.15560
1179.90049 0.14851
1177.85206 0.14288
1175.80362 0.13773
1173.75518 0.13374
1171.70674 0.13109
1169.65830 0.12736
1167.60986 0.12205
1165.56143 0.11912
1163.51299 0.12009
1161.46455 0.12218
1159.41611 0.12295
1157.36767 0.12081
1155.31923 0.11712
1153.27080 0.11458
1151.22236 0.11447
1149.17392 0.11684
1147.12548 0.11717
1145.07704 0.11299
1143.02860 0.10991
1140.98017 0.10947
1138.93173 0.10862
1136.88329 0.10639
1134.83485 0.10222
1132.78641 0.09873
1130.73797 0.09912
1128.68954 0.10225
1126.64110 0.10585
1124.59266 0.10850
1122.54422 0.10900
1120.49578 0.10692
1118.44734 0.10270
1116.39891 0.09996
1114.35047 0.09937
1112.30203 0.09817
1110.25359 0.09892
1108.20515 0.10109
1106.15671 0.10117
1104.10827 0.09849
1102.05984 0.09498
1100.01140 0.09587
1097.96296 0.09929
1095.91452 0.09951
1093.86608 0.09884
1091.81764 0.09973
1089.76921 0.10022
1087.72077 0.09928
1085.67233 0.09775
1083.62389 0.09862
1081.57545 0.10032
1079.52701 0.09879
1077.47858 0.09762
1075.43014 0.09953
1073.38170 0.10367
1071.33326 0.10789
1069.28482 0.10751
1067.23638 0.10522
1065.18795 0.10502
1063.13951 0.10422
1061.09107 0.10457
1059.04263 0.10812
1056.99419 0.11108
1054.94575 0.11328
1052.89732 0.11516
1050.84888 0.11408
1048.80044 0.11213
1046.75200 0.11306
1044.70356 0.11572
1042.65512 0.11557
1040.60669 0.11053
1038.55825 0.10644
1036.50981 0.10823
1034.46137 0.11244
1032.41293 0.11591
1030.36449 0.12036
1028.31606 0.12641
1026.26762 0.12933
1024.21918 0.13027
1022.17074 0.13456
1020.12230 0.13429
1018.07386 0.12757
1016.02543 0.12652
1013.97699 0.13132
1011.92855 0.13660
1009.88011 0.13924
1007.83167 0.13324
1005.78323 0.12310
1003.73480 0.11993
1001.68636 0.12125
999.63792 0.12165
997.58948 0.12329
995.54104 0.12722
993.49260 0.13284
991.44417 0.13574
989.39573 0.13232
987.34729 0.12770
985.29885 0.12559
983.25041 0.12633
981.20197 0.13195
979.15354 0.13759
977.10510 0.13723
975.05666 0.13295
973.00822 0.13060
970.95978 0.13413
968.91134 0.13448
966.86290 0.12431
964.81447 0.11469
962.76603 0.11783
960.71759 0.13055
958.66915 0.13655
956.62071 0.13124
954.57227 0.12621
952.52384 0.12517
950.47540 0.12768
948.42696 0.13805
946.37852 0.14873
944.33008 0.14730
942.28164 0.13749
940.23321 0.13017
938.18477 0.12755
936.13633 0.12444
934.08789 0.12006
932.03945 0.11485
929.99101 0.10491
927.94258 0.09290
925.89414 0.08740
923.84570 0.08933
921.79726 0.08909
919.74882 0.08345
917.70038 0.07909
915.65195 0.07694
913.60351 0.07405
911.55507 0.07023
909.50663 0.06651
907.45819 0.06354
905.40975 0.05965
903.36132 0.05539
901.31288 0.05375
899.26444 0.05443
897.21600 0.05627
895.16756 0.05836
893.11912 0.05827
891.07069 0.05631
889.02225 0.05671
886.97381 0.06019
884.92537 0.06249
882.87693 0.06230
880.82849 0.06303
878.78006 0.06663
876.73162 0.07427
874.68318 0.08431
872.63474 0.09039
870.58630 0.09260
868.53786 0.09422
866.48943 0.09653
864.44099 0.10508
862.39255 0.11962
860.34411 0.13354
858.29567 0.14533
856.24723 0.15412
854.19880 0.15968
852.15036 0.16789
850.10192 0.18019
848.05348 0.18743
846.00504 0.18722
843.95660 0.18730
841.90817 0.19037
839.85973 0.19192
837.81129 0.18806
835.76285 0.18165
833.71441 0.17595
831.66597 0.17012
829.61753 0.16157
827.56910 0.15075
825.52066 0.14218
823.47222 0.13769
821.42378 0.13686
819.37534 0.13593
817.32690 0.13065
815.27847 0.12453
813.23003 0.12166
811.18159 0.11996
809.13315 0.11737
807.08471 0.11508
805.03627 0.11391
802.98784 0.11263
800.93940 0.11107
798.89096 0.10995
796.84252 0.10707
794.79408 0.10179
792.74564 0.09886
790.69721 0.10181
788.64877 0.10712
786.60033 0.11013
784.55189 0.10995
782.50345 0.10784
780.45501 0.10834
778.40658 0.11259
776.35814 0.11386
774.30970 0.10901
772.26126 0.10264
770.21282 0.10112
768.16438 0.11167
766.11595 0.12990
764.06751 0.14110
762.01907 0.14313
759.97063 0.14350
757.92219 0.15164
755.87375 0.16820
753.82532 0.17946
751.77688 0.18260
749.72844 0.18614
747.68000 0.19305
745.63156 0.20265
743.58312 0.21061
741.53469 0.21330
739.48625 0.21239
737.43781 0.20858
735.38937 0.20306
733.34093 0.20422
731.29249 0.21264
729.24406 0.22173
727.19562 0.23330
725.14718 0.24693
723.09874 0.25437
721.05030 0.25162
719.00186 0.24361
716.95343 0.23132
714.90499 0.21630
712.85655 0.20988
710.80811 0.21096
708.75967 0.20291
706.71123 0.19370
704.66280 0.20983
702.61436 0.23223
700.56592 0.23511
698.51748 0.23435
696.46904 0.23919
694.42060 0.24343
692.37216 0.24574
690.32373 0.25556
688.27529 0.26706
686.22685 0.25285
684.17841 0.23813
682.12997 0.24695
680.08153 0.24747
678.03310 0.22838
675.98466 0.21206
673.93622 0.21515
671.88778 0.21736
669.83934 0.19326
667.79090 0.16391
665.74247 0.15774
663.69403 0.15162
661.64559 0.14433
659.59715 0.14733
657.54871 0.16206
655.50027 0.18787
653.45184 0.20772
651.40340 0.20173
649.35496 0.19239
647.30652 0.19251
645.25808 0.18102
643.20964 0.15492
641.16121 0.13422
639.11277 0.14175
637.06433 0.16464
635.01589 0.16448
632.96745 0.14207
630.91901 0.13267
628.87058 0.14742
626.82214 0.15156
624.77370 0.14127
622.72526 0.14996
620.67682 0.15344
618.62838 0.11554
616.57995 0.05430
614.53151 0.03543
612.48307 0.06907
610.43463 0.12008
608.38619 0.15098
606.33775 0.14323
604.28932 0.10547
602.24088 0.04909
600.19244 0.03479
598.14400 0.09937
