3996.50324 0.12141
3994.45480 0.12173
3992.40636 0.12224
3990.35792 0.12284
3988.30948 0.12302
3986.26104 0.12215
3984.21261 0.12070
3982.16417 0.11852
3980.11573 0.11696
3978.06729 0.11786
3976.01885 0.12035
3973.97041 0.12284
3971.92198 0.12271
3969.87354 0.11984
3967.82510 0.11902
3965.77666 0.12084
3963.72822 0.12175
3961.67978 0.12157
3959.63135 0.12129
3957.58291 0.12027
3955.53447 0.11904
3953.48603 0.11834
3951.43759 0.11711
3949.38915 0.11690
3947.34072 0.11917
3945.29228 0.12051
3943.24384 0.12190
3941.19540 0.12358
3939.14696 0.12141
3937.09852 0.11707
3935.05009 0.11409
3933.00165 0.11462
3930.95321 0.11914
3928.90477 0.12131
3926.85633 0.11908
3924.80789 0.12018
3922.75946 0.12503
3920.71102 0.12565
3918.66258 0.12512
3916.61414 0.12779
3914.56570 0.12819
3912.51726 0.12549
3910.46883 0.12431
3908.42039 0.12335
3906.37195 0.12068
3904.32351 0.12237
3902.27507 0.12878
3900.22663 0.13161
3898.17820 0.13168
3896.12976 0.12776
3894.08132 0.12229
3892.03288 0.12315
3889.98444 0.12572
3887.93600 0.11997
3885.88756 0.11672
3883.83913 0.12122
3881.79069 0.12330
3879.74225 0.12578
3877.69381 0.12357
3875.64537 0.11665
3873.59693 0.11469
3871.54850 0.11832
3869.50006 0.12732
3867.45162 0.12999
3865.40318 0.12439
3863.35474 0.12700
3861.30630 0.13276
3859.25787 0.12928
3857.20943 0.12024
3855.16099 0.11499
3853.11255 0.13068
3851.06411 0.14189
3849.01567 0.13381
3846.96724 0.12301
3844.91880 0.11566
3842.87036 0.11313
3840.82192 0.11250
3838.77348 0.11748
3836.72504 0.12766
3834.67661 0.12969
3832.62817 0.12758
3830.57973 0.12692
3828.53129 0.12538
3826.48285 0.12332
3824.43441 0.11972
3822.38598 0.11690
3820.33754 0.12472
3818.28910 0.12843
3816.24066 0.12729
3814.19222 0.12761
3812.14378 0.12252
3810.09535 0.11507
3808.04691 0.11142
3805.99847 0.11492
3803.95003 0.11649
3801.90159 0.12017
3799.85315 0.12827
3797.80472 0.12752
3795.75628 0.12560
3793.70784 0.12307
3791.65940 0.11840
3789.61096 0.11568
3787.56252 0.11455
3785.51409 0.11482
3783.46565 0.11607
3781.41721 0.11551
3779.36877 0.11663
3777.32033 0.11893
3775.27189 0.11740
3773.22346 0.11406
3771.17502 0.11358
3769.12658 0.11778
3767.07814 0.11885
3765.02970 0.11765
3762.98126 0.11668
3760.93283 0.11462
3758.88439 0.11639
3756.83595 0.11921
3754.78751 0.11626
3752.73907 0.11311
3750.69063 0.12658
3748.64219 0.13950
3746.59376 0.13349
3744.54532 0.13356
3742.49688 0.13790
3740.44844 0.13072
3738.40000 0.12109
3736.35156 0.12140
3734.30313 0.13303
3732.25469 0.13536
3730.20625 0.12771
3728.15781 0.12031
3726.10937 0.11946
3724.06093 0.12295
3722.01250 0.12494
3719.96406 0.12673
3717.91562 0.12774
3715.86718 0.12528
3713.81874 0.12192
3711.77030 0.12938
3709.72187 0.14322
3707.67343 0.14291
3705.62499 0.13761
3703.57655 0.13690
3701.52811 0.14549
3699.47967 0.15386
3697.43124 0.15534
3695.38280 0.15530
3693.33436 0.15383
3691.28592 0.15211
3689.23748 0.15909
3687.18904 0.16537
3685.14061 0.16161
3683.09217 0.15607
3681.04373 0.15366
3678.99529 0.15254
3676.94685 0.15319
3674.89841 0.16633
3672.84998 0.17460
3670.80154 0.17590
3668.75310 0.18195
3666.70466 0.18298
3664.65622 0.17960
3662.60778 0.17807
3660.55935 0.17856
3658.51091 0.17767
3656.46247 0.17961
3654.41403 0.18432
3652.36559 0.18381
3650.31715 0.18541
3648.26872 0.19900
3646.22028 0.20171
3644.17184 0.19562
3642.12340 0.19189
3640.07496 0.19208
3638.02652 0.19300
3635.97809 0.19318
3633.92965 0.19346
3631.88121 0.19463
3629.83277 0.19832
3627.78433 0.20114
3625.73589 0.19610
3623.68746 0.19160
3621.63902 0.19147
3619.59058 0.19416
3617.54214 0.19316
3615.49370 0.18513
3613.44526 0.17591
3611.39682 0.17074
3609.34839 0.17068
3607.29995 0.17172
3605.25151 0.16720
3603.20307 0.16080
3601.15463 0.15748
3599.10619 0.15714
3597.05776 0.15682
3595.00932 0.15616
3592.96088 0.15573
3590.91244 0.15285
3588.86400 0.14997
3586.81556 0.15307
3584.76713 0.15270
3582.71869 0.14613
3580.67025 0.14139
3578.62181 0.13969
3576.57337 0.13654
3574.52493 0.13281
3572.47650 0.13163
3570.42806 0.13038
3568.37962 0.12972
3566.33118 0.13444
3564.28274 0.13648
3562.23430 0.13225
3560.18587 0.12636
3558.13743 0.12090
3556.08899 0.11769
3554.04055 0.11858
3551.99211 0.12176
3549.94367 0.12319
3547.89524 0.12257
3545.84680 0.12048
3543.79836 0.11796
3541.74992 0.11656
3539.70148 0.11593
3537.65304 0.11700
3535.60461 0.11862
3533.55617 0.11714
3531.50773 0.11481
3529.45929 0.11596
3527.41085 0.11868
3525.36241 0.11820
3523.31398 0.11618
3521.26554 0.11367
3519.21710 0.10862
3517.16866 0.10438
3515.12022 0.10455
3513.07178 0.10676
3511.02335 0.10744
3508.97491 0.10466
3506.92647 0.10101
3504.87803 0.10070
3502.82959 0.10237
3500.78115 0.10153
3498.73272 0.09962
3496.68428 0.10074
3494.63584 0.10383
3492.58740 0.10546
3490.53896 0.10644
3488.49052 0.10749
3486.44209 0.10675
3484.39365 0.10491
3482.34521 0.10362
3480.29677 0.10239
3478.24833 0.10186
3476.19989 0.10088
3474.15146 0.09651
3472.10302 0.09253
3470.05458 0.09419
3468.00614 0.10107
3465.95770 0.10868
3463.90926 0.11024
3461.86082 0.10683
3459.81239 0.10650
3457.76395 0.10846
3455.71551 0.10911
3453.66707 0.11029
3451.61863 0.11017
3449.57019 0.10778
3447.52176 0.10705
3445.47332 0.10979
3443.42488 0.11264
3441.37644 0.11243
3439.32800 0.11239
3437.27956 0.11495
3435.23113 0.11710
3433.18269 0.11564
3431.13425 0.11150
3429.08581 0.10927
3427.03737 0.10890
3424.98893 0.10711
3422.94050 0.10529
3420.89206 0.10554
3418.84362 0.10550
3416.79518 0.10538
3414.74674 0.10689
3412.69830 0.10764
3410.64987 0.10729
3408.60143 0.10827
3406.55299 0.10971
3404.50455 0.10771
3402.45611 0.10283
3400.40767 0.10198
3398.35924 0.10682
3396.31080 0.10996
3394.26236 0.10896
3392.21392 0.10737
3390.16548 0.10462
3388.11704 0.10179
3386.06861 0.10163
3384.02017 0.10183
3381.97173 0.10258
3379.92329 0.10579
3377.87485 0.10769
3375.82641 0.10707
3373.77798 0.10446
3371.72954 0.10087
3369.68110 0.10142
3367.63266 0.10528
3365.58422 0.10643
3363.53578 0.10612
3361.48735 0.10730
3359.43891 0.10686
3357.39047 0.10464
3355.34203 0.10363
3353.29359 0.10345
3351.24515 0.10317
3349.19672 0.10412
3347.14828 0.10579
3345.09984 0.10485
3343.05140 0.10260
3341.00296 0.10071
3338.95452 0.09859
3336.90609 0.09872
3334.85765 0.10101
3332.80921 0.10299
3330.76077 0.10529
3328.71233 0.10576
3326.66389 0.10230
3324.61545 0.09906
3322.56702 0.09755
3320.51858 0.09669
3318.47014 0.09855
3316.42170 0.10211
3314.37326 0.10226
3312.32482 0.10043
3310.27639 0.10113
3308.22795 0.10145
3306.17951 0.10104
3304.13107 0.10359
3302.08263 0.10658
3300.03419 0.10605
3297.98576 0.10252
3295.93732 0.09938
3293.88888 0.09999
3291.84044 0.10210
3289.79200 0.10163
3287.74356 0.09982
3285.69513 0.09821
3283.64669 0.09890
3281.59825 0.10175
3279.54981 0.10234
3277.50137 0.10255
3275.45293 0.10501
3273.40450 0.10519
3271.35606 0.10131
3269.30762 0.09736
3267.25918 0.09638
3265.21074 0.09744
3263.16230 0.09802
3261.11387 0.09697
3259.06543 0.09473
3257.01699 0.09422
3254.96855 0.09549
3252.92011 0.09535
3250.87167 0.09585
3248.82324 0.09831
3246.77480 0.09943
3244.72636 0.09878
3242.67792 0.09851
3240.62948 0.09972
3238.58104 0.10251
3236.53261 0.10553
3234.48417 0.10575
3232.43573 0.10226
3230.38729 0.09808
3228.33885 0.09680
3226.29041 0.09910
3224.24198 0.10281
3222.19354 0.10530
3220.14510 0.10452
3218.09666 0.10264
3216.04822 0.10391
3213.99978 0.10677
3211.95135 0.10682
3209.90291 0.10436
3207.85447 0.10264
3205.80603 0.10315
3203.75759 0.10427
3201.70915 0.10452
3199.66072 0.10462
3197.61228 0.10529
3195.56384 0.10710
3193.51540 0.10855
3191.46696 0.10766
3189.41852 0.10590
3187.37008 0.10533
3185.32165 0.10582
3183.27321 0.10655
3181.22477 0.10764
3179.17633 0.10872
3177.12789 0.10991
3175.07945 0.11142
3173.03102 0.11005
3170.98258 0.10560
3168.93414 0.10407
3166.88570 0.10738
3164.83726 0.11136
3162.78882 0.11429
3160.74039 0.11826
3158.69195 0.12112
3156.64351 0.11960
3154.59507 0.11639
3152.54663 0.11635
3150.49819 0.12085
3148.44976 0.12333
3146.40132 0.12009
3144.35288 0.11762
3142.30444 0.11934
3140.25600 0.12120
3138.20756 0.12162
3136.15913 0.12341
3134.11069 0.12532
3132.06225 0.12527
3130.01381 0.12642
3127.96537 0.12878
3125.91693 0.12883
3123.86850 0.12779
3121.82006 0.12769
3119.77162 0.12962
3117.72318 0.13334
3115.67474 0.13482
3113.62630 0.13295
3111.57787 0.13048
3109.52943 0.12973
3107.48099 0.13107
3105.43255 0.13342
3103.38411 0.13523
3101.33567 0.13553
3099.28724 0.13460
3097.23880 0.13323
3095.19036 0.13240
3093.14192 0.13158
3091.09348 0.13043
3089.04504 0.13096
3086.99661 0.13329
3084.94817 0.13459
3082.89973 0.13501
3080.85129 0.13510
3078.80285 0.13329
3076.75441 0.13117
3074.70598 0.13128
3072.65754 0.13246
3070.60910 0.13232
3068.56066 0.13140
3066.51222 0.13177
3064.46378 0.13343
3062.41535 0.13435
3060.36691 0.13431
3058.31847 0.13507
3056.27003 0.13738
3054.22159 0.13983
3052.17315 0.14034
3050.12471 0.13940
3048.07628 0.13843
3046.02784 0.13842
3043.97940 0.13945
3041.93096 0.14045
3039.88252 0.14150
3037.83408 0.14313
3035.78565 0.14467
3033.73721 0.14533
3031.68877 0.14654
3029.64033 0.14918
3027.59189 0.15168
3025.54345 0.15466
3023.49502 0.15782
3021.44658 0.16007
3019.39814 0.16434
3017.34970 0.17103
3015.30126 0.17806
3013.25282 0.18555
3011.20439 0.19149
3009.15595 0.19543
3007.10751 0.20157
3005.05907 0.20942
3003.01063 0.21377
3000.96219 0.21527
2998.91376 0.21765
2996.86532 0.22144
2994.81688 0.22716
2992.76844 0.23493
2990.72000 0.24351
2988.67156 0.25027
2986.62313 0.25389
2984.57469 0.26007
2982.52625 0.27199
2980.47781 0.28441
2978.42937 0.29355
2976.38093 0.30161
2974.33250 0.31354
2972.28406 0.32890
2970.23562 0.34183
2968.18718 0.35032
2966.13874 0.35526
2964.09030 0.35531
2962.04187 0.34956
2959.99343 0.34062
2957.94499 0.33189
2955.89655 0.32388
2953.84811 0.31625
2951.79967 0.30827
2949.75124 0.30035
2947.70280 0.29707
2945.65436 0.29907
2943.60592 0.30205
2941.55748 0.30350
2939.50904 0.30276
2937.46061 0.30109
2935.41217 0.29916
2933.36373 0.29691
2931.31529 0.29395
2929.26685 0.28857
2927.21841 0.28046
2925.16998 0.27089
2923.12154 0.26266
2921.07310 0.25663
2919.02466 0.24948
2916.97622 0.24115
2914.92778 0.23606
2912.87934 0.23474
2910.83091 0.23421
2908.78247 0.23298
2906.73403 0.22911
2904.68559 0.22285
2902.63715 0.21989
2900.58871 0.22223
2898.54028 0.22583
2896.49184 0.22847
2894.44340 0.22974
2892.39496 0.22861
2890.34652 0.22528
2888.29808 0.22149
2886.24965 0.21972
2884.20121 0.22168
2882.15277 0.22782
2880.10433 0.23658
2878.05589 0.24408
2876.00745 0.24712
2873.95902 0.24447
2871.91058 0.23702
2869.86214 0.22603
2867.81370 0.21436
2865.76526 0.20663
2863.71682 0.20151
2861.66839 0.19535
2859.61995 0.18982
2857.57151 0.18657
2855.52307 0.18470
2853.47463 0.18291
2851.42619 0.17961
2849.37776 0.17480
2847.32932 0.16942
2845.28088 0.16334
2843.23244 0.15588
2841.18400 0.14760
2839.13556 0.14082
2837.08713 0.13666
2835.03869 0.13489
2832.99025 0.13508
2830.94181 0.13541
2828.89337 0.13397
2826.84493 0.13132
2824.79650 0.12895
2822.74806 0.12630
2820.69962 0.12328
2818.65118 0.12200
2816.60274 0.12395
2814.55430 0.12694
2812.50587 0.12746
2810.45743 0.12652
2808.40899 0.12529
2806.36055 0.12218
2804.31211 0.11947
2802.26367 0.12073
2800.21524 0.12303
2798.16680 0.12248
2796.11836 0.12084
2794.06992 0.12113
2792.02148 0.12340
2789.97304 0.12390
2787.92461 0.12086
2785.87617 0.11804
2783.82773 0.11817
2781.77929 0.12039
2779.73085 0.12271
2777.68241 0.12443
2775.63397 0.12489
2773.58554 0.12333
2771.53710 0.12169
2769.48866 0.12136
2767.44022 0.12168
2765.39178 0.12139
2763.34334 0.12034
2761.29491 0.12078
2759.24647 0.12263
2757.19803 0.12413
2755.14959 0.12538
2753.10115 0.12591
2751.05271 0.12515
2749.00428 0.12382
2746.95584 0.12233
2744.90740 0.12129
2742.85896 0.12191
2740.81052 0.12339
2738.76208 0.12401
2736.71365 0.12459
2734.66521 0.12553
2732.61677 0.12524
2730.56833 0.12445
2728.51989 0.12442
2726.47145 0.12416
2724.42302 0.12364
2722.37458 0.12325
2720.32614 0.12216
2718.27770 0.12081
2716.22926 0.12040
2714.18082 0.11942
2712.13239 0.11676
2710.08395 0.11610
2708.03551 0.11811
2705.98707 0.11861
2703.93863 0.11781
2701.89019 0.11775
2699.84176 0.11837
2697.79332 0.11973
2695.74488 0.12088
2693.69644 0.12061
2691.64800 0.11867
2689.59956 0.11670
2687.55113 0.11590
2685.50269 0.11497
2683.45425 0.11444
2681.40581 0.11587
2679.35737 0.11723
2677.30893 0.11543
2675.26050 0.11298
2673.21206 0.11365
2671.16362 0.11612
2669.11518 0.11805
2667.06674 0.11836
2665.01830 0.11801
2662.96987 0.11878
2660.92143 0.11903
2658.87299 0.11753
2656.82455 0.11701
2654.77611 0.11851
2652.72767 0.11950
2650.67924 0.11890
2648.63080 0.11865
2646.58236 0.11950
2644.53392 0.11997
2642.48548 0.12015
2640.43704 0.12037
2638.38860 0.12038
2636.34017 0.12092
2634.29173 0.12104
2632.24329 0.11962
2630.19485 0.11825
2628.14641 0.11897
2626.09797 0.12138
2624.04954 0.12316
2622.00110 0.12277
2619.95266 0.12178
2617.90422 0.12288
2615.85578 0.12427
2613.80734 0.12304
2611.75891 0.12181
2609.71047 0.12326
2607.66203 0.12536
2605.61359 0.12555
2603.56515 0.12419
2601.51671 0.12394
2599.46828 0.12565
2597.41984 0.12750
2595.37140 0.12721
2593.32296 0.12484
2591.27452 0.12391
2589.22608 0.12565
2587.17765 0.12815
2585.12921 0.12886
2583.08077 0.12663
2581.03233 0.12451
2578.98389 0.12488
2576.93545 0.12782
2574.88702 0.13098
2572.83858 0.13151
2570.79014 0.13092
2568.74170 0.13100
2566.69326 0.13155
2564.64482 0.13169
2562.59639 0.13096
2560.54795 0.12996
2558.49951 0.12958
2556.45107 0.12981
2554.40263 0.12921
2552.35419 0.12765
2550.30576 0.12702
2548.25732 0.12837
2546.20888 0.13067
2544.16044 0.13222
2542.11200 0.13165
2540.06356 0.12920
2538.01513 0.12698
2535.96669 0.12627
2533.91825 0.12647
2531.86981 0.12651
2529.82137 0.12659
2527.77293 0.12660
2525.72450 0.12537
2523.67606 0.12377
2521.62762 0.12335
2519.57918 0.12403
2517.53074 0.12529
2515.48230 0.12658
2513.43387 0.12658
2511.38543 0.12461
2509.33699 0.12264
2507.28855 0.12197
2505.24011 0.12140
2503.19167 0.12080
2501.14324 0.12174
2499.09480 0.12391
2497.04636 0.12410
2494.99792 0.12217
2492.94948 0.12081
2490.90104 0.11953
2488.85260 0.11785
2486.80417 0.11737
2484.75573 0.11781
2482.70729 0.11782
2480.65885 0.11792
2478.61041 0.11820
2476.56197 0.11743
2474.51354 0.11678
2472.46510 0.11749
2470.41666 0.11782
2468.36822 0.11746
2466.31978 0.11829
2464.27134 0.12058
2462.22291 0.12242
2460.17447 0.12204
2458.12603 0.12080
2456.07759 0.12023
2454.02915 0.12046
2451.98071 0.12214
2449.93228 0.12448
2447.88384 0.12580
2445.83540 0.12606
2443.78696 0.12609
2441.73852 0.12544
2439.69008 0.12496
2437.64165 0.12582
2435.59321 0.12633
2433.54477 0.12686
2431.49633 0.12813
2429.44789 0.12944
2427.39945 0.13154
2425.35102 0.13335
2423.30258 0.13370
2421.25414 0.13372
2419.20570 0.13365
2417.15726 0.13391
2415.10882 0.13503
2413.06039 0.13674
2411.01195 0.13796
2408.96351 0.13744
2406.91507 0.13734
2404.86663 0.13905
2402.81819 0.14078
2400.76976 0.14224
2398.72132 0.14368
2396.67288 0.14428
2394.62444 0.14392
2392.57600 0.14383
2390.52756 0.14438
2388.47913 0.14468
2386.43069 0.14464
2384.38225 0.14516
2382.33381 0.14569
2380.28537 0.14406
2378.23693 0.14082
2376.18850 0.13880
2374.14006 0.13894
2372.09162 0.14174
2370.04318 0.14909
2367.99474 0.15794
2365.94630 0.15981
2363.89787 0.15093
2361.84943 0.13790
2359.80099 0.13551
2357.75255 0.15120
2355.70411 0.16683
2353.65567 0.16873
2351.60723 0.16688
2349.55880 0.16201
2347.51036 0.15315
2345.46192 0.14756
2343.41348 0.14911
2341.36504 0.14994
2339.31660 0.14886
2337.26817 0.15304
2335.21973 0.16287
2333.17129 0.16719
2331.12285 0.16210
2329.07441 0.15621
2327.02597 0.15430
2324.97754 0.15609
2322.92910 0.15972
2320.88066 0.16167
2318.83222 0.16059
2316.78378 0.15888
2314.73534 0.15968
2312.68691 0.16255
2310.63847 0.16433
2308.59003 0.16358
2306.54159 0.16162
2304.49315 0.16012
2302.44471 0.15929
2300.39628 0.15888
2298.34784 0.15847
2296.29940 0.15787
2294.25096 0.15762
2292.20252 0.15731
2290.15408 0.15626
2288.10565 0.15489
2286.05721 0.15427
2284.00877 0.15469
2281.96033 0.15488
2279.91189 0.15421
2277.86345 0.15414
2275.81502 0.15548
2273.76658 0.15701
2271.71814 0.15643
2269.66970 0.15374
2267.62126 0.15187
2265.57282 0.15138
2263.52439 0.15118
2261.47595 0.15116
2259.42751 0.15133
2257.37907 0.15174
2255.33063 0.15188
2253.28219 0.15167
2251.23376 0.15130
2249.18532 0.15127
2247.13688 0.15202
2245.08844 0.15272
2243.04000 0.15320
2240.99156 0.15358
2238.94313 0.15252
2236.89469 0.15017
2234.84625 0.14924
2232.79781 0.15042
2230.74937 0.15095
2228.70093 0.14982
2226.65250 0.14935
2224.60406 0.15017
2222.55562 0.15007
2220.50718 0.14899
2218.45874 0.14946
2216.41030 0.15170
2214.36186 0.15397
2212.31343 0.15503
2210.26499 0.15391
2208.21655 0.15212
2206.16811 0.15155
2204.11967 0.15082
2202.07123 0.14933
2200.02280 0.14869
2197.97436 0.14890
2195.92592 0.14871
2193.87748 0.14827
2191.82904 0.14789
2189.78060 0.14724
2187.73217 0.14635
2185.68373 0.14564
2183.63529 0.14612
2181.58685 0.14746
2179.53841 0.14789
2177.48997 0.14797
2175.44154 0.14888
2173.39310 0.14897
2171.34466 0.14767
2169.29622 0.14678
2167.24778 0.14642
2165.19934 0.14653
2163.15091 0.14690
2161.10247 0.14578
2159.05403 0.14272
2157.00559 0.13931
2154.95715 0.13727
2152.90871 0.13676
2150.86028 0.13760
2148.81184 0.13885
2146.76340 0.13835
2144.71496 0.13654
2142.66652 0.13560
2140.61808 0.13596
2138.56965 0.13608
2136.52121 0.13430
2134.47277 0.13244
2132.42433 0.13332
2130.37589 0.13558
2128.32745 0.13680
2126.27902 0.13663
2124.23058 0.13522
2122.18214 0.13280
2120.13370 0.13067
2118.08526 0.13093
2116.03682 0.13389
2113.98839 0.13695
2111.93995 0.13782
2109.89151 0.13658
2107.84307 0.13495
2105.79463 0.13452
2103.74619 0.13511
2101.69776 0.13602
2099.64932 0.13686
2097.60088 0.13717
2095.55244 0.13780
2093.50400 0.13892
2091.45556 0.13892
2089.40713 0.13873
2087.35869 0.14000
2085.31025 0.14122
2083.26181 0.14193
2081.21337 0.14282
2079.16493 0.14302
2077.11649 0.14168
2075.06806 0.14006
2073.01962 0.14107
2070.97118 0.14395
2068.92274 0.14487
2066.87430 0.14349
2064.82586 0.14320
2062.77743 0.14480
2060.72899 0.14571
2058.68055 0.14543
2056.63211 0.14504
2054.58367 0.14516
2052.53523 0.14514
2050.48680 0.14526
2048.43836 0.14702
2046.38992 0.14858
2044.34148 0.14833
2042.29304 0.14876
2040.24460 0.15065
2038.19617 0.15131
2036.14773 0.15010
2034.09929 0.14902
2032.05085 0.14875
2030.00241 0.14872
2027.95397 0.14901
2025.90554 0.14875
2023.85710 0.14790
2021.80866 0.14793
2019.76022 0.14823
2017.71178 0.14880
2015.66334 0.15059
2013.61491 0.15102
2011.56647 0.14891
2009.51803 0.14713
2007.46959 0.14798
2005.42115 0.15048
2003.37271 0.15133
2001.32428 0.14978
1999.27584 0.14877
1997.22740 0.14927
1995.17896 0.14960
1993.13052 0.14957
1991.08208 0.14939
1989.03365 0.14824
1986.98521 0.14672
1984.93677 0.14550
1982.88833 0.14433
1980.83989 0.14334
1978.79145 0.14313
1976.74302 0.14313
1974.69458 0.14307
1972.64614 0.14363
1970.59770 0.14375
1968.54926 0.14356
1966.50082 0.14445
1964.45239 0.14536
1962.40395 0.14551
1960.35551 0.14559
1958.30707 0.14598
1956.25863 0.14683
1954.21019 0.14769
1952.16176 0.14800
1950.11332 0.14800
1948.06488 0.14791
1946.01644 0.14787
1943.96800 0.14805
1941.91956 0.15019
1939.87112 0.15411
1937.82269 0.15681
1935.77425 0.15784
1933.72581 0.15843
1931.67737 0.16005
1929.62893 0.16265
1927.58049 0.16575
1925.53206 0.16975
1923.48362 0.17473
1921.43518 0.18006
1919.38674 0.18443
1917.33830 0.18579
1915.28986 0.18423
1913.24143 0.18300
1911.19299 0.18246
1909.14455 0.18070
1907.09611 0.17876
1905.04767 0.17977
1902.99923 0.18178
1900.95080 0.18166
1898.90236 0.18091
1896.85392 0.18051
1894.80548 0.18001
1892.75704 0.17972
1890.70860 0.18059
1888.66017 0.18268
1886.61173 0.18343
1884.56329 0.18250
1882.51485 0.18249
1880.46641 0.18496
1878.41797 0.18709
1876.36954 0.18744
1874.32110 0.18821
1872.27266 0.18988
1870.22422 0.19351
1868.17578 0.19856
1866.12734 0.19975
1864.07891 0.19808
1862.03047 0.19638
1859.98203 0.19533
1857.93359 0.19341
1855.88515 0.18924
1853.83671 0.18437
1851.78828 0.18140
1849.73984 0.18071
1847.69140 0.18001
1845.64296 0.17958
1843.59452 0.18103
1841.54608 0.18093
1839.49765 0.17861
1837.44921 0.17660
1835.40077 0.17577
1833.35233 0.17498
1831.30389 0.17434
1829.25545 0.17483
1827.20702 0.17448
1825.15858 0.17312
1823.11014 0.17177
1821.06170 0.17016
1819.01326 0.16914
1816.96482 0.16906
1814.91639 0.16899
1812.86795 0.16969
1810.81951 0.17236
1808.77107 0.17495
1806.72263 0.17612
1804.67419 0.17506
1802.62575 0.17335
1800.57732 0.17424
1798.52888 0.17505
1796.48044 0.17531
1794.43200 0.17737
1792.38356 0.18113
1790.33512 0.18170
1788.28669 0.17921
1786.23825 0.18106
1784.18981 0.18773
1782.14137 0.19381
1780.09293 0.19901
1778.04449 0.20233
1775.99606 0.20302
1773.94762 0.20520
1771.89918 0.21533
1769.85074 0.22593
1767.80230 0.22884
1765.75386 0.22976
1763.70543 0.23327
1761.65699 0.24448
1759.60855 0.25983
1757.56011 0.27559
1755.51167 0.29223
1753.46323 0.30697
1751.41480 0.32963
1749.36636 0.36715
1747.31792 0.40529
1745.26948 0.43984
1743.22104 0.47740
1741.17260 0.51159
1739.12417 0.52607
1737.07573 0.51810
1735.02729 0.48741
1732.97885 0.43359
1730.93041 0.39114
1728.88197 0.35533
1726.83354 0.32602
1724.78510 0.30473
1722.73666 0.29015
1720.68822 0.28458
1718.63978 0.28549
1716.59134 0.28895
1714.54291 0.29185
1712.49447 0.29245
1710.44603 0.29028
1708.39759 0.28808
1706.34915 0.28923
1704.30071 0.29366
1702.25228 0.29854
1700.20384 0.30677
1698.15540 0.31610
1696.10696 0.31976
1694.05852 0.32093
1692.01008 0.32325
1689.96165 0.32733
1687.91321 0.33190
1685.86477 0.33557
1683.81633 0.33517
1681.76789 0.33103
1679.71945 0.32960
1677.67102 0.33039
1675.62258 0.32928
1673.57414 0.32510
1671.52570 0.32277
1669.47726 0.31996
1667.42882 0.31514
1665.38038 0.31297
1663.33195 0.30962
1661.28351 0.30064
1659.23507 0.29355
1657.18663 0.29222
1655.13819 0.29563
1653.08975 0.29568
1651.04132 0.28746
1648.99288 0.28656
1646.94444 0.29086
1644.89600 0.29441
1642.84756 0.29686
1640.79912 0.29781
1638.75069 0.29780
1636.70225 0.30107
1634.65381 0.30686
1632.60537 0.30974
1630.55693 0.31253
1628.50849 0.31636
1626.46006 0.31995
1624.41162 0.32399
1622.36318 0.32866
1620.31474 0.33201
1618.26630 0.33551
1616.21786 0.33892
1614.16943 0.34018
1612.12099 0.34285
1610.07255 0.34793
1608.02411 0.35087
1605.97567 0.35156
1603.92723 0.35598
1601.87880 0.36237
1599.83036 0.36574
1597.78192 0.36837
1595.73348 0.37237
1593.68504 0.37522
1591.63660 0.37656
1589.58817 0.37796
1587.53973 0.37994
1585.49129 0.38352
1583.44285 0.38708
1581.39441 0.38705
1579.34597 0.38327
1577.29754 0.37885
1575.24910 0.37954
1573.20066 0.38363
1571.15222 0.38713
1569.10378 0.39005
1567.05534 0.39209
1565.00691 0.39182
1562.95847 0.38821
1560.91003 0.38254
1558.86159 0.37766
1556.81315 0.38432
1554.76471 0.38808
1552.71628 0.38547
1550.66784 0.38242
1548.61940 0.38073
1546.57096 0.37839
1544.52252 0.37559
1542.47408 0.37288
1540.42565 0.36732
1538.37721 0.36083
1536.32877 0.35952
1534.28033 0.36166
1532.23189 0.36498
1530.18345 0.36707
1528.13501 0.36752
1526.08658 0.36538
1524.03814 0.36305
1521.98970 0.36474
1519.94126 0.37110
1517.89282 0.37489
1515.84438 0.37279
1513.79595 0.37062
1511.74751 0.37179
1509.69907 0.37356
1507.65063 0.37512
1505.60219 0.37965
1503.55375 0.38351
1501.50532 0.38695
1499.45688 0.39014
1497.40844 0.39206
1495.36000 0.39664
1493.31156 0.40477
1491.26312 0.41215
1489.21469 0.41335
1487.16625 0.40825
1485.11781 0.40442
1483.06937 0.40398
1481.02093 0.40673
1478.97249 0.40917
1476.92406 0.40878
1474.87562 0.40748
1472.82718 0.39958
1470.77874 0.38334
1468.73030 0.37369
1466.68186 0.37015
1464.63343 0.36836
1462.58499 0.36612
1460.53655 0.36665
1458.48811 0.37183
1456.43967 0.37039
1454.39123 0.36215
1452.34280 0.35878
1450.29436 0.35707
1448.24592 0.35356
1446.19748 0.34739
1444.14904 0.34091
1442.10060 0.33563
1440.05217 0.33283
1438.00373 0.33268
1435.95529 0.33227
1433.90685 0.33126
1431.85841 0.33189
1429.80997 0.33238
1427.76154 0.33090
1425.71310 0.32938
1423.66466 0.32877
1421.61622 0.32806
1419.56778 0.32720
1417.51934 0.32621
1415.47091 0.32343
1413.42247 0.31966
1411.37403 0.31692
1409.32559 0.31591
1407.27715 0.31536
1405.22871 0.31265
1403.18028 0.30824
1401.13184 0.30571
1399.08340 0.30677
1397.03496 0.30848
1394.98652 0.30764
1392.93808 0.30709
1390.88965 0.30635
1388.84121 0.30270
1386.79277 0.29635
1384.74433 0.29137
1382.69589 0.28796
1380.64745 0.28375
1378.59901 0.27776
1376.55058 0.27181
1374.50214 0.26747
1372.45370 0.26615
1370.40526 0.26776
1368.35682 0.26779
1366.30838 0.26407
1364.25995 0.25826
1362.21151 0.25162
1360.16307 0.24530
1358.11463 0.24085
1356.06619 0.23915
1354.01775 0.23989
1351.96932 0.24149
1349.92088 0.24221
1347.87244 0.24205
1345.82400 0.24183
1343.77556 0.24133
1341.72712 0.23999
1339.67869 0.24034
1337.63025 0.24127
1335.58181 0.23812
1333.53337 0.23291
1331.48493 0.22922
1329.43649 0.22928
1327.38806 0.23244
1325.33962 0.23379
1323.29118 0.23080
1321.24274 0.22767
1319.19430 0.22590
1317.14586 0.22454
1315.09743 0.22469
1313.04899 0.22688
1311.00055 0.22931
1308.95211 0.23026
1306.90367 0.23131
1304.85523 0.23256
1302.80680 0.23227
1300.75836 0.23069
1298.70992 0.22935
1296.66148 0.22792
1294.61304 0.22631
1292.56460 0.22817
1290.51617 0.23477
1288.46773 0.24219
1286.41929 0.24877
1284.37085 0.25545
1282.32241 0.26262
1280.27397 0.27121
1278.22554 0.28000
1276.17710 0.28708
1274.12866 0.29190
1272.08022 0.29329
1270.03178 0.29025
1267.98334 0.28511
1265.93491 0.28090
1263.88647 0.27880
1261.83803 0.27738
1259.78959 0.27429
1257.74115 0.27277
1255.69271 0.27513
1253.64428 0.28031
1251.59584 0.28753
1249.54740 0.29503
1247.49896 0.30093
1245.45052 0.30399
1243.40208 0.30315
1241.35364 0.29710
1239.30521 0.28808
1237.25677 0.27977
1235.20833 0.27271
1233.15989 0.26702
1231.11145 0.26297
1229.06301 0.25919
1227.01458 0.25631
1224.96614 0.25702
1222.91770 0.26040
1220.86926 0.26424
1218.82082 0.26949
1216.77238 0.27428
1214.72395 0.27636
1212.67551 0.28084
1210.62707 0.29120
1208.57863 0.30463
1206.53019 0.31813
1204.48175 0.33070
1202.43332 0.34145
1200.38488 0.35010
1198.33644 0.35678
1196.28800 0.35999
1194.23956 0.36032
1192.19112 0.36014
1190.14269 0.35976
1188.09425 0.35669
1186.04581 0.34850
1183.99737 0.33637
1181.94893 0.32352
1179.90049 0.31270
1177.85206 0.30399
1175.80362 0.29248
1173.75518 0.27725
1171.70674 0.26555
1169.65830 0.25890
1167.60986 0.25396
1165.56143 0.25068
1163.51299 0.24708
1161.46455 0.24117
1159.41611 0.23325
1157.36767 0.22117
1155.31923 0.20496
1153.27080 0.18909
1151.22236 0.17628
1149.17392 0.16417
1147.12548 0.15052
1145.07704 0.13910
1143.02860 0.13099
1140.98017 0.12301
1138.93173 0.11754
1136.88329 0.11703
1134.83485 0.11750
1132.78641 0.11797
1130.73797 0.12007
1128.68954 0.12090
1126.64110 0.11929
1124.59266 0.11701
1122.54422 0.11486
1120.49578 0.11435
1118.44734 0.11618
1116.39891 0.11808
1114.35047 0.11740
1112.30203 0.11602
1110.25359 0.11700
1108.20515 0.11647
1106.15671 0.11377
1104.10827 0.11496
1102.05984 0.11910
1100.01140 0.12230
1097.96296 0.12692
1095.91452 0.13259
1093.86608 0.13260
1091.81764 0.12833
1089.76921 0.12862
1087.72077 0.13307
1085.67233 0.13418
1083.62389 0.13121
1081.57545 0.12901
1079.52701 0.12879
1077.47858 0.12944
1075.43014 0.13095
1073.38170 0.13220
1071.33326 0.13078
1069.28482 0.12640
1067.23638 0.12137
1065.18795 0.11529
1063.13951 0.10642
1061.09107 0.09854
1059.04263 0.09415
1056.99419 0.08916
1054.94575 0.08276
1052.89732 0.07855
1050.84888 0.07749
1048.80044 0.07773
1046.75200 0.07591
1044.70356 0.07068
1042.65512 0.06492
1040.60669 0.06060
1038.55825 0.05996
1036.50981 0.06242
1034.46137 0.06360
1032.41293 0.06324
1030.36449 0.06222
1028.31606 0.06193
1026.26762 0.06425
1024.21918 0.06605
1022.17074 0.06341
1020.12230 0.05885
1018.07386 0.05666
1016.02543 0.05805
1013.97699 0.06310
1011.92855 0.06987
1009.88011 0.07452
1007.83167 0.07738
1005.78323 0.08257
1003.73480 0.08879
1001.68636 0.09009
999.63792 0.08424
997.58948 0.07606
995.54104 0.06905
993.49260 0.06077
991.44417 0.05070
989.39573 0.04419
987.34729 0.04598
985.29885 0.04935
983.25041 0.04707
981.20197 0.04644
979.15354 0.05370
977.10510 0.06146
975.05666 0.06361
973.00822 0.06318
970.95978 0.06171
968.91134 0.05893
966.86290 0.05414
964.81447 0.04693
962.76603 0.03990
960.71759 0.03248
958.66915 0.02531
956.62071 0.02151
954.57227 0.01709
952.52384 0.01043
950.47540 0.00501
948.42696 0.00073
946.37852 -0.00376
944.33008 -0.00851
942.28164 -0.01054
940.23321 -0.00821
938.18477 -0.00044
936.13633 0.01283
934.08789 0.02657
932.03945 0.04315
929.99101 0.06684
927.94258 0.09405
925.89414 0.12433
923.84570 0.15733
921.79726 0.19018
919.74882 0.22338
917.70038 0.25497
915.65195 0.27909
913.60351 0.29611
911.55507 0.31067
909.50663 0.32497
907.45819 0.34018
905.40975 0.35361
903.36132 0.36042
901.31288 0.36205
899.26444 0.36412
897.21600 0.36694
895.16756 0.36938
893.11912 0.37353
891.07069 0.37594
889.02225 0.37255
886.97381 0.36488
884.92537 0.35573
882.87693 0.34490
880.82849 0.32871
878.78006 0.30650
876.73162 0.28021
874.68318 0.25117
872.63474 0.22098
870.58630 0.18879
868.53786 0.15164
866.48943 0.11136
864.44099 0.07019
862.39255 0.02858
860.34411 -0.00810
858.29567 -0.03582
856.24723 -0.05631
854.19880 -0.07000
852.15036 -0.07791
850.10192 -0.08270
848.05348 -0.08345
846.00504 -0.08112
843.95660 -0.07569
841.90817 -0.06425
839.85973 -0.04872
837.81129 -0.02901
835.76285 -0.00049
833.71441 0.03392
831.66597 0.06603
829.61753 0.09556
827.56910 0.12524
825.52066 0.15257
823.47222 0.17280
821.42378 0.18391
819.37534 0.19002
817.32690 0.19524
815.27847 0.19901
813.23003 0.20113
811.18159 0.20486
809.13315 0.21346
807.08471 0.22661
805.03627 0.24290
802.98784 0.26068
800.93940 0.27932
798.89096 0.30147
796.84252 0.32642
794.79408 0.34871
792.74564 0.36536
790.69721 0.37718
788.64877 0.38598
786.60033 0.39277
784.55189 0.39928
782.50345 0.40253
780.45501 0.39664
778.40658 0.38707
776.35814 0.37878
774.30970 0.36276
772.26126 0.33331
770.21282 0.29626
768.16438 0.25405
766.11595 0.20709
764.06751 0.15902
762.01907 0.11346
759.97063 0.07244
757.92219 0.03534
755.87375 0.00223
753.82532 -0.02545
751.77688 -0.04587
749.72844 -0.06360
747.68000 -0.08826
745.63156 -0.11725
743.58312 -0.14184
741.53469 -0.16329
739.48625 -0.18527
737.43781 -0.20447
735.38937 -0.21563
733.34093 -0.21954
731.29249 -0.22063
729.24406 -0.22170
727.19562 -0.22643
725.14718 -0.23106
723.09874 -0.22434
721.05030 -0.20799
719.00186 -0.19502
716.95343 -0.18854
714.90499 -0.17906
712.85655 -0.16592
710.80811 -0.15771
708.75967 -0.15302
706.71123 -0.14947
704.66280 -0.15051
702.61436 -0.15143
700.56592 -0.14670
698.51748 -0.13836
696.46904 -0.12828
694.42060 -0.12515
692.37216 -0.13056
690.32373 -0.13662
688.27529 -0.14403
686.22685 -0.13781
684.17841 -0.11473
682.12997 -0.08969
680.08153 -0.06082
678.03310 -0.03398
675.98466 -0.02309
673.93622 -0.03360
671.88778 -0.04722
669.83934 -0.03610
667.79090 0.00130
665.74247 0.02934
663.69403 0.05587
661.64559 0.08074
659.59715 0.08607
657.54871 0.08580
655.50027 0.09498
653.45184 0.10506
651.40340 0.09649
649.35496 0.07650
647.30652 0.07432
645.25808 0.09381
643.20964 0.13413
641.16121 0.17017
639.11277 0.16928
637.06433 0.16547
635.01589 0.19523
632.96745 0.22370
630.91901 0.19627
628.87058 0.13182
626.82214 0.11385
624.77370 0.16491
622.72526 0.20952
620.67682 0.20669
618.62838 0.18953
616.57995 0.22278
614.53151 0.27986
612.48307 0.27826
610.43463 0.23808
608.38619 0.20686
606.33775 0.21331
604.28932 0.25573
602.24088 0.29185
600.19244 0.31961
598.14400 0.33629
