3996.50324 0.68704
3994.45480 0.68264
3992.40636 0.68008
3990.35792 0.67987
3988.30948 0.68142
3986.26104 0.68400
3984.21261 0.68481
3982.16417 0.68351
3980.11573 0.68162
3978.06729 0.68076
3976.01885 0.68238
3973.97041 0.68397
3971.92198 0.68241
3969.87354 0.68158
3967.82510 0.68424
3965.77666 0.68652
3963.72822 0.68623
3961.67978 0.68340
3959.63135 0.68054
3957.58291 0.68195
3955.53447 0.68640
3953.48603 0.68906
3951.43759 0.68810
3949.38915 0.68372
3947.34072 0.67989
3945.29228 0.68001
3943.24384 0.67911
3941.19540 0.67775
3939.14696 0.68038
3937.09852 0.68357
3935.05009 0.68542
3933.00165 0.68669
3930.95321 0.68548
3928.90477 0.68238
3926.85633 0.68075
3924.80789 0.68039
3922.75946 0.68082
3920.71102 0.67999
3918.66258 0.67434
3916.61414 0.66922
3914.56570 0.67165
3912.51726 0.67643
3910.46883 0.67956
3908.42039 0.68151
3906.37195 0.67853
3904.32351 0.66790
3902.27507 0.66166
3900.22663 0.66232
3898.17820 0.66174
3896.12976 0.66367
3894.08132 0.66719
3892.03288 0.66804
3889.98444 0.67007
3887.93600 0.67610
3885.88756 0.67761
3883.83913 0.67307
3881.79069 0.67096
3879.74225 0.67060
3877.69381 0.67364
3875.64537 0.67662
3873.59693 0.67912
3871.54850 0.68298
3869.50006 0.67840
3867.45162 0.67462
3865.40318 0.67415
3863.35474 0.66587
3861.30630 0.66264
3859.25787 0.67063
3857.20943 0.68056
3855.16099 0.68055
3853.11255 0.65971
3851.06411 0.65488
3849.01567 0.66485
3846.96724 0.67134
3844.91880 0.67190
3842.87036 0.66960
3840.82192 0.67081
3838.77348 0.67178
3836.72504 0.66806
3834.67661 0.67047
3832.62817 0.67815
3830.57973 0.68242
3828.53129 0.68137
3826.48285 0.67801
3824.43441 0.67783
3822.38598 0.67770
3820.33754 0.67120
3818.28910 0.67150
3816.24066 0.67400
3814.19222 0.67454
3812.14378 0.67958
3810.09535 0.68555
3808.04691 0.68624
3805.99847 0.68235
3803.95003 0.68142
3801.90159 0.67641
3799.85315 0.67095
3797.80472 0.67517
3795.75628 0.68035
3793.70784 0.68452
3791.65940 0.68842
3789.61096 0.69054
3787.56252 0.69085
3785.51409 0.68930
3783.46565 0.68772
3781.41721 0.68770
3779.36877 0.68774
3777.32033 0.68925
3775.27189 0.69269
3773.22346 0.69635
3771.17502 0.69478
3769.12658 0.68628
3767.07814 0.68259
3765.02970 0.68335
3762.98126 0.68620
3760.93283 0.68973
3758.88439 0.68668
3756.83595 0.68220
3754.78751 0.68396
3752.73907 0.68532
3750.69063 0.67459
3748.64219 0.66915
3746.59376 0.67506
3744.54532 0.67132
3742.49688 0.66786
3740.44844 0.67621
3738.40000 0.68307
3736.35156 0.67722
3734.30313 0.66310
3732.25469 0.66162
3730.20625 0.66939
3728.15781 0.67472
3726.10937 0.67471
3724.06093 0.67679
3722.01250 0.68045
3719.96406 0.67972
3717.91562 0.67865
3715.86718 0.68095
3713.81874 0.68253
3711.77030 0.67211
3709.72187 0.66060
3707.67343 0.66308
3705.62499 0.66663
3703.57655 0.66665
3701.52811 0.65999
3699.47967 0.65209
3697.43124 0.65036
3695.38280 0.65292
3693.33436 0.65626
3691.28592 0.65218
3689.23748 0.63844
3687.18904 0.63900
3685.14061 0.64839
3683.09217 0.65224
3681.04373 0.64993
3678.99529 0.64710
3676.94685 0.64264
3674.89841 0.62892
3672.84998 0.62754
3670.80154 0.63191
3668.75310 0.62509
3666.70466 0.62129
3664.65622 0.62381
3662.60778 0.62570
3660.55935 0.62313
3658.51091 0.61588
3656.46247 0.60566
3654.41403 0.60357
3652.36559 0.61001
3650.31715 0.60809
3648.26872 0.58954
3646.22028 0.58517
3644.17184 0.59064
3642.12340 0.59514
3640.07496 0.59761
3638.02652 0.59843
3635.97809 0.59830
3633.92965 0.59896
3631.88121 0.59867
3629.83277 0.59018
3627.78433 0.57893
3625.73589 0.58273
3623.68746 0.58771
3621.63902 0.58841
3619.59058 0.58917
3617.54214 0.59372
3615.49370 0.59817
3613.44526 0.59609
3611.39682 0.58973
3609.34839 0.58803
3607.29995 0.59273
3605.25151 0.59910
3603.20307 0.60245
3601.15463 0.60034
3599.10619 0.59797
3597.05776 0.60244
3595.00932 0.60887
3592.96088 0.61151
3590.91244 0.61292
3588.86400 0.61305
3586.81556 0.60895
3584.76713 0.60776
3582.71869 0.61100
3580.67025 0.61419
3578.62181 0.61790
3576.57337 0.62270
3574.52493 0.62409
3572.47650 0.62313
3570.42806 0.62180
3568.37962 0.61465
3566.33118 0.60613
3564.28274 0.60807
3562.23430 0.61325
3560.18587 0.61663
3558.13743 0.61700
3556.08899 0.61740
3554.04055 0.61712
3551.99211 0.61237
3549.94367 0.60847
3547.89524 0.60683
3545.84680 0.60584
3543.79836 0.60887
3541.74992 0.61321
3539.70148 0.61477
3537.65304 0.61282
3535.60461 0.61130
3533.55617 0.61487
3531.50773 0.62071
3529.45929 0.62343
3527.41085 0.62072
3525.36241 0.61489
3523.31398 0.60864
3521.26554 0.60648
3519.21710 0.61036
3517.16866 0.61432
3515.12022 0.61599
3513.07178 0.61865
3511.02335 0.62186
3508.97491 0.62234
3506.92647 0.62001
3504.87803 0.61589
3502.82959 0.60979
3500.78115 0.60613
3498.73272 0.60673
3496.68428 0.60874
3494.63584 0.60937
3492.58740 0.60743
3490.53896 0.60514
3488.49052 0.60355
3486.44209 0.60183
3484.39365 0.59943
3482.34521 0.59677
3480.29677 0.59552
3478.24833 0.59601
3476.19989 0.59901
3474.15146 0.60404
3472.10302 0.60362
3470.05458 0.59687
3468.00614 0.59043
3465.95770 0.58573
3463.90926 0.58711
3461.86082 0.59528
3459.81239 0.59661
3457.76395 0.58710
3455.71551 0.57904
3453.66707 0.57654
3451.61863 0.57652
3449.57019 0.57497
3447.52176 0.56968
3445.47332 0.56828
3443.42488 0.57177
3441.37644 0.57064
3439.32800 0.56392
3437.27956 0.55963
3435.23113 0.56229
3433.18269 0.56974
3431.13425 0.57614
3429.08581 0.57963
3427.03737 0.58136
3424.98893 0.57918
3422.94050 0.57251
3420.89206 0.56480
3418.84362 0.56347
3416.79518 0.56731
3414.74674 0.56909
3412.69830 0.57058
3410.64987 0.57351
3408.60143 0.57386
3406.55299 0.57217
3404.50455 0.57057
3402.45611 0.56719
3400.40767 0.56404
3398.35924 0.56498
3396.31080 0.57016
3394.26236 0.57344
3392.21392 0.56938
3390.16548 0.56553
3388.11704 0.56777
3386.06861 0.56994
3384.02017 0.56848
3381.97173 0.56706
3379.92329 0.56640
3377.87485 0.56475
3375.82641 0.56392
3373.77798 0.56648
3371.72954 0.57143
3369.68110 0.57455
3367.63266 0.57351
3365.58422 0.57013
3363.53578 0.56880
3361.48735 0.57325
3359.43891 0.57875
3357.39047 0.57672
3355.34203 0.56941
3353.29359 0.56682
3351.24515 0.56729
3349.19672 0.56398
3347.14828 0.56225
3345.09984 0.56248
3343.05140 0.56016
3341.00296 0.56005
3338.95452 0.56276
3336.90609 0.56312
3334.85765 0.56041
3332.80921 0.55859
3330.76077 0.56176
3328.71233 0.56753
3326.66389 0.57136
3324.61545 0.57507
3322.56702 0.57757
3320.51858 0.57507
3318.47014 0.56964
3316.42170 0.56686
3314.37326 0.57063
3312.32482 0.57421
3310.27639 0.57016
3308.22795 0.56445
3306.17951 0.56279
3304.13107 0.56116
3302.08263 0.55736
3300.03419 0.55678
3297.98576 0.56377
3295.93732 0.57078
3293.88888 0.56992
3291.84044 0.57021
3289.79200 0.57478
3287.74356 0.57390
3285.69513 0.56909
3283.64669 0.56527
3281.59825 0.56316
3279.54981 0.56696
3277.50137 0.57405
3275.45293 0.57607
3273.40450 0.57227
3271.35606 0.56694
3269.30762 0.56448
3267.25918 0.56647
3265.21074 0.57051
3263.16230 0.57212
3261.11387 0.56982
3259.06543 0.56837
3257.01699 0.57145
3254.96855 0.57766
3252.92011 0.58452
3250.87167 0.58865
3248.82324 0.58745
3246.77480 0.58359
3244.72636 0.58305
3242.67792 0.58608
3240.62948 0.58541
3238.58104 0.58149
3236.53261 0.58343
3234.48417 0.58999
3232.43573 0.59088
3230.38729 0.58578
3228.33885 0.58408
3226.29041 0.58891
3224.24198 0.59259
3222.19354 0.58945
3220.14510 0.58488
3218.09666 0.58303
3216.04822 0.58084
3213.99978 0.57838
3211.95135 0.57877
3209.90291 0.58312
3207.85447 0.58663
3205.80603 0.58267
3203.75759 0.57673
3201.70915 0.57721
3199.66072 0.58100
3197.61228 0.58275
3195.56384 0.58040
3193.51540 0.57572
3191.46696 0.57583
3189.41852 0.58370
3187.37008 0.59189
3185.32165 0.59461
3183.27321 0.59498
3181.22477 0.59423
3179.17633 0.58852
3177.12789 0.58010
3175.07945 0.57808
3173.03102 0.58336
3170.98258 0.58930
3168.93414 0.59186
3166.88570 0.58852
3164.83726 0.58307
3162.78882 0.58137
3160.74039 0.58034
3158.69195 0.57786
3156.64351 0.57717
3154.59507 0.57881
3152.54663 0.58000
3150.49819 0.57910
3148.44976 0.57696
3146.40132 0.57626
3144.35288 0.57946
3142.30444 0.58307
3140.25600 0.58296
3138.20756 0.57961
3136.15913 0.57562
3134.11069 0.57443
3132.06225 0.57670
3130.01381 0.57754
3127.96537 0.57418
3125.91693 0.57202
3123.86850 0.57070
3121.82006 0.56663
3119.77162 0.56557
3117.72318 0.57056
3115.67474 0.57530
3113.62630 0.57366
3111.57787 0.56856
3109.52943 0.56769
3107.48099 0.57209
3105.43255 0.57501
3103.38411 0.57392
3101.33567 0.57318
3099.28724 0.57503
3097.23880 0.57695
3095.19036 0.57677
3093.14192 0.57522
3091.09348 0.57197
3089.04504 0.56834
3086.99661 0.56883
3084.94817 0.57177
3082.89973 0.57213
3080.85129 0.57180
3078.80285 0.57346
3076.75441 0.57578
3074.70598 0.57676
3072.65754 0.57459
3070.60910 0.57164
3068.56066 0.57280
3066.51222 0.57627
3064.46378 0.57635
3062.41535 0.57350
3060.36691 0.57116
3058.31847 0.57213
3056.27003 0.57619
3054.22159 0.57774
3052.17315 0.57623
3050.12471 0.57586
3048.07628 0.57567
3046.02784 0.57491
3043.97940 0.57557
3041.93096 0.57607
3039.88252 0.57508
3037.83408 0.57263
3035.78565 0.56894
3033.73721 0.56572
3031.68877 0.56330
3029.64033 0.56251
3027.59189 0.56452
3025.54345 0.56536
3023.49502 0.55983
3021.44658 0.55147
3019.39814 0.54673
3017.34970 0.54210
3015.30126 0.53200
3013.25282 0.52074
3011.20439 0.51358
3009.15595 0.50850
3007.10751 0.50111
3005.05907 0.49200
3003.01063 0.48658
3000.96219 0.48486
2998.91376 0.48163
2996.86532 0.47550
2994.81688 0.46681
2992.76844 0.45587
2990.72000 0.44480
2988.67156 0.43597
2986.62313 0.43053
2984.57469 0.42412
2982.52625 0.41241
2980.47781 0.39822
2978.42937 0.38396
2976.38093 0.36812
2974.33250 0.35022
2972.28406 0.33313
2970.23562 0.31861
2968.18718 0.30660
2966.13874 0.29738
2964.09030 0.29101
2962.04187 0.28793
2959.99343 0.28903
2957.94499 0.29522
2955.89655 0.30525
2953.84811 0.31510
2951.79967 0.32218
2949.75124 0.32721
2947.70280 0.33045
2945.65436 0.33290
2943.60592 0.33413
2941.55748 0.33101
2939.50904 0.32657
2937.46061 0.32572
2935.41217 0.32658
2933.36373 0.32628
2931.31529 0.32545
2929.26685 0.32602
2927.21841 0.33076
2925.16998 0.33909
2923.12154 0.34666
2921.07310 0.35131
2919.02466 0.35383
2916.97622 0.35933
2914.92778 0.36997
2912.87934 0.38075
2910.83091 0.38992
2908.78247 0.39863
2906.73403 0.40577
2904.68559 0.41083
2902.63715 0.41513
2900.58871 0.41900
2898.54028 0.42105
2896.49184 0.42060
2894.44340 0.41913
2892.39496 0.41987
2890.34652 0.42367
2888.29808 0.42769
2886.24965 0.42986
2884.20121 0.43041
2882.15277 0.42696
2880.10433 0.41495
2878.05589 0.39947
2876.00745 0.39118
2873.95902 0.39408
2871.91058 0.40691
2869.86214 0.42376
2867.81370 0.43863
2865.76526 0.45027
2863.71682 0.45950
2861.66839 0.46722
2859.61995 0.47371
2857.57151 0.47886
2855.52307 0.48159
2853.47463 0.48094
2851.42619 0.48149
2849.37776 0.48884
2847.32932 0.50131
2845.28088 0.51694
2843.23244 0.53708
2841.18400 0.55839
2839.13556 0.57380
2837.08713 0.58193
2835.03869 0.58677
2832.99025 0.59283
2830.94181 0.59951
2828.89337 0.60314
2826.84493 0.60569
2824.79650 0.60928
2822.74806 0.61441
2820.69962 0.62021
2818.65118 0.62364
2816.60274 0.62376
2814.55430 0.62086
2812.50587 0.61846
2810.45743 0.61942
2808.40899 0.62307
2806.36055 0.62809
2804.31211 0.63043
2802.26367 0.63024
2800.21524 0.63223
2798.16680 0.63496
2796.11836 0.63630
2794.06992 0.63787
2792.02148 0.64046
2789.97304 0.64390
2787.92461 0.64759
2785.87617 0.65041
2783.82773 0.65175
2781.77929 0.65230
2779.73085 0.65135
2777.68241 0.64813
2775.63397 0.64485
2773.58554 0.64337
2771.53710 0.64341
2769.48866 0.64439
2767.44022 0.64605
2765.39178 0.64833
2763.34334 0.65008
2761.29491 0.65057
2759.24647 0.65172
2757.19803 0.65223
2755.14959 0.65110
2753.10115 0.65084
2751.05271 0.65194
2749.00428 0.65422
2746.95584 0.65563
2744.90740 0.65509
2742.85896 0.65429
2740.81052 0.65367
2738.76208 0.65434
2736.71365 0.65592
2734.66521 0.65624
2732.61677 0.65501
2730.56833 0.65261
2728.51989 0.65309
2726.47145 0.65897
2724.42302 0.66261
2722.37458 0.66166
2720.32614 0.66292
2718.27770 0.66741
2716.22926 0.67077
2714.18082 0.67036
2712.13239 0.66921
2710.08395 0.67007
2708.03551 0.67051
2705.98707 0.67086
2703.93863 0.67215
2701.89019 0.67357
2699.84176 0.67562
2697.79332 0.67715
2695.74488 0.67809
2693.69644 0.67867
2691.64800 0.67655
2689.59956 0.67347
2687.55113 0.67451
2685.50269 0.67846
2683.45425 0.67960
2681.40581 0.67810
2679.35737 0.67791
2677.30893 0.67998
2675.26050 0.68301
2673.21206 0.68526
2671.16362 0.68491
2669.11518 0.68216
2667.06674 0.68018
2665.01830 0.67944
2662.96987 0.67770
2660.92143 0.67737
2658.87299 0.67933
2656.82455 0.67878
2654.77611 0.67468
2652.72767 0.67128
2650.67924 0.67294
2648.63080 0.67779
2646.58236 0.67936
2644.53392 0.67684
2642.48548 0.67429
2640.43704 0.67465
2638.38860 0.67636
2636.34017 0.67581
2634.29173 0.67441
2632.24329 0.67554
2630.19485 0.67778
2628.14641 0.67777
2626.09797 0.67583
2624.04954 0.67510
2622.00110 0.67605
2619.95266 0.67683
2617.90422 0.67677
2615.85578 0.67713
2613.80734 0.67824
2611.75891 0.67839
2609.71047 0.67668
2607.66203 0.67364
2605.61359 0.67189
2603.56515 0.67212
2601.51671 0.67188
2599.46828 0.67097
2597.41984 0.66990
2595.37140 0.66897
2593.32296 0.66917
2591.27452 0.66955
2589.22608 0.66923
2587.17765 0.66822
2585.12921 0.66724
2583.08077 0.66833
2581.03233 0.67004
2578.98389 0.66915
2576.93545 0.66575
2574.88702 0.66346
2572.83858 0.66336
2570.79014 0.66273
2568.74170 0.66239
2566.69326 0.66353
2564.64482 0.66600
2562.59639 0.66970
2560.54795 0.67217
2558.49951 0.67172
2556.45107 0.67009
2554.40263 0.66977
2552.35419 0.67074
2550.30576 0.67056
2548.25732 0.66747
2546.20888 0.66403
2544.16044 0.66467
2542.11200 0.66835
2540.06356 0.67084
2538.01513 0.67230
2535.96669 0.67458
2533.91825 0.67684
2531.86981 0.67755
2529.82137 0.67689
2527.77293 0.67567
2525.72450 0.67375
2523.67606 0.67275
2521.62762 0.67482
2519.57918 0.67760
2517.53074 0.67781
2515.48230 0.67644
2513.43387 0.67538
2511.38543 0.67565
2509.33699 0.67839
2507.28855 0.68122
2505.24011 0.68151
2503.19167 0.68261
2501.14324 0.68434
2499.09480 0.68271
2497.04636 0.68109
2494.99792 0.68208
2492.94948 0.68328
2490.90104 0.68547
2488.85260 0.68873
2486.80417 0.68994
2484.75573 0.68933
2482.70729 0.68921
2480.65885 0.68947
2478.61041 0.69035
2476.56197 0.69409
2474.51354 0.69878
2472.46510 0.69877
2470.41666 0.69571
2468.36822 0.69494
2466.31978 0.69581
2464.27134 0.69529
2462.22291 0.69237
2460.17447 0.68943
2458.12603 0.69026
2456.07759 0.69368
2454.02915 0.69496
2451.98071 0.69279
2449.93228 0.69081
2447.88384 0.69094
2445.83540 0.68886
2443.78696 0.68449
2441.73852 0.68392
2439.69008 0.68698
2437.64165 0.68815
2435.59321 0.68657
2433.54477 0.68509
2431.49633 0.68484
2429.44789 0.68505
2427.39945 0.68338
2425.35102 0.67935
2423.30258 0.67578
2421.25414 0.67391
2419.20570 0.67327
2417.15726 0.67390
2415.10882 0.67409
2413.06039 0.67132
2411.01195 0.66742
2408.96351 0.66684
2406.91507 0.66869
2404.86663 0.66830
2402.81819 0.66505
2400.76976 0.66265
2398.72132 0.66290
2396.67288 0.66361
2394.62444 0.66389
2392.57600 0.66315
2390.52756 0.66019
2388.47913 0.65807
2386.43069 0.65954
2384.38225 0.66128
2382.33381 0.65947
2380.28537 0.65596
2378.23693 0.65493
2376.18850 0.65934
2374.14006 0.66650
2372.09162 0.66762
2370.04318 0.66432
2367.99474 0.66067
2365.94630 0.65309
2363.89787 0.65053
2361.84943 0.65508
2359.80099 0.65150
2357.75255 0.63773
2355.70411 0.62653
2353.65567 0.63046
2351.60723 0.64437
2349.55880 0.65484
2347.51036 0.65899
2345.46192 0.65612
2343.41348 0.65261
2341.36504 0.65757
2339.31660 0.66011
2337.26817 0.65507
2335.21973 0.65115
2333.17129 0.65377
2331.12285 0.65489
2329.07441 0.64793
2327.02597 0.63835
2324.97754 0.62974
2322.92910 0.62786
2320.88066 0.63541
2318.83222 0.64421
2316.78378 0.64705
2314.73534 0.64393
2312.68691 0.63874
2310.63847 0.63543
2308.59003 0.63606
2306.54159 0.63857
2304.49315 0.63982
2302.44471 0.64012
2300.39628 0.64053
2298.34784 0.64113
2296.29940 0.64199
2294.25096 0.64271
2292.20252 0.64312
2290.15408 0.64338
2288.10565 0.64360
2286.05721 0.64442
2284.00877 0.64540
2281.96033 0.64679
2279.91189 0.64932
2277.86345 0.65092
2275.81502 0.65198
2273.76658 0.65423
2271.71814 0.65579
2269.66970 0.65504
2267.62126 0.65232
2265.57282 0.65089
2263.52439 0.65333
2261.47595 0.65604
2259.42751 0.65586
2257.37907 0.65498
2255.33063 0.65510
2253.28219 0.65522
2251.23376 0.65437
2249.18532 0.65283
2247.13688 0.65240
2245.08844 0.65400
2243.04000 0.65476
2240.99156 0.65301
2238.94313 0.65088
2236.89469 0.64999
2234.84625 0.65082
2232.79781 0.65242
2230.74937 0.65297
2228.70093 0.65205
2226.65250 0.64939
2224.60406 0.64538
2222.55562 0.64297
2220.50718 0.64399
2218.45874 0.64540
2216.41030 0.64378
2214.36186 0.64032
2212.31343 0.63884
2210.26499 0.64021
2208.21655 0.64141
2206.16811 0.64123
2204.11967 0.64101
2202.07123 0.64192
2200.02280 0.64425
2197.97436 0.64694
2195.92592 0.64889
2193.87748 0.64959
2191.82904 0.64927
2189.78060 0.64817
2187.73217 0.64678
2185.68373 0.64566
2183.63529 0.64440
2181.58685 0.64433
2179.53841 0.64706
2177.48997 0.65054
2175.44154 0.65193
2173.39310 0.65268
2171.34466 0.65429
2169.29622 0.65442
2167.24778 0.65303
2165.19934 0.65254
2163.15091 0.65383
2161.10247 0.65606
2159.05403 0.65840
2157.00559 0.66123
2154.95715 0.66340
2152.90871 0.66496
2150.86028 0.66669
2148.81184 0.66619
2146.76340 0.66513
2144.71496 0.66608
2142.66652 0.66549
2140.61808 0.66330
2138.56965 0.66383
2136.52121 0.66722
2134.47277 0.67109
2132.42433 0.67310
2130.37589 0.67178
2128.32745 0.66973
2126.27902 0.66989
2124.23058 0.67042
2122.18214 0.67021
2120.13370 0.67090
2118.08526 0.67100
2116.03682 0.66893
2113.98839 0.66737
2111.93995 0.66764
2109.89151 0.66792
2107.84307 0.66928
2105.79463 0.67177
2103.74619 0.67144
2101.69776 0.66849
2099.64932 0.66661
2097.60088 0.66658
2095.55244 0.66580
2093.50400 0.66295
2091.45556 0.66080
2089.40713 0.66035
2087.35869 0.66063
2085.31025 0.66238
2083.26181 0.66433
2081.21337 0.66373
2079.16493 0.66061
2077.11649 0.65736
2075.06806 0.65617
2073.01962 0.65618
2070.97118 0.65518
2068.92274 0.65349
2066.87430 0.65272
2064.82586 0.65258
2062.77743 0.65242
2060.72899 0.65158
2058.68055 0.64965
2056.63211 0.64863
2054.58367 0.64871
2052.53523 0.64952
2050.48680 0.65154
2048.43836 0.65111
2046.38992 0.64787
2044.34148 0.64676
2042.29304 0.64696
2040.24460 0.64674
2038.19617 0.64825
2036.14773 0.64961
2034.09929 0.64948
2032.05085 0.64963
2030.00241 0.64806
2027.95397 0.64398
2025.90554 0.64195
2023.85710 0.64289
2021.80866 0.64324
2019.76022 0.64311
2017.71178 0.64230
2015.66334 0.63957
2013.61491 0.63720
2011.56647 0.63700
2009.51803 0.63913
2007.46959 0.64159
2005.42115 0.64145
2003.37271 0.63996
2001.32428 0.63971
1999.27584 0.63888
1997.22740 0.63584
1995.17896 0.63324
1993.13052 0.63306
1991.08208 0.63502
1989.03365 0.63725
1986.98521 0.63862
1984.93677 0.64063
1982.88833 0.64300
1980.83989 0.64370
1978.79145 0.64358
1976.74302 0.64460
1974.69458 0.64604
1972.64614 0.64558
1970.59770 0.64422
1968.54926 0.64281
1966.50082 0.63955
1964.45239 0.63693
1962.40395 0.63745
1960.35551 0.63924
1958.30707 0.63987
1956.25863 0.63837
1954.21019 0.63602
1952.16176 0.63393
1950.11332 0.63275
1948.06488 0.63230
1946.01644 0.62974
1943.96800 0.62595
1941.91956 0.62330
1939.87112 0.61993
1937.82269 0.61716
1935.77425 0.61620
1933.72581 0.61406
1931.67737 0.60996
1929.62893 0.60508
1927.58049 0.59923
1925.53206 0.59288
1923.48362 0.58648
1921.43518 0.58215
1919.38674 0.57990
1917.33830 0.57790
1915.28986 0.57775
1913.24143 0.57695
1911.19299 0.57388
1909.14455 0.57317
1907.09611 0.57642
1905.04767 0.58013
1902.99923 0.58257
1900.95080 0.58277
1898.90236 0.58210
1896.85392 0.58222
1894.80548 0.58017
1892.75704 0.57657
1890.70860 0.57455
1888.66017 0.57424
1886.61173 0.57518
1884.56329 0.57557
1882.51485 0.57390
1880.46641 0.56998
1878.41797 0.56563
1876.36954 0.56278
1874.32110 0.56134
1872.27266 0.56029
1870.22422 0.55759
1868.17578 0.55376
1866.12734 0.55320
1864.07891 0.55412
1862.03047 0.55527
1859.98203 0.55809
1857.93359 0.56298
1855.88515 0.56976
1853.83671 0.57631
1851.78828 0.57973
1849.73984 0.58057
1847.69140 0.58155
1845.64296 0.58152
1843.59452 0.57879
1841.54608 0.57854
1839.49765 0.58188
1837.44921 0.58574
1835.40077 0.58840
1833.35233 0.59023
1831.30389 0.59050
1829.25545 0.58979
1827.20702 0.59253
1825.15858 0.59557
1823.11014 0.59611
1821.06170 0.59701
1819.01326 0.59765
1816.96482 0.59693
1814.91639 0.59684
1812.86795 0.59747
1810.81951 0.59581
1808.77107 0.59384
1806.72263 0.59419
1804.67419 0.59537
1802.62575 0.59738
1800.57732 0.59738
1798.52888 0.59386
1796.48044 0.59115
1794.43200 0.59123
1792.38356 0.59133
1790.33512 0.58900
1788.28669 0.58699
1786.23825 0.58499
1784.18981 0.58356
1782.14137 0.58382
1780.09293 0.58199
1778.04449 0.57834
1775.99606 0.57471
1773.94762 0.56573
1771.89918 0.55100
1769.85074 0.54310
1767.80230 0.53955
1765.75386 0.53483
1763.70543 0.52752
1761.65699 0.51583
1759.60855 0.50532
1757.56011 0.49104
1755.51167 0.46912
1753.46323 0.44787
1751.41480 0.42133
1749.36636 0.38421
1747.31792 0.34686
1745.26948 0.30938
1743.22104 0.26961
1741.17260 0.23566
1739.12417 0.21309
1737.07573 0.20236
1735.02729 0.20182
1732.97885 0.21482
1730.93041 0.23237
1728.88197 0.25022
1726.83354 0.26731
1724.78510 0.28014
1722.73666 0.28825
1720.68822 0.29136
1718.63978 0.29195
1716.59134 0.29753
1714.54291 0.30589
1712.49447 0.31083
1710.44603 0.31562
1708.39759 0.31819
1706.34915 0.31671
1704.30071 0.31547
1702.25228 0.31324
1700.20384 0.30387
1698.15540 0.29041
1696.10696 0.27841
1694.05852 0.27174
1692.01008 0.26990
1689.96165 0.26758
1687.91321 0.26272
1685.86477 0.25540
1683.81633 0.24948
1681.76789 0.25137
1679.71945 0.25298
1677.67102 0.25143
1675.62258 0.24850
1673.57414 0.24601
1671.52570 0.24368
1669.47726 0.24323
1667.42882 0.24609
1665.38038 0.24854
1663.33195 0.24995
1661.28351 0.25112
1659.23507 0.25122
1657.18663 0.25026
1655.13819 0.25048
1653.08975 0.25579
1651.04132 0.25733
1648.99288 0.25499
1646.94444 0.25427
1644.89600 0.25586
1642.84756 0.25775
1640.79912 0.26060
1638.75069 0.26377
1636.70225 0.26295
1634.65381 0.25722
1632.60537 0.25489
1630.55693 0.25459
1628.50849 0.25316
1626.46006 0.25038
1624.41162 0.24894
1622.36318 0.24753
1620.31474 0.24548
1618.26630 0.24412
1616.21786 0.24472
1614.16943 0.24740
1612.12099 0.24965
1610.07255 0.25007
1608.02411 0.24774
1605.97567 0.24561
1603.92723 0.24702
1601.87880 0.24932
1599.83036 0.24783
1597.78192 0.24430
1595.73348 0.24292
1593.68504 0.24420
1591.63660 0.24557
1589.58817 0.24517
1587.53973 0.24366
1585.49129 0.24282
1583.44285 0.24280
1581.39441 0.24264
1579.34597 0.24286
1577.29754 0.24248
1575.24910 0.23941
1573.20066 0.23647
1571.15222 0.23395
1569.10378 0.23297
1567.05534 0.23493
1565.00691 0.23661
1562.95847 0.23567
1560.91003 0.23355
1558.86159 0.23767
1556.81315 0.24081
1554.76471 0.23684
1552.71628 0.23385
1550.66784 0.23260
1548.61940 0.23349
1546.57096 0.23561
1544.52252 0.23563
1542.47408 0.23433
1540.42565 0.23266
1538.37721 0.23026
1536.32877 0.23103
1534.28033 0.23171
1532.23189 0.23335
1530.18345 0.23601
1528.13501 0.23834
1526.08658 0.24106
1524.03814 0.24053
1521.98970 0.23585
1519.94126 0.23443
1517.89282 0.23602
1515.84438 0.23560
1513.79595 0.23421
1511.74751 0.23452
1509.69907 0.23654
1507.65063 0.23618
1505.60219 0.23207
1503.55375 0.23335
1501.50532 0.23584
1499.45688 0.23521
1497.40844 0.23051
1495.36000 0.22709
1493.31156 0.22512
1491.26312 0.22057
1489.21469 0.21272
1487.16625 0.20973
1485.11781 0.21115
1483.06937 0.21192
1481.02093 0.21150
1478.97249 0.20947
1476.92406 0.20524
1474.87562 0.20142
1472.82718 0.20368
1470.77874 0.20929
1468.73030 0.21237
1466.68186 0.21420
1464.63343 0.21458
1462.58499 0.21442
1460.53655 0.21507
1458.48811 0.21647
1456.43967 0.21934
1454.39123 0.22170
1452.34280 0.22309
1450.29436 0.22337
1448.24592 0.22245
1446.19748 0.22311
1444.14904 0.22658
1442.10060 0.23054
1440.05217 0.23362
1438.00373 0.23476
1435.95529 0.23362
1433.90685 0.23370
1431.85841 0.23525
1429.80997 0.23656
1427.76154 0.23728
1425.71310 0.23823
1423.66466 0.23879
1421.61622 0.23794
1419.56778 0.23632
1417.51934 0.23617
1415.47091 0.23688
1413.42247 0.23684
1411.37403 0.23769
1409.32559 0.23947
1407.27715 0.23948
1405.22871 0.23839
1403.18028 0.23992
1401.13184 0.24156
1399.08340 0.23976
1397.03496 0.23751
1394.98652 0.23787
1392.93808 0.24025
1390.88965 0.24398
1388.84121 0.24887
1386.79277 0.25610
1384.74433 0.26546
1382.69589 0.27279
1380.64745 0.27702
1378.59901 0.28150
1376.55058 0.28731
1374.50214 0.29360
1372.45370 0.29803
1370.40526 0.30041
1368.35682 0.30618
1366.30838 0.31709
1364.25995 0.32996
1362.21151 0.34207
1360.16307 0.35025
1358.11463 0.35531
1356.06619 0.36061
1354.01775 0.36670
1351.96932 0.37084
1349.92088 0.37208
1347.87244 0.37255
1345.82400 0.37485
1343.77556 0.37722
1341.72712 0.37722
1339.67869 0.37851
1337.63025 0.38511
1335.58181 0.39146
1333.53337 0.39478
1331.48493 0.39677
1329.43649 0.39719
1327.38806 0.39637
1325.33962 0.39616
1323.29118 0.39797
1321.24274 0.40103
1319.19430 0.40310
1317.14586 0.40364
1315.09743 0.40352
1313.04899 0.40286
1311.00055 0.40093
1308.95211 0.39870
1306.90367 0.39812
1304.85523 0.39708
1302.80680 0.39441
1300.75836 0.39394
1298.70992 0.39473
1296.66148 0.39349
1294.61304 0.39140
1292.56460 0.38651
1290.51617 0.37724
1288.46773 0.36714
1286.41929 0.35653
1284.37085 0.34443
1282.32241 0.33246
1280.27397 0.32050
1278.22554 0.30603
1276.17710 0.29046
1274.12866 0.28004
1272.08022 0.27647
1270.03178 0.27629
1267.98334 0.27774
1265.93491 0.28052
1263.88647 0.28378
1261.83803 0.28654
1259.78959 0.28802
1257.74115 0.28762
1255.69271 0.28485
1253.64428 0.27977
1251.59584 0.27233
1249.54740 0.26313
1247.49896 0.25442
1245.45052 0.24846
1243.40208 0.24651
1241.35364 0.24909
1239.30521 0.25550
1237.25677 0.26248
1235.20833 0.26872
1233.15989 0.27632
1231.11145 0.28485
1229.06301 0.29207
1227.01458 0.29722
1224.96614 0.30158
1222.91770 0.30639
1220.86926 0.30897
1218.82082 0.30612
1216.77238 0.29902
1214.72395 0.29123
1212.67551 0.28410
1210.62707 0.27612
1208.57863 0.26673
1206.53019 0.25609
1204.48175 0.24455
1202.43332 0.23403
1200.38488 0.22603
1198.33644 0.22121
1196.28800 0.21918
1194.23956 0.21795
1192.19112 0.21716
1190.14269 0.21880
1188.09425 0.22360
1186.04581 0.22952
1183.99737 0.23482
1181.94893 0.24017
1179.90049 0.24609
1177.85206 0.25138
1175.80362 0.25737
1173.75518 0.26608
1171.70674 0.27387
1169.65830 0.27778
1167.60986 0.27900
1165.56143 0.27849
1163.51299 0.27906
1161.46455 0.28305
1159.41611 0.28925
1157.36767 0.29735
1155.31923 0.30911
1153.27080 0.32233
1151.22236 0.33397
1149.17392 0.34611
1147.12548 0.35823
1145.07704 0.36691
1143.02860 0.37306
1140.98017 0.37704
1138.93173 0.37753
1136.88329 0.37752
1134.83485 0.37741
1132.78641 0.37373
1130.73797 0.36867
1128.68954 0.36563
1126.64110 0.36396
1124.59266 0.36274
1122.54422 0.36167
1120.49578 0.36122
1118.44734 0.36289
1116.39891 0.36620
1114.35047 0.36880
1112.30203 0.36897
1110.25359 0.36606
1108.20515 0.36305
1106.15671 0.36311
1104.10827 0.36304
1102.05984 0.36226
1100.01140 0.36241
1097.96296 0.35920
1095.91452 0.35297
1093.86608 0.35059
1091.81764 0.35425
1089.76921 0.35652
1087.72077 0.35117
1085.67233 0.34394
1083.62389 0.34163
1081.57545 0.34361
1079.52701 0.34648
1077.47858 0.34703
1075.43014 0.34506
1073.38170 0.34567
1071.33326 0.35159
1069.28482 0.36005
1067.23638 0.36779
1065.18795 0.37595
1063.13951 0.38784
1061.09107 0.39869
1059.04263 0.40125
1056.99419 0.39933
1054.94575 0.39842
1052.89732 0.39808
1050.84888 0.39875
1048.80044 0.39811
1046.75200 0.39867
1044.70356 0.40498
1042.65512 0.41011
1040.60669 0.41390
1038.55825 0.41986
1036.50981 0.42133
1034.46137 0.41705
1032.41293 0.41508
1030.36449 0.41993
1028.31606 0.42963
1026.26762 0.43647
1024.21918 0.43277
1022.17074 0.42596
1020.12230 0.42741
1018.07386 0.43361
1016.02543 0.43589
1013.97699 0.43528
1011.92855 0.43347
1009.88011 0.42810
1007.83167 0.42221
1005.78323 0.41988
1003.73480 0.42244
1001.68636 0.42660
999.63792 0.42939
997.58948 0.43406
995.54104 0.44132
993.49260 0.45067
991.44417 0.46030
989.39573 0.46315
987.34729 0.45577
985.29885 0.44661
983.25041 0.44823
981.20197 0.45668
979.15354 0.45872
977.10510 0.45363
975.05666 0.44675
973.00822 0.44463
970.95978 0.44884
968.91134 0.45100
966.86290 0.45221
964.81447 0.45861
962.76603 0.46514
960.71759 0.46746
958.66915 0.46559
956.62071 0.46401
954.57227 0.47276
952.52384 0.49155
950.47540 0.50640
948.42696 0.50937
946.37852 0.51065
944.33008 0.51604
942.28164 0.51985
940.23321 0.52134
938.18477 0.51692
936.13633 0.50238
934.08789 0.48609
932.03945 0.46967
929.99101 0.43975
927.94258 0.39755
925.89414 0.36147
923.84570 0.33966
921.79726 0.32480
919.74882 0.30826
917.70038 0.28966
915.65195 0.27324
913.60351 0.26063
911.55507 0.25287
909.50663 0.24892
907.45819 0.24445
905.40975 0.23756
903.36132 0.22898
901.31288 0.22568
899.26444 0.23158
897.21600 0.23855
895.16756 0.24085
893.11912 0.24041
891.07069 0.24100
889.02225 0.24465
886.97381 0.25297
884.92537 0.26755
882.87693 0.28715
880.82849 0.31081
878.78006 0.33873
876.73162 0.37289
874.68318 0.41896
872.63474 0.47841
870.58630 0.54355
868.53786 0.61001
866.48943 0.68157
864.44099 0.76008
862.39255 0.84098
860.34411 0.91400
858.29567 0.96546
856.24723 0.99107
854.19880 1.00057
852.15036 1.00443
850.10192 1.00082
848.05348 0.98436
846.00504 0.95968
843.95660 0.92581
841.90817 0.87854
839.85973 0.82588
837.81129 0.77447
835.76285 0.71855
833.71441 0.65804
831.66597 0.59990
829.61753 0.54384
827.56910 0.49413
825.52066 0.45575
823.47222 0.42709
821.42378 0.41089
819.37534 0.40760
817.32690 0.40879
815.27847 0.40808
813.23003 0.40533
811.18159 0.39959
809.13315 0.38697
807.08471 0.36841
805.03627 0.34930
802.98784 0.33237
800.93940 0.31753
798.89096 0.30251
796.84252 0.28713
794.79408 0.27225
792.74564 0.25577
790.69721 0.23786
788.64877 0.22165
786.60033 0.21025
784.55189 0.20423
782.50345 0.20270
780.45501 0.20395
778.40658 0.20621
776.35814 0.21466
774.30970 0.23390
772.26126 0.26096
770.21282 0.29694
768.16438 0.34920
766.11595 0.41506
764.06751 0.48248
762.01907 0.55157
759.97063 0.62791
757.92219 0.70988
755.87375 0.79503
753.82532 0.87842
751.77688 0.94886
749.72844 1.00974
747.68000 1.08784
745.63156 1.19030
743.58312 1.29754
741.53469 1.39759
739.48625 1.48849
737.43781 1.56611
735.38937 1.61516
733.34093 1.63920
731.29249 1.65961
729.24406 1.68373
727.19562 1.71086
725.14718 1.71766
723.09874 1.68104
721.05030 1.61323
719.00186 1.54092
716.95343 1.47710
714.90499 1.41455
712.85655 1.37192
710.80811 1.35399
708.75967 1.32353
706.71123 1.29308
704.66280 1.27744
702.61436 1.24647
700.56592 1.20543
698.51748 1.16930
696.46904 1.15002
694.42060 1.16044
692.37216 1.16500
690.32373 1.14420
688.27529 1.13557
686.22685 1.12851
684.17841 1.07733
682.12997 1.00283
680.08153 0.95117
678.03310 0.92984
675.98466 0.91387
673.93622 0.89286
671.88778 0.86782
669.83934 0.82456
667.79090 0.74603
665.74247 0.70247
663.69403 0.70090
661.64559 0.71279
659.59715 0.71874
657.54871 0.68742
655.50027 0.64951
653.45184 0.66360
651.40340 0.70226
649.35496 0.69312
647.30652 0.62324
645.25808 0.55987
643.20964 0.53654
641.16121 0.52599
639.11277 0.51026
637.06433 0.49329
635.01589 0.48880
632.96745 0.49340
630.91901 0.49843
628.87058 0.50886
626.82214 0.51200
624.77370 0.51049
622.72526 0.53055
620.67682 0.55017
618.62838 0.51071
616.57995 0.38143
614.53151 0.29875
612.48307 0.33887
610.43463 0.41692
608.38619 0.44719
606.33775 0.42152
604.28932 0.39580
602.24088 0.41539
600.19244 0.43937
598.14400 0.40533
