3996.50324 -0.20339
3994.45480 -0.20199
3992.40636 -0.20197
3990.35792 -0.20305
3988.30948 -0.20409
3986.26104 -0.20487
3984.21261 -0.20580
3982.16417 -0.20669
3980.11573 -0.20647
3978.06729 -0.20494
3976.01885 -0.20371
3973.97041 -0.20427
3971.92198 -0.20586
3969.87354 -0.20736
3967.82510 -0.20796
3965.77666 -0.20700
3963.72822 -0.20582
3961.67978 -0.20548
3959.63135 -0.20500
3957.58291 -0.20500
3955.53447 -0.20619
3953.48603 -0.20719
3951.43759 -0.20768
3949.38915 -0.20814
3947.34072 -0.20793
3945.29228 -0.20629
3943.24384 -0.20484
3941.19540 -0.20520
3939.14696 -0.20626
3937.09852 -0.20703
3935.05009 -0.20678
3933.00165 -0.20594
3930.95321 -0.20596
3928.90477 -0.20631
3926.85633 -0.20517
3924.80789 -0.20334
3922.75946 -0.20297
3920.71102 -0.20257
3918.66258 -0.20136
3916.61414 -0.20223
3914.56570 -0.20463
3912.51726 -0.20461
3910.46883 -0.20249
3908.42039 -0.19980
3906.37195 -0.19663
3904.32351 -0.19511
3902.27507 -0.19720
3900.22663 -0.19950
3898.17820 -0.20052
3896.12976 -0.19999
3894.08132 -0.19790
3892.03288 -0.19793
3889.98444 -0.20106
3887.93600 -0.20069
3885.88756 -0.19778
3883.83913 -0.19656
3881.79069 -0.19704
3879.74225 -0.20011
3877.69381 -0.20139
3875.64537 -0.19946
3873.59693 -0.19960
3871.54850 -0.20200
3869.50006 -0.20228
3867.45162 -0.19980
3865.40318 -0.19729
3863.35474 -0.19730
3861.30630 -0.19813
3859.25787 -0.19747
3857.20943 -0.19502
3855.16099 -0.19096
3853.11255 -0.19301
3851.06411 -0.19989
3849.01567 -0.20062
3846.96724 -0.19950
3844.91880 -0.19852
3842.87036 -0.19764
3840.82192 -0.19746
3838.77348 -0.20000
3836.72504 -0.20366
3834.67661 -0.20394
3832.62817 -0.20380
3830.57973 -0.20464
3828.53129 -0.20413
3826.48285 -0.20228
3824.43441 -0.19901
3822.38598 -0.19550
3820.33754 -0.19837
3818.28910 -0.20142
3816.24066 -0.20205
3814.19222 -0.20507
3812.14378 -0.20536
3810.09535 -0.20279
3808.04691 -0.20111
3805.99847 -0.20204
3803.95003 -0.20101
3801.90159 -0.19882
3799.85315 -0.20031
3797.80472 -0.20195
3795.75628 -0.20340
3793.70784 -0.20441
3791.65940 -0.20459
3789.61096 -0.20466
3787.56252 -0.20429
3785.51409 -0.20456
3783.46565 -0.20566
3781.41721 -0.20533
3779.36877 -0.20556
3777.32033 -0.20730
3775.27189 -0.20735
3773.22346 -0.20613
3771.17502 -0.20532
3769.12658 -0.20648
3767.07814 -0.20827
3765.02970 -0.20928
3762.98126 -0.20922
3760.93283 -0.20781
3758.88439 -0.20751
3756.83595 -0.20819
3754.78751 -0.20657
3752.73907 -0.20474
3750.69063 -0.20889
3748.64219 -0.21296
3746.59376 -0.21159
3744.54532 -0.21039
3742.49688 -0.21010
3740.44844 -0.20921
3738.40000 -0.20757
3736.35156 -0.20505
3734.30313 -0.20654
3732.25469 -0.21259
3730.20625 -0.21538
3728.15781 -0.21455
3726.10937 -0.21368
3724.06093 -0.21505
3722.01250 -0.21650
3719.96406 -0.21670
3717.91562 -0.21565
3715.86718 -0.21325
3713.81874 -0.20978
3711.77030 -0.20827
3709.72187 -0.21459
3707.67343 -0.22037
3705.62499 -0.22075
3703.57655 -0.21909
3701.52811 -0.21976
3699.47967 -0.22167
3697.43124 -0.22150
3695.38280 -0.22039
3693.33436 -0.21930
3691.28592 -0.21779
3689.23748 -0.21845
3687.18904 -0.22211
3685.14061 -0.22350
3683.09217 -0.22302
3681.04373 -0.22217
3678.99529 -0.22132
3676.94685 -0.22176
3674.89841 -0.22569
3672.84998 -0.22779
3670.80154 -0.22876
3668.75310 -0.23326
3666.70466 -0.23582
3664.65622 -0.23618
3662.60778 -0.23729
3660.55935 -0.23880
3658.51091 -0.24003
3656.46247 -0.24180
3654.41403 -0.24310
3652.36559 -0.24206
3650.31715 -0.24014
3648.26872 -0.24498
3646.22028 -0.25183
3644.17184 -0.25471
3642.12340 -0.25682
3640.07496 -0.25885
3638.02652 -0.25984
3635.97809 -0.26113
3633.92965 -0.26363
3631.88121 -0.26440
3629.83277 -0.26421
3627.78433 -0.26905
3625.73589 -0.27341
3623.68746 -0.27435
3621.63902 -0.27338
3619.59058 -0.27330
3617.54214 -0.27732
3615.49370 -0.28291
3613.44526 -0.28853
3611.39682 -0.29191
3609.34839 -0.29322
3607.29995 -0.29573
3605.25151 -0.29921
3603.20307 -0.30182
3601.15463 -0.30321
3599.10619 -0.30415
3597.05776 -0.30598
3595.00932 -0.30872
3592.96088 -0.31080
3590.91244 -0.31166
3588.86400 -0.31318
3586.81556 -0.31710
3584.76713 -0.32132
3582.71869 -0.32459
3580.67025 -0.32785
3578.62181 -0.33146
3576.57337 -0.33512
3574.52493 -0.33768
3572.47650 -0.33837
3570.42806 -0.33910
3568.37962 -0.34180
3566.33118 -0.34599
3564.28274 -0.34813
3562.23430 -0.34877
3560.18587 -0.34991
3558.13743 -0.35240
3556.08899 -0.35591
3554.04055 -0.35838
3551.99211 -0.35829
3549.94367 -0.35710
3547.89524 -0.35695
3545.84680 -0.35931
3543.79836 -0.36379
3541.74992 -0.36585
3539.70148 -0.36457
3537.65304 -0.36331
3535.60461 -0.36411
3533.55617 -0.36628
3531.50773 -0.36788
3529.45929 -0.36817
3527.41085 -0.36947
3525.36241 -0.37235
3523.31398 -0.37342
3521.26554 -0.37473
3519.21710 -0.37894
3517.16866 -0.38193
3515.12022 -0.38225
3513.07178 -0.38249
3511.02335 -0.38286
3508.97491 -0.38393
3506.92647 -0.38672
3504.87803 -0.38902
3502.82959 -0.39035
3500.78115 -0.39201
3498.73272 -0.39238
3496.68428 -0.39047
3494.63584 -0.38855
3492.58740 -0.38852
3490.53896 -0.38852
3488.49052 -0.38828
3486.44209 -0.38971
3484.39365 -0.39073
3482.34521 -0.39025
3480.29677 -0.39037
3478.24833 -0.39155
3476.19989 -0.39391
3474.15146 -0.39781
3472.10302 -0.40125
3470.05458 -0.40175
3468.00614 -0.39875
3465.95770 -0.39385
3463.90926 -0.39256
3461.86082 -0.39704
3459.81239 -0.39980
3457.76395 -0.39861
3455.71551 -0.39838
3453.66707 -0.39823
3451.61863 -0.39773
3449.57019 -0.39902
3447.52176 -0.40142
3445.47332 -0.40289
3443.42488 -0.40235
3441.37644 -0.40107
3439.32800 -0.39974
3437.27956 -0.39850
3435.23113 -0.39935
3433.18269 -0.40252
3431.13425 -0.40478
3429.08581 -0.40518
3427.03737 -0.40593
3424.98893 -0.40685
3422.94050 -0.40608
3420.89206 -0.40412
3418.84362 -0.40390
3416.79518 -0.40495
3414.74674 -0.40551
3412.69830 -0.40658
3410.64987 -0.40830
3408.60143 -0.40884
3406.55299 -0.40732
3404.50455 -0.40545
3402.45611 -0.40498
3400.40767 -0.40544
3398.35924 -0.40634
3396.31080 -0.40842
3394.26236 -0.41102
3392.21392 -0.41297
3390.16548 -0.41476
3388.11704 -0.41558
3386.06861 -0.41434
3384.02017 -0.41362
3381.97173 -0.41474
3379.92329 -0.41485
3377.87485 -0.41334
3375.82641 -0.41225
3373.77798 -0.41281
3371.72954 -0.41479
3369.68110 -0.41592
3367.63266 -0.41593
3365.58422 -0.41752
3363.53578 -0.41912
3361.48735 -0.41864
3359.43891 -0.41809
3357.39047 -0.41752
3355.34203 -0.41611
3353.29359 -0.41564
3351.24515 -0.41643
3349.19672 -0.41636
3347.14828 -0.41674
3345.09984 -0.41868
3343.05140 -0.41982
3341.00296 -0.42043
3338.95452 -0.42155
3336.90609 -0.42179
3334.85765 -0.42024
3332.80921 -0.41896
3330.76077 -0.41967
3328.71233 -0.42140
3326.66389 -0.42320
3324.61545 -0.42395
3322.56702 -0.42338
3320.51858 -0.42315
3318.47014 -0.42337
3316.42170 -0.42386
3314.37326 -0.42602
3312.32482 -0.42798
3310.27639 -0.42659
3308.22795 -0.42434
3306.17951 -0.42394
3304.13107 -0.42353
3302.08263 -0.42222
3300.03419 -0.42324
3297.98576 -0.42774
3295.93732 -0.43069
3293.88888 -0.42956
3291.84044 -0.42835
3289.79200 -0.42836
3287.74356 -0.42733
3285.69513 -0.42676
3283.64669 -0.42700
3281.59825 -0.42628
3279.54981 -0.42658
3277.50137 -0.42795
3275.45293 -0.42748
3273.40450 -0.42648
3271.35606 -0.42790
3269.30762 -0.43023
3267.25918 -0.42999
3265.21074 -0.42783
3263.16230 -0.42757
3261.11387 -0.42906
3259.06543 -0.42954
3257.01699 -0.42865
3254.96855 -0.42820
3252.92011 -0.42962
3250.87167 -0.43058
3248.82324 -0.42986
3246.77480 -0.42943
3244.72636 -0.42995
3242.67792 -0.43091
3240.62948 -0.43087
3238.58104 -0.42922
3236.53261 -0.42819
3234.48417 -0.42831
3232.43573 -0.42797
3230.38729 -0.42772
3228.33885 -0.42769
3226.29041 -0.42697
3224.24198 -0.42606
3222.19354 -0.42575
3220.14510 -0.42620
3218.09666 -0.42558
3216.04822 -0.42358
3213.99978 -0.42381
3211.95135 -0.42740
3209.90291 -0.43041
3207.85447 -0.42991
3205.80603 -0.42781
3203.75759 -0.42644
3201.70915 -0.42568
3199.66072 -0.42545
3197.61228 -0.42587
3195.56384 -0.42530
3193.51540 -0.42356
3191.46696 -0.42338
3189.41852 -0.42508
3187.37008 -0.42652
3185.32165 -0.42760
3183.27321 -0.42839
3181.22477 -0.42763
3179.17633 -0.42554
3177.12789 -0.42414
3175.07945 -0.42465
3173.03102 -0.42631
3170.98258 -0.42791
3168.93414 -0.42793
3166.88570 -0.42571
3164.83726 -0.42332
3162.78882 -0.42201
3160.74039 -0.42077
3158.69195 -0.42048
3156.64351 -0.42175
3154.59507 -0.42297
3152.54663 -0.42253
3150.49819 -0.41993
3148.44976 -0.41806
3146.40132 -0.41918
3144.35288 -0.42053
3142.30444 -0.42014
3140.25600 -0.42007
3138.20756 -0.42035
3136.15913 -0.41963
3134.11069 -0.41880
3132.06225 -0.41886
3130.01381 -0.41927
3127.96537 -0.41868
3125.91693 -0.41809
3123.86850 -0.41844
3121.82006 -0.41892
3119.77162 -0.41871
3117.72318 -0.41767
3115.67474 -0.41670
3113.62630 -0.41624
3111.57787 -0.41638
3109.52943 -0.41701
3107.48099 -0.41715
3105.43255 -0.41627
3103.38411 -0.41594
3101.33567 -0.41720
3099.28724 -0.41821
3097.23880 -0.41738
3095.19036 -0.41648
3093.14192 -0.41682
3091.09348 -0.41654
3089.04504 -0.41565
3086.99661 -0.41531
3084.94817 -0.41483
3082.89973 -0.41371
3080.85129 -0.41341
3078.80285 -0.41488
3076.75441 -0.41603
3074.70598 -0.41481
3072.65754 -0.41212
3070.60910 -0.41089
3068.56066 -0.41192
3066.51222 -0.41235
3064.46378 -0.41042
3062.41535 -0.40836
3060.36691 -0.40766
3058.31847 -0.40747
3056.27003 -0.40701
3054.22159 -0.40586
3052.17315 -0.40483
3050.12471 -0.40511
3048.07628 -0.40633
3046.02784 -0.40659
3043.97940 -0.40541
3041.93096 -0.40464
3039.88252 -0.40457
3037.83408 -0.40362
3035.78565 -0.40247
3033.73721 -0.40194
3031.68877 -0.40134
3029.64033 -0.40107
3027.59189 -0.40205
3025.54345 -0.40312
3023.49502 -0.40254
3021.44658 -0.40169
3019.39814 -0.40171
3017.34970 -0.40135
3015.30126 -0.40033
3013.25282 -0.39908
3011.20439 -0.39863
3009.15595 -0.39887
3007.10751 -0.39746
3005.05907 -0.39528
3003.01063 -0.39537
3000.96219 -0.39739
2998.91376 -0.40018
2996.86532 -0.40147
2994.81688 -0.39919
2992.76844 -0.39584
2990.72000 -0.39391
2988.67156 -0.39367
2986.62313 -0.39486
2984.57469 -0.39621
2982.52625 -0.39656
2980.47781 -0.39604
2978.42937 -0.39564
2976.38093 -0.39520
2974.33250 -0.39343
2972.28406 -0.39125
2970.23562 -0.39083
2968.18718 -0.39203
2966.13874 -0.39296
2964.09030 -0.39220
2962.04187 -0.39120
2959.99343 -0.39188
2957.94499 -0.39283
2955.89655 -0.39245
2953.84811 -0.39137
2951.79967 -0.39070
2949.75124 -0.39094
2947.70280 -0.39061
2945.65436 -0.38902
2943.60592 -0.38842
2941.55748 -0.38905
2939.50904 -0.38988
2937.46061 -0.39104
2935.41217 -0.39131
2933.36373 -0.39001
2931.31529 -0.38844
2929.26685 -0.38790
2927.21841 -0.38868
2925.16998 -0.39030
2923.12154 -0.39114
2921.07310 -0.39013
2919.02466 -0.38896
2916.97622 -0.38843
2914.92778 -0.38792
2912.87934 -0.38710
2910.83091 -0.38613
2908.78247 -0.38615
2906.73403 -0.38667
2904.68559 -0.38679
2902.63715 -0.38618
2900.58871 -0.38409
2898.54028 -0.38232
2896.49184 -0.38243
2894.44340 -0.38223
2892.39496 -0.38082
2890.34652 -0.37998
2888.29808 -0.38028
2886.24965 -0.38054
2884.20121 -0.38045
2882.15277 -0.38043
2880.10433 -0.38025
2878.05589 -0.37997
2876.00745 -0.37985
2873.95902 -0.37993
2871.91058 -0.37948
2869.86214 -0.37818
2867.81370 -0.37709
2865.76526 -0.37644
2863.71682 -0.37661
2861.66839 -0.37739
2859.61995 -0.37735
2857.57151 -0.37701
2855.52307 -0.37740
2853.47463 -0.37746
2851.42619 -0.37665
2849.37776 -0.37541
2847.32932 -0.37393
2845.28088 -0.37261
2843.23244 -0.37197
2841.18400 -0.37206
2839.13556 -0.37192
2837.08713 -0.37094
2835.03869 -0.36966
2832.99025 -0.36890
2830.94181 -0.36824
2828.89337 -0.36703
2826.84493 -0.36616
2824.79650 -0.36664
2822.74806 -0.36769
2820.69962 -0.36755
2818.65118 -0.36612
2816.60274 -0.36435
2814.55430 -0.36281
2812.50587 -0.36175
2810.45743 -0.36119
2808.40899 -0.36116
2806.36055 -0.36144
2804.31211 -0.36135
2802.26367 -0.36048
2800.21524 -0.35936
2798.16680 -0.35895
2796.11836 -0.35900
2794.06992 -0.35868
2792.02148 -0.35812
2789.97304 -0.35795
2787.92461 -0.35900
2785.87617 -0.36028
2783.82773 -0.36033
2781.77929 -0.35981
2779.73085 -0.35847
2777.68241 -0.35573
2775.63397 -0.35367
2773.58554 -0.35408
2771.53710 -0.35601
2769.48866 -0.35822
2767.44022 -0.35946
2765.39178 -0.35937
2763.34334 -0.35885
2761.29491 -0.35804
2759.24647 -0.35736
2757.19803 -0.35659
2755.14959 -0.35567
2753.10115 -0.35587
2751.05271 -0.35685
2749.00428 -0.35734
2746.95584 -0.35743
2744.90740 -0.35763
2742.85896 -0.35775
2740.81052 -0.35772
2738.76208 -0.35774
2736.71365 -0.35768
2734.66521 -0.35737
2732.61677 -0.35704
2730.56833 -0.35708
2728.51989 -0.35725
2726.47145 -0.35762
2724.42302 -0.35805
2722.37458 -0.35804
2720.32614 -0.35834
2718.27770 -0.35891
2716.22926 -0.35876
2714.18082 -0.35804
2712.13239 -0.35757
2710.08395 -0.35703
2708.03551 -0.35598
2705.98707 -0.35576
2703.93863 -0.35667
2701.89019 -0.35810
2699.84176 -0.35901
2697.79332 -0.35858
2695.74488 -0.35778
2693.69644 -0.35666
2691.64800 -0.35530
2689.59956 -0.35450
2687.55113 -0.35423
2685.50269 -0.35463
2683.45425 -0.35535
2681.40581 -0.35492
2679.35737 -0.35386
2677.30893 -0.35409
2675.26050 -0.35533
2673.21206 -0.35635
2671.16362 -0.35628
2669.11518 -0.35482
2667.06674 -0.35326
2665.01830 -0.35242
2662.96987 -0.35162
2660.92143 -0.35147
2658.87299 -0.35239
2656.82455 -0.35240
2654.77611 -0.35062
2652.72767 -0.34903
2650.67924 -0.34938
2648.63080 -0.35014
2646.58236 -0.34891
2644.53392 -0.34664
2642.48548 -0.34553
2640.43704 -0.34585
2638.38860 -0.34620
2636.34017 -0.34529
2634.29173 -0.34410
2632.24329 -0.34417
2630.19485 -0.34487
2628.14641 -0.34434
2626.09797 -0.34210
2624.04954 -0.34007
2622.00110 -0.33982
2619.95266 -0.34012
2617.90422 -0.33925
2615.85578 -0.33845
2613.80734 -0.33895
2611.75891 -0.33936
2609.71047 -0.33856
2607.66203 -0.33720
2605.61359 -0.33637
2603.56515 -0.33565
2601.51671 -0.33455
2599.46828 -0.33371
2597.41984 -0.33319
2595.37140 -0.33304
2593.32296 -0.33333
2591.27452 -0.33269
2589.22608 -0.33077
2587.17765 -0.32885
2585.12921 -0.32777
2583.08077 -0.32750
2581.03233 -0.32707
2578.98389 -0.32641
2576.93545 -0.32572
2574.88702 -0.32478
2572.83858 -0.32380
2570.79014 -0.32255
2568.74170 -0.32131
2566.69326 -0.32097
2564.64482 -0.32149
2562.59639 -0.32187
2560.54795 -0.32186
2558.49951 -0.32157
2556.45107 -0.32054
2554.40263 -0.31969
2552.35419 -0.32005
2550.30576 -0.32042
2548.25732 -0.31976
2546.20888 -0.31889
2544.16044 -0.31877
2542.11200 -0.31928
2540.06356 -0.31955
2538.01513 -0.31924
2535.96669 -0.31918
2533.91825 -0.31989
2531.86981 -0.32054
2529.82137 -0.32042
2527.77293 -0.32016
2525.72450 -0.32010
2523.67606 -0.31993
2521.62762 -0.31999
2519.57918 -0.32016
2517.53074 -0.32015
2515.48230 -0.32029
2513.43387 -0.32082
2511.38543 -0.32117
2509.33699 -0.32115
2507.28855 -0.32142
2505.24011 -0.32182
2503.19167 -0.32200
2501.14324 -0.32151
2499.09480 -0.31970
2497.04636 -0.31829
2494.99792 -0.31896
2492.94948 -0.32019
2490.90104 -0.32106
2488.85260 -0.32246
2486.80417 -0.32357
2484.75573 -0.32320
2482.70729 -0.32209
2480.65885 -0.32164
2478.61041 -0.32233
2476.56197 -0.32340
2474.51354 -0.32355
2472.46510 -0.32257
2470.41666 -0.32170
2468.36822 -0.32114
2466.31978 -0.32010
2464.27134 -0.31876
2462.22291 -0.31752
2460.17447 -0.31662
2458.12603 -0.31707
2456.07759 -0.31874
2454.02915 -0.31927
2451.98071 -0.31756
2449.93228 -0.31567
2447.88384 -0.31526
2445.83540 -0.31444
2443.78696 -0.31245
2441.73852 -0.31209
2439.69008 -0.31298
2437.64165 -0.31228
2435.59321 -0.31053
2433.54477 -0.30934
2431.49633 -0.30885
2429.44789 -0.30827
2427.39945 -0.30693
2425.35102 -0.30514
2423.30258 -0.30342
2421.25414 -0.30215
2419.20570 -0.30185
2417.15726 -0.30244
2415.10882 -0.30263
2413.06039 -0.30133
2411.01195 -0.29968
2408.96351 -0.29940
2406.91507 -0.29960
2404.86663 -0.29843
2402.81819 -0.29631
2400.76976 -0.29505
2398.72132 -0.29505
2396.67288 -0.29561
2394.62444 -0.29602
2392.57600 -0.29542
2390.52756 -0.29471
2388.47913 -0.29493
2386.43069 -0.29482
2384.38225 -0.29401
2382.33381 -0.29337
2380.28537 -0.29312
2378.23693 -0.29408
2376.18850 -0.29730
2374.14006 -0.30101
2372.09162 -0.30225
2370.04318 -0.30193
2367.99474 -0.30035
2365.94630 -0.29472
2363.89787 -0.29263
2361.84943 -0.30026
2359.80099 -0.30744
2357.75255 -0.30487
2355.70411 -0.29892
2353.65567 -0.29760
2351.60723 -0.29708
2349.55880 -0.29639
2347.51036 -0.29707
2345.46192 -0.29819
2343.41348 -0.30031
2341.36504 -0.30476
2339.31660 -0.30574
2337.26817 -0.30068
2335.21973 -0.29591
2333.17129 -0.29568
2331.12285 -0.29731
2329.07441 -0.29817
2327.02597 -0.29807
2324.97754 -0.29663
2322.92910 -0.29564
2320.88066 -0.29593
2318.83222 -0.29659
2316.78378 -0.29701
2314.73534 -0.29656
2312.68691 -0.29515
2310.63847 -0.29296
2308.59003 -0.29179
2306.54159 -0.29287
2304.49315 -0.29417
2302.44471 -0.29414
2300.39628 -0.29375
2298.34784 -0.29359
2296.29940 -0.29364
2294.25096 -0.29406
2292.20252 -0.29393
2290.15408 -0.29319
2288.10565 -0.29354
2286.05721 -0.29467
2284.00877 -0.29484
2281.96033 -0.29465
2279.91189 -0.29490
2277.86345 -0.29473
2275.81502 -0.29418
2273.76658 -0.29442
2271.71814 -0.29579
2269.66970 -0.29680
2267.62126 -0.29628
2265.57282 -0.29563
2263.52439 -0.29576
2261.47595 -0.29570
2259.42751 -0.29535
2257.37907 -0.29532
2255.33063 -0.29562
2253.28219 -0.29558
2251.23376 -0.29538
2249.18532 -0.29529
2247.13688 -0.29462
2245.08844 -0.29373
2243.04000 -0.29322
2240.99156 -0.29297
2238.94313 -0.29293
2236.89469 -0.29331
2234.84625 -0.29387
2232.79781 -0.29378
2230.74937 -0.29351
2228.70093 -0.29359
2226.65250 -0.29354
2224.60406 -0.29372
2222.55562 -0.29425
2220.50718 -0.29428
2218.45874 -0.29353
2216.41030 -0.29250
2214.36186 -0.29146
2212.31343 -0.29071
2210.26499 -0.29093
2208.21655 -0.29184
2206.16811 -0.29240
2204.11967 -0.29289
2202.07123 -0.29359
2200.02280 -0.29341
2197.97436 -0.29293
2195.92592 -0.29354
2193.87748 -0.29432
2191.82904 -0.29454
2189.78060 -0.29486
2187.73217 -0.29553
2185.68373 -0.29606
2183.63529 -0.29602
2181.58685 -0.29630
2179.53841 -0.29739
2177.48997 -0.29810
2175.44154 -0.29776
2173.39310 -0.29742
2171.34466 -0.29827
2169.29622 -0.29967
2167.24778 -0.29996
2165.19934 -0.29892
2163.15091 -0.29829
2161.10247 -0.29917
2159.05403 -0.30089
2157.00559 -0.30258
2154.95715 -0.30374
2152.90871 -0.30484
2150.86028 -0.30594
2148.81184 -0.30580
2146.76340 -0.30524
2144.71496 -0.30555
2142.66652 -0.30609
2140.61808 -0.30651
2138.56965 -0.30724
2136.52121 -0.30840
2134.47277 -0.30927
2132.42433 -0.30928
2130.37589 -0.30883
2128.32745 -0.30850
2126.27902 -0.30848
2124.23058 -0.30823
2122.18214 -0.30809
2120.13370 -0.30896
2118.08526 -0.30940
2116.03682 -0.30836
2113.98839 -0.30735
2111.93995 -0.30703
2109.89151 -0.30697
2107.84307 -0.30734
2105.79463 -0.30743
2103.74619 -0.30634
2101.69776 -0.30482
2099.64932 -0.30390
2097.60088 -0.30364
2095.55244 -0.30342
2093.50400 -0.30271
2091.45556 -0.30178
2089.40713 -0.30082
2087.35869 -0.29981
2085.31025 -0.29950
2083.26181 -0.29933
2081.21337 -0.29814
2079.16493 -0.29759
2077.11649 -0.29884
2075.06806 -0.29940
2073.01962 -0.29802
2070.97118 -0.29676
2068.92274 -0.29666
2066.87430 -0.29693
2064.82586 -0.29692
2062.77743 -0.29613
2060.72899 -0.29451
2058.68055 -0.29323
2056.63211 -0.29320
2054.58367 -0.29415
2052.53523 -0.29611
2050.48680 -0.29767
2048.43836 -0.29680
2046.38992 -0.29522
2044.34148 -0.29507
2042.29304 -0.29506
2040.24460 -0.29440
2038.19617 -0.29429
2036.14773 -0.29483
2034.09929 -0.29546
2032.05085 -0.29603
2030.00241 -0.29613
2027.95397 -0.29580
2025.90554 -0.29613
2023.85710 -0.29764
2021.80866 -0.29860
2019.76022 -0.29864
2017.71178 -0.29925
2015.66334 -0.30033
2013.61491 -0.30151
2011.56647 -0.30266
2009.51803 -0.30337
2007.46959 -0.30383
2005.42115 -0.30448
2003.37271 -0.30549
2001.32428 -0.30661
1999.27584 -0.30748
1997.22740 -0.30773
1995.17896 -0.30768
1993.13052 -0.30833
1991.08208 -0.30948
1989.03365 -0.31048
1986.98521 -0.31193
1984.93677 -0.31355
1982.88833 -0.31476
1980.83989 -0.31525
1978.79145 -0.31508
1976.74302 -0.31570
1974.69458 -0.31710
1972.64614 -0.31780
1970.59770 -0.31800
1968.54926 -0.31843
1966.50082 -0.31874
1964.45239 -0.31875
1962.40395 -0.31906
1960.35551 -0.31955
1958.30707 -0.31990
1956.25863 -0.32001
1954.21019 -0.31983
1952.16176 -0.31953
1950.11332 -0.31937
1948.06488 -0.31973
1946.01644 -0.31980
1943.96800 -0.31906
1941.91956 -0.31774
1939.87112 -0.31605
1937.82269 -0.31584
1935.77425 -0.31688
1933.72581 -0.31702
1931.67737 -0.31648
1929.62893 -0.31596
1927.58049 -0.31491
1925.53206 -0.31320
1923.48362 -0.31194
1921.43518 -0.31143
1919.38674 -0.31072
1917.33830 -0.31035
1915.28986 -0.31020
1913.24143 -0.30885
1911.19299 -0.30685
1909.14455 -0.30636
1907.09611 -0.30739
1905.04767 -0.30755
1902.99923 -0.30705
1900.95080 -0.30683
1898.90236 -0.30607
1896.85392 -0.30488
1894.80548 -0.30360
1892.75704 -0.30215
1890.70860 -0.30124
1888.66017 -0.30136
1886.61173 -0.30168
1884.56329 -0.30149
1882.51485 -0.30073
1880.46641 -0.30009
1878.41797 -0.30048
1876.36954 -0.30136
1874.32110 -0.30170
1872.27266 -0.30090
1870.22422 -0.29963
1868.17578 -0.29985
1866.12734 -0.30126
1864.07891 -0.30246
1862.03047 -0.30329
1859.98203 -0.30345
1857.93359 -0.30391
1855.88515 -0.30574
1853.83671 -0.30814
1851.78828 -0.30968
1849.73984 -0.31010
1847.69140 -0.31005
1845.64296 -0.30963
1843.59452 -0.31043
1841.54608 -0.31303
1839.49765 -0.31502
1837.44921 -0.31632
1835.40077 -0.31734
1833.35233 -0.31787
1831.30389 -0.31811
1829.25545 -0.31938
1827.20702 -0.32104
1825.15858 -0.32219
1823.11014 -0.32433
1821.06170 -0.32752
1819.01326 -0.33020
1816.96482 -0.33169
1814.91639 -0.33272
1812.86795 -0.33350
1810.81951 -0.33418
1808.77107 -0.33473
1806.72263 -0.33490
1804.67419 -0.33542
1802.62575 -0.33689
1800.57732 -0.33938
1798.52888 -0.34170
1796.48044 -0.34156
1794.43200 -0.33926
1792.38356 -0.33886
1790.33512 -0.34209
1788.28669 -0.34447
1786.23825 -0.34429
1784.18981 -0.34272
1782.14137 -0.34225
1780.09293 -0.34359
1778.04449 -0.34543
1775.99606 -0.34590
1773.94762 -0.34399
1771.89918 -0.34169
1769.85074 -0.34169
1767.80230 -0.34241
1765.75386 -0.34324
1763.70543 -0.34363
1761.65699 -0.34343
1759.60855 -0.34219
1757.56011 -0.34013
1755.51167 -0.33864
1753.46323 -0.33694
1751.41480 -0.33446
1749.36636 -0.33412
1747.31792 -0.33604
1745.26948 -0.33680
1743.22104 -0.33665
1741.17260 -0.33592
1739.12417 -0.33506
1737.07573 -0.33468
1735.02729 -0.33473
1732.97885 -0.33550
1730.93041 -0.33542
1728.88197 -0.33624
1726.83354 -0.33802
1724.78510 -0.33849
1722.73666 -0.33749
1720.68822 -0.33597
1718.63978 -0.33399
1716.59134 -0.33285
1714.54291 -0.33321
1712.49447 -0.33389
1710.44603 -0.33584
1708.39759 -0.33800
1706.34915 -0.33884
1704.30071 -0.33876
1702.25228 -0.33873
1700.20384 -0.33985
1698.15540 -0.34240
1696.10696 -0.34566
1694.05852 -0.34818
1692.01008 -0.34840
1689.96165 -0.34818
1687.91321 -0.34877
1685.86477 -0.35007
1683.81633 -0.35313
1681.76789 -0.35516
1679.71945 -0.35575
1677.67102 -0.35641
1675.62258 -0.35865
1673.57414 -0.36178
1671.52570 -0.36199
1669.47726 -0.36196
1667.42882 -0.36459
1665.38038 -0.36636
1663.33195 -0.36709
1661.28351 -0.36815
1659.23507 -0.36906
1657.18663 -0.36864
1655.13819 -0.36657
1653.08975 -0.36659
1651.04132 -0.36952
1648.99288 -0.36939
1646.94444 -0.37017
1644.89600 -0.37046
1642.84756 -0.36804
1640.79912 -0.36629
1638.75069 -0.36489
1636.70225 -0.36282
1634.65381 -0.36370
1632.60537 -0.36423
1630.55693 -0.36195
1628.50849 -0.35866
1626.46006 -0.35661
1624.41162 -0.35511
1622.36318 -0.35230
1620.31474 -0.34989
1618.26630 -0.34840
1616.21786 -0.34779
1614.16943 -0.34791
1612.12099 -0.34639
1610.07255 -0.34311
1608.02411 -0.34054
1605.97567 -0.33968
1603.92723 -0.33871
1601.87880 -0.33730
1599.83036 -0.33620
1597.78192 -0.33436
1595.73348 -0.33146
1593.68504 -0.32966
1591.63660 -0.32917
1589.58817 -0.32841
1587.53973 -0.32710
1585.49129 -0.32530
1583.44285 -0.32356
1581.39441 -0.32212
1579.34597 -0.32036
1577.29754 -0.31861
1575.24910 -0.31802
1573.20066 -0.31656
1571.15222 -0.31375
1569.10378 -0.31195
1567.05534 -0.31152
1565.00691 -0.31165
1562.95847 -0.31269
1560.91003 -0.31336
1558.86159 -0.31416
1556.81315 -0.31422
1554.76471 -0.31386
1552.71628 -0.31421
1550.66784 -0.31405
1548.61940 -0.31360
1546.57096 -0.31219
1544.52252 -0.30860
1542.47408 -0.30403
1540.42565 -0.30243
1538.37721 -0.30589
1536.32877 -0.30716
1534.28033 -0.30642
1532.23189 -0.30688
1530.18345 -0.30841
1528.13501 -0.30963
1526.08658 -0.30993
1524.03814 -0.30797
1521.98970 -0.30678
1519.94126 -0.30816
1517.89282 -0.30777
1515.84438 -0.30725
1513.79595 -0.30765
1511.74751 -0.30682
1509.69907 -0.30349
1507.65063 -0.29945
1505.60219 -0.30466
1503.55375 -0.30818
1501.50532 -0.30749
1499.45688 -0.30596
1497.40844 -0.30585
1495.36000 -0.30653
1493.31156 -0.30558
1491.26312 -0.30325
1489.21469 -0.30226
1487.16625 -0.30455
1485.11781 -0.30606
1483.06937 -0.30531
1481.02093 -0.30379
1478.97249 -0.30311
1476.92406 -0.30289
1474.87562 -0.30258
1472.82718 -0.30364
1470.77874 -0.30617
1468.73030 -0.30706
1466.68186 -0.30710
1464.63343 -0.30812
1462.58499 -0.30827
1460.53655 -0.30539
1458.48811 -0.30158
1456.43967 -0.30398
1454.39123 -0.30734
1452.34280 -0.30686
1450.29436 -0.30529
1448.24592 -0.30486
1446.19748 -0.30670
1444.14904 -0.30841
1442.10060 -0.30878
1440.05217 -0.30829
1438.00373 -0.30738
1435.95529 -0.30775
1433.90685 -0.30885
1431.85841 -0.30833
1429.80997 -0.30683
1427.76154 -0.30612
1425.71310 -0.30657
1423.66466 -0.30728
1421.61622 -0.30642
1419.56778 -0.30544
1417.51934 -0.30788
1415.47091 -0.30983
1413.42247 -0.30994
1411.37403 -0.31028
1409.32559 -0.31142
1407.27715 -0.31289
1405.22871 -0.31437
1403.18028 -0.31460
1401.13184 -0.31312
1399.08340 -0.31056
1397.03496 -0.30866
1394.98652 -0.30918
1392.93808 -0.30982
1390.88965 -0.30891
1388.84121 -0.30828
1386.79277 -0.30969
1384.74433 -0.31152
1382.69589 -0.31182
1380.64745 -0.31140
1378.59901 -0.31141
1376.55058 -0.31154
1374.50214 -0.31219
1372.45370 -0.31426
1370.40526 -0.31565
1368.35682 -0.31543
1366.30838 -0.31455
1364.25995 -0.31423
1362.21151 -0.31483
1360.16307 -0.31482
1358.11463 -0.31392
1356.06619 -0.31276
1354.01775 -0.31193
1351.96932 -0.31157
1349.92088 -0.31115
1347.87244 -0.31081
1345.82400 -0.31062
1343.77556 -0.31075
1341.72712 -0.31106
1339.67869 -0.31079
1337.63025 -0.31006
1335.58181 -0.31006
1333.53337 -0.31134
1331.48493 -0.31330
1329.43649 -0.31415
1327.38806 -0.31306
1325.33962 -0.31233
1323.29118 -0.31351
1321.24274 -0.31485
1319.19430 -0.31566
1317.14586 -0.31712
1315.09743 -0.31880
1313.04899 -0.32020
1311.00055 -0.32202
1308.95211 -0.32395
1306.90367 -0.32521
1304.85523 -0.32607
1302.80680 -0.32752
1300.75836 -0.32925
1298.70992 -0.33034
1296.66148 -0.33155
1294.61304 -0.33325
1292.56460 -0.33413
1290.51617 -0.33476
1288.46773 -0.33665
1286.41929 -0.33906
1284.37085 -0.34060
1282.32241 -0.34046
1280.27397 -0.33961
1278.22554 -0.34021
1276.17710 -0.34182
1274.12866 -0.34316
1272.08022 -0.34433
1270.03178 -0.34499
1267.98334 -0.34461
1265.93491 -0.34399
1263.88647 -0.34390
1261.83803 -0.34456
1259.78959 -0.34561
1257.74115 -0.34548
1255.69271 -0.34349
1253.64428 -0.34067
1251.59584 -0.33827
1249.54740 -0.33715
1247.49896 -0.33727
1245.45052 -0.33741
1243.40208 -0.33685
1241.35364 -0.33635
1239.30521 -0.33601
1237.25677 -0.33457
1235.20833 -0.33204
1233.15989 -0.33024
1231.11145 -0.32977
1229.06301 -0.32938
1227.01458 -0.32845
1224.96614 -0.32751
1222.91770 -0.32663
1220.86926 -0.32535
1218.82082 -0.32394
1216.77238 -0.32350
1214.72395 -0.32403
1212.67551 -0.32427
1210.62707 -0.32393
1208.57863 -0.32340
1206.53019 -0.32327
1204.48175 -0.32393
1202.43332 -0.32461
1200.38488 -0.32500
1198.33644 -0.32522
1196.28800 -0.32529
1194.23956 -0.32527
1192.19112 -0.32500
1190.14269 -0.32507
1188.09425 -0.32656
1186.04581 -0.32924
1183.99737 -0.33147
1181.94893 -0.33289
1179.90049 -0.33474
1177.85206 -0.33706
1175.80362 -0.33964
1173.75518 -0.34340
1171.70674 -0.34761
1169.65830 -0.35027
1167.60986 -0.35102
1165.56143 -0.35114
1163.51299 -0.35275
1161.46455 -0.35568
1159.41611 -0.35846
1157.36767 -0.36134
1155.31923 -0.36308
1153.27080 -0.36314
1151.22236 -0.36408
1149.17392 -0.36700
1147.12548 -0.36984
1145.07704 -0.37036
1143.02860 -0.36986
1140.98017 -0.37102
1138.93173 -0.37273
1136.88329 -0.37289
1134.83485 -0.37273
1132.78641 -0.37302
1130.73797 -0.37234
1128.68954 -0.37163
1126.64110 -0.37240
1124.59266 -0.37307
1122.54422 -0.37297
1120.49578 -0.37215
1118.44734 -0.37037
1116.39891 -0.36911
1114.35047 -0.36861
1112.30203 -0.36765
1110.25359 -0.36580
1108.20515 -0.36447
1106.15671 -0.36385
1104.10827 -0.36170
1102.05984 -0.35900
1100.01140 -0.35696
1097.96296 -0.35392
1095.91452 -0.35079
1093.86608 -0.35019
1091.81764 -0.35043
1089.76921 -0.34779
1087.72077 -0.34390
1085.67233 -0.34239
1083.62389 -0.34294
1081.57545 -0.34377
1079.52701 -0.34345
1077.47858 -0.34179
1075.43014 -0.34041
1073.38170 -0.33993
1071.33326 -0.33899
1069.28482 -0.33692
1067.23638 -0.33442
1065.18795 -0.33232
1063.13951 -0.33207
1061.09107 -0.33291
1059.04263 -0.33223
1056.99419 -0.33125
1054.94575 -0.33239
1052.89732 -0.33525
1050.84888 -0.33727
1048.80044 -0.33605
1046.75200 -0.33479
1044.70356 -0.33780
1042.65512 -0.34200
1040.60669 -0.34404
1038.55825 -0.34401
1036.50981 -0.34185
1034.46137 -0.33920
1032.41293 -0.33823
1030.36449 -0.33939
1028.31606 -0.34191
1026.26762 -0.34299
1024.21918 -0.34079
1022.17074 -0.33861
1020.12230 -0.34021
1018.07386 -0.34281
1016.02543 -0.34186
1013.97699 -0.33999
1011.92855 -0.33951
1009.88011 -0.33796
1007.83167 -0.33529
1005.78323 -0.33305
1003.73480 -0.33180
1001.68636 -0.33019
999.63792 -0.32732
997.58948 -0.32428
995.54104 -0.32213
993.49260 -0.32216
991.44417 -0.32284
989.39573 -0.32214
987.34729 -0.31994
985.29885 -0.31647
983.25041 -0.31511
981.20197 -0.31592
979.15354 -0.31464
977.10510 -0.31157
975.05666 -0.30775
973.00822 -0.30268
970.95978 -0.29802
968.91134 -0.29342
966.86290 -0.28874
964.81447 -0.28630
962.76603 -0.28394
960.71759 -0.28056
958.66915 -0.27748
956.62071 -0.27419
954.57227 -0.27264
952.52384 -0.27284
950.47540 -0.27219
948.42696 -0.27114
946.37852 -0.27371
944.33008 -0.28288
942.28164 -0.29681
940.23321 -0.31482
938.18477 -0.33723
936.13633 -0.36142
934.08789 -0.38634
932.03945 -0.41112
929.99101 -0.43464
927.94258 -0.45719
925.89414 -0.47738
923.84570 -0.49503
921.79726 -0.51109
919.74882 -0.52423
917.70038 -0.53280
915.65195 -0.53795
913.60351 -0.54260
911.55507 -0.54763
909.50663 -0.55173
907.45819 -0.55416
905.40975 -0.55556
903.36132 -0.55590
901.31288 -0.55636
899.26444 -0.55933
897.21600 -0.56349
895.16756 -0.56563
893.11912 -0.56441
891.07069 -0.56130
889.02225 -0.55957
886.97381 -0.55951
884.92537 -0.55860
882.87693 -0.55695
880.82849 -0.55547
878.78006 -0.55270
876.73162 -0.54821
874.68318 -0.54319
872.63474 -0.53761
870.58630 -0.53175
868.53786 -0.52621
866.48943 -0.52137
864.44099 -0.51886
862.39255 -0.51853
860.34411 -0.51685
858.29567 -0.51169
856.24723 -0.50521
854.19880 -0.49935
852.15036 -0.49471
850.10192 -0.49246
848.05348 -0.49110
846.00504 -0.48759
843.95660 -0.48212
841.90817 -0.47904
839.85973 -0.48127
837.81129 -0.48504
835.76285 -0.48485
833.71441 -0.48263
831.66597 -0.48304
829.61753 -0.48528
827.56910 -0.48746
825.52066 -0.48885
823.47222 -0.48925
821.42378 -0.48987
819.37534 -0.49025
817.32690 -0.48847
815.27847 -0.48537
813.23003 -0.48380
811.18159 -0.48416
809.13315 -0.48361
807.08471 -0.48196
805.03627 -0.48123
802.98784 -0.48048
800.93940 -0.47974
798.89096 -0.48068
796.84252 -0.48214
794.79408 -0.48236
792.74564 -0.48123
790.69721 -0.47932
788.64877 -0.47856
786.60033 -0.47990
784.55189 -0.48092
782.50345 -0.48084
780.45501 -0.48122
778.40658 -0.48182
776.35814 -0.48064
774.30970 -0.47825
772.26126 -0.47724
770.21282 -0.47761
768.16438 -0.47903
766.11595 -0.47996
764.06751 -0.47679
762.01907 -0.46996
759.97063 -0.46500
757.92219 -0.46685
755.87375 -0.47284
753.82532 -0.47627
751.77688 -0.47544
749.72844 -0.47358
747.68000 -0.47310
745.63156 -0.47172
743.58312 -0.46795
741.53469 -0.46396
739.48625 -0.46234
737.43781 -0.46324
735.38937 -0.46224
733.34093 -0.45855
731.29249 -0.45607
729.24406 -0.45559
727.19562 -0.45842
725.14718 -0.46264
723.09874 -0.46134
721.05030 -0.45439
719.00186 -0.44817
716.95343 -0.44482
714.90499 -0.44100
712.85655 -0.43943
710.80811 -0.44193
708.75967 -0.44302
706.71123 -0.44506
704.66280 -0.44790
702.61436 -0.44394
700.56592 -0.43915
698.51748 -0.43994
696.46904 -0.43889
694.42060 -0.43849
692.37216 -0.44680
690.32373 -0.46145
688.27529 -0.47528
686.22685 -0.47246
684.17841 -0.45418
682.12997 -0.44106
680.08153 -0.43958
678.03310 -0.44478
675.98466 -0.45892
673.93622 -0.48209
671.88778 -0.49560
669.83934 -0.48366
667.79090 -0.45223
665.74247 -0.43800
663.69403 -0.43528
661.64559 -0.43672
659.59715 -0.44414
657.54871 -0.44643
655.50027 -0.43879
653.45184 -0.43272
651.40340 -0.42550
649.35496 -0.41093
647.30652 -0.39569
645.25808 -0.37855
643.20964 -0.35572
641.16121 -0.33055
639.11277 -0.31576
637.06433 -0.31805
635.01589 -0.31905
632.96745 -0.30646
630.91901 -0.30042
628.87058 -0.31630
626.82214 -0.32629
624.77370 -0.30916
622.72526 -0.28630
620.67682 -0.27323
618.62838 -0.26030
616.57995 -0.22306
614.53151 -0.17953
612.48307 -0.16718
610.43463 -0.18239
608.38619 -0.20318
606.33775 -0.21369
604.28932 -0.21370
602.24088 -0.21333
600.19244 -0.20089
598.14400 -0.17361
