3996.50324 -0.04688
3994.45480 -0.04609
3992.40636 -0.04470
3990.35792 -0.04378
3988.30948 -0.04457
3986.26104 -0.04648
3984.21261 -0.04761
3982.16417 -0.04801
3980.11573 -0.04831
3978.06729 -0.04712
3976.01885 -0.04551
3973.97041 -0.04531
3971.92198 -0.04546
3969.87354 -0.04602
3967.82510 -0.04689
3965.77666 -0.04650
3963.72822 -0.04550
3961.67978 -0.04492
3959.63135 -0.04428
3957.58291 -0.04459
3955.53447 -0.04622
3953.48603 -0.04792
3951.43759 -0.04946
3949.38915 -0.04909
3947.34072 -0.04604
3945.29228 -0.04383
3943.24384 -0.04188
3941.19540 -0.03955
3939.14696 -0.04055
3937.09852 -0.04363
3935.05009 -0.04578
3933.00165 -0.04548
3930.95321 -0.04226
3928.90477 -0.04140
3926.85633 -0.04376
3924.80789 -0.04312
3922.75946 -0.03993
3920.71102 -0.03939
3918.66258 -0.03922
3916.61414 -0.03783
3914.56570 -0.03841
3912.51726 -0.04025
3910.46883 -0.04110
3908.42039 -0.04213
3906.37195 -0.04323
3904.32351 -0.04018
3902.27507 -0.03460
3900.22663 -0.03205
3898.17820 -0.03141
3896.12976 -0.03393
3894.08132 -0.03839
3892.03288 -0.03910
3889.98444 -0.03826
3887.93600 -0.04287
3885.88756 -0.04441
3883.83913 -0.03993
3881.79069 -0.03840
3879.74225 -0.03563
3877.69381 -0.03616
3875.64537 -0.04144
3873.59693 -0.04523
3871.54850 -0.04734
3869.50006 -0.04315
3867.45162 -0.03923
3865.40318 -0.04069
3863.35474 -0.03697
3861.30630 -0.03346
3859.25787 -0.03789
3857.20943 -0.04624
3855.16099 -0.05156
3853.11255 -0.03800
3851.06411 -0.02730
3849.01567 -0.03471
3846.96724 -0.04445
3844.91880 -0.05044
3842.87036 -0.05094
3840.82192 -0.04973
3838.77348 -0.04635
3836.72504 -0.04001
3834.67661 -0.04024
3832.62817 -0.04411
3830.57973 -0.04671
3828.53129 -0.04906
3826.48285 -0.04990
3824.43441 -0.05125
3822.38598 -0.05282
3820.33754 -0.04456
3818.28910 -0.03998
3816.24066 -0.04126
3814.19222 -0.04161
3812.14378 -0.04719
3810.09535 -0.05474
3808.04691 -0.05749
3805.99847 -0.05361
3803.95003 -0.05329
3801.90159 -0.05091
3799.85315 -0.04309
3797.80472 -0.04477
3795.75628 -0.04883
3793.70784 -0.05219
3791.65940 -0.05656
3789.61096 -0.05956
3787.56252 -0.06121
3785.51409 -0.06096
3783.46565 -0.05951
3781.41721 -0.06040
3779.36877 -0.05943
3777.32033 -0.05582
3775.27189 -0.05685
3773.22346 -0.06183
3771.17502 -0.06464
3769.12658 -0.06161
3767.07814 -0.05994
3765.02970 -0.06096
3762.98126 -0.06353
3760.93283 -0.06719
3758.88439 -0.06558
3756.83595 -0.06344
3754.78751 -0.06824
3752.73907 -0.07375
3750.69063 -0.06588
3748.64219 -0.05565
3746.59376 -0.06060
3744.54532 -0.06230
3742.49688 -0.05600
3740.44844 -0.05833
3738.40000 -0.06684
3736.35156 -0.06941
3734.30313 -0.05834
3732.25469 -0.05342
3730.20625 -0.05967
3728.15781 -0.06688
3726.10937 -0.06986
3724.06093 -0.06989
3722.01250 -0.06890
3719.96406 -0.06617
3717.91562 -0.06633
3715.86718 -0.07211
3713.81874 -0.07903
3711.77030 -0.07690
3709.72187 -0.06933
3707.67343 -0.07110
3705.62499 -0.07598
3703.57655 -0.07832
3701.52811 -0.07563
3699.47967 -0.07513
3697.43124 -0.07942
3695.38280 -0.08328
3693.33436 -0.08620
3691.28592 -0.08593
3689.23748 -0.07721
3687.18904 -0.07239
3685.14061 -0.07720
3683.09217 -0.08397
3681.04373 -0.08895
3678.99529 -0.09304
3676.94685 -0.09543
3674.89841 -0.08709
3672.84998 -0.08484
3670.80154 -0.09042
3668.75310 -0.08882
3666.70466 -0.08960
3664.65622 -0.09511
3662.60778 -0.09911
3660.55935 -0.10156
3658.51091 -0.10445
3656.46247 -0.10441
3654.41403 -0.10410
3652.36559 -0.11051
3650.31715 -0.11443
3648.26872 -0.10292
3646.22028 -0.10020
3644.17184 -0.10791
3642.12340 -0.11588
3640.07496 -0.12083
3638.02652 -0.12288
3635.97809 -0.12468
3633.92965 -0.12843
3631.88121 -0.13242
3629.83277 -0.13110
3627.78433 -0.12368
3625.73589 -0.12731
3623.68746 -0.13633
3621.63902 -0.14228
3619.59058 -0.14186
3617.54214 -0.13857
3615.49370 -0.14271
3613.44526 -0.15024
3611.39682 -0.15492
3609.34839 -0.15660
3607.29995 -0.15599
3605.25151 -0.15840
3603.20307 -0.16463
3601.15463 -0.16960
3599.10619 -0.17144
3597.05776 -0.17365
3595.00932 -0.17503
3592.96088 -0.17502
3590.91244 -0.17922
3588.86400 -0.18560
3586.81556 -0.18578
3584.76713 -0.18663
3582.71869 -0.19312
3580.67025 -0.19930
3578.62181 -0.20312
3576.57337 -0.20605
3574.52493 -0.20835
3572.47650 -0.20954
3570.42806 -0.21160
3568.37962 -0.21271
3566.33118 -0.20862
3564.28274 -0.20871
3562.23430 -0.21414
3560.18587 -0.21793
3558.13743 -0.22108
3556.08899 -0.22600
3554.04055 -0.22934
3551.99211 -0.22795
3549.94367 -0.22611
3547.89524 -0.22706
3545.84680 -0.22756
3543.79836 -0.22965
3541.74992 -0.23406
3539.70148 -0.23633
3537.65304 -0.23648
3535.60461 -0.23710
3533.55617 -0.24001
3531.50773 -0.24366
3529.45929 -0.24419
3527.41085 -0.24332
3525.36241 -0.24454
3523.31398 -0.24401
3521.26554 -0.24398
3519.21710 -0.24866
3517.16866 -0.25343
3515.12022 -0.25596
3513.07178 -0.25798
3511.02335 -0.25856
3508.97491 -0.25823
3506.92647 -0.26069
3504.87803 -0.26317
3502.82959 -0.26125
3500.78115 -0.25976
3498.73272 -0.26125
3496.68428 -0.26147
3494.63584 -0.26029
3492.58740 -0.26066
3490.53896 -0.26197
3488.49052 -0.26290
3486.44209 -0.26413
3484.39365 -0.26477
3482.34521 -0.26353
3480.29677 -0.26189
3478.24833 -0.26226
3476.19989 -0.26521
3474.15146 -0.26986
3472.10302 -0.27400
3470.05458 -0.27500
3468.00614 -0.27246
3465.95770 -0.26832
3463.90926 -0.26650
3461.86082 -0.26851
3459.81239 -0.26948
3457.76395 -0.26833
3455.71551 -0.26910
3453.66707 -0.27028
3451.61863 -0.27079
3449.57019 -0.27238
3447.52176 -0.27365
3445.47332 -0.27267
3443.42488 -0.27032
3441.37644 -0.26897
3439.32800 -0.26901
3437.27956 -0.26942
3435.23113 -0.27171
3433.18269 -0.27639
3431.13425 -0.27902
3429.08581 -0.27856
3427.03737 -0.27875
3424.98893 -0.27971
3422.94050 -0.27922
3420.89206 -0.27718
3418.84362 -0.27633
3416.79518 -0.27668
3414.74674 -0.27623
3412.69830 -0.27659
3410.64987 -0.27890
3408.60143 -0.28079
3406.55299 -0.28073
3404.50455 -0.27975
3402.45611 -0.27883
3400.40767 -0.27772
3398.35924 -0.27760
3396.31080 -0.28060
3394.26236 -0.28484
3392.21392 -0.28765
3390.16548 -0.28955
3388.11704 -0.29030
3386.06861 -0.28937
3384.02017 -0.28887
3381.97173 -0.28899
3379.92329 -0.28750
3377.87485 -0.28546
3375.82641 -0.28495
3373.77798 -0.28632
3371.72954 -0.28911
3369.68110 -0.29111
3367.63266 -0.29101
3365.58422 -0.29064
3363.53578 -0.29038
3361.48735 -0.28989
3359.43891 -0.29036
3357.39047 -0.29114
3355.34203 -0.29135
3353.29359 -0.29189
3351.24515 -0.29210
3349.19672 -0.29110
3347.14828 -0.29194
3345.09984 -0.29506
3343.05140 -0.29637
3341.00296 -0.29589
3338.95452 -0.29592
3336.90609 -0.29584
3334.85765 -0.29482
3332.80921 -0.29337
3330.76077 -0.29260
3328.71233 -0.29417
3326.66389 -0.29722
3324.61545 -0.29822
3322.56702 -0.29747
3320.51858 -0.29787
3318.47014 -0.29826
3316.42170 -0.29800
3314.37326 -0.29970
3312.32482 -0.30122
3310.27639 -0.29934
3308.22795 -0.29776
3306.17951 -0.29869
3304.13107 -0.29858
3302.08263 -0.29687
3300.03419 -0.29779
3297.98576 -0.30265
3295.93732 -0.30583
3293.88888 -0.30430
3291.84044 -0.30323
3289.79200 -0.30417
3287.74356 -0.30353
3285.69513 -0.30251
3283.64669 -0.30208
3281.59825 -0.30087
3279.54981 -0.30105
3277.50137 -0.30257
3275.45293 -0.30255
3273.40450 -0.30181
3271.35606 -0.30272
3269.30762 -0.30434
3267.25918 -0.30370
3265.21074 -0.30167
3263.16230 -0.30143
3261.11387 -0.30192
3259.06543 -0.30126
3257.01699 -0.30047
3254.96855 -0.30101
3252.92011 -0.30283
3250.87167 -0.30399
3248.82324 -0.30439
3246.77480 -0.30530
3244.72636 -0.30521
3242.67792 -0.30353
3240.62948 -0.30188
3238.58104 -0.30049
3236.53261 -0.30001
3234.48417 -0.30093
3232.43573 -0.30175
3230.38729 -0.30246
3228.33885 -0.30267
3226.29041 -0.30080
3224.24198 -0.29844
3222.19354 -0.29781
3220.14510 -0.29806
3218.09666 -0.29700
3216.04822 -0.29489
3213.99978 -0.29418
3211.95135 -0.29630
3209.90291 -0.29957
3207.85447 -0.30061
3205.80603 -0.29857
3203.75759 -0.29560
3201.70915 -0.29386
3199.66072 -0.29390
3197.61228 -0.29412
3195.56384 -0.29245
3193.51540 -0.28989
3191.46696 -0.28920
3189.41852 -0.29073
3187.37008 -0.29241
3185.32165 -0.29299
3183.27321 -0.29272
3181.22477 -0.29186
3179.17633 -0.28994
3177.12789 -0.28727
3175.07945 -0.28588
3173.03102 -0.28612
3170.98258 -0.28741
3168.93414 -0.28858
3166.88570 -0.28750
3164.83726 -0.28495
3162.78882 -0.28241
3160.74039 -0.28016
3158.69195 -0.28008
3156.64351 -0.28160
3154.59507 -0.28191
3152.54663 -0.28024
3150.49819 -0.27729
3148.44976 -0.27516
3146.40132 -0.27509
3144.35288 -0.27540
3142.30444 -0.27471
3140.25600 -0.27414
3138.20756 -0.27324
3136.15913 -0.27105
3134.11069 -0.26916
3132.06225 -0.26827
3130.01381 -0.26770
3127.96537 -0.26687
3125.91693 -0.26666
3123.86850 -0.26663
3121.82006 -0.26530
3119.77162 -0.26375
3117.72318 -0.26268
3115.67474 -0.26151
3113.62630 -0.26051
3111.57787 -0.26098
3109.52943 -0.26228
3107.48099 -0.26187
3105.43255 -0.25955
3103.38411 -0.25786
3101.33567 -0.25801
3099.28724 -0.25899
3097.23880 -0.25921
3095.19036 -0.25818
3093.14192 -0.25689
3091.09348 -0.25556
3089.04504 -0.25453
3086.99661 -0.25449
3084.94817 -0.25455
3082.89973 -0.25314
3080.85129 -0.25174
3078.80285 -0.25274
3076.75441 -0.25438
3074.70598 -0.25396
3072.65754 -0.25161
3070.60910 -0.25061
3068.56066 -0.25260
3066.51222 -0.25350
3064.46378 -0.25051
3062.41535 -0.24756
3060.36691 -0.24686
3058.31847 -0.24607
3056.27003 -0.24446
3054.22159 -0.24318
3052.17315 -0.24338
3050.12471 -0.24440
3048.07628 -0.24440
3046.02784 -0.24308
3043.97940 -0.24203
3041.93096 -0.24230
3039.88252 -0.24250
3037.83408 -0.24116
3035.78565 -0.23951
3033.73721 -0.23947
3031.68877 -0.24015
3029.64033 -0.23984
3027.59189 -0.23937
3025.54345 -0.23943
3023.49502 -0.23893
3021.44658 -0.23815
3019.39814 -0.23782
3017.34970 -0.23721
3015.30126 -0.23571
3013.25282 -0.23362
3011.20439 -0.23214
3009.15595 -0.23166
3007.10751 -0.23004
3005.05907 -0.22690
3003.01063 -0.22551
3000.96219 -0.22696
2998.91376 -0.22949
2996.86532 -0.23041
2994.81688 -0.22813
2992.76844 -0.22464
2990.72000 -0.22183
2988.67156 -0.22028
2986.62313 -0.22023
2984.57469 -0.22027
2982.52625 -0.21894
2980.47781 -0.21651
2978.42937 -0.21410
2976.38093 -0.21194
2974.33250 -0.20938
2972.28406 -0.20692
2970.23562 -0.20578
2968.18718 -0.20609
2966.13874 -0.20742
2964.09030 -0.20929
2962.04187 -0.21226
2959.99343 -0.21648
2957.94499 -0.21944
2955.89655 -0.22046
2953.84811 -0.22205
2951.79967 -0.22496
2949.75124 -0.22707
2947.70280 -0.22587
2945.65436 -0.22291
2943.60592 -0.22198
2941.55748 -0.22291
2939.50904 -0.22453
2937.46061 -0.22645
2935.41217 -0.22727
2933.36373 -0.22664
2931.31529 -0.22643
2929.26685 -0.22742
2927.21841 -0.22846
2925.16998 -0.23020
2923.12154 -0.23284
2921.07310 -0.23400
2919.02466 -0.23326
2916.97622 -0.23217
2914.92778 -0.23202
2912.87934 -0.23319
2910.83091 -0.23442
2908.78247 -0.23474
2906.73403 -0.23442
2904.68559 -0.23431
2902.63715 -0.23455
2900.58871 -0.23383
2898.54028 -0.23270
2896.49184 -0.23306
2894.44340 -0.23324
2892.39496 -0.23143
2890.34652 -0.23033
2888.29808 -0.23156
2886.24965 -0.23254
2884.20121 -0.23217
2882.15277 -0.23132
2880.10433 -0.23000
2878.05589 -0.22888
2876.00745 -0.22913
2873.95902 -0.23030
2871.91058 -0.23173
2869.86214 -0.23421
2867.81370 -0.23666
2865.76526 -0.23745
2863.71682 -0.23793
2861.66839 -0.23876
2859.61995 -0.23884
2857.57151 -0.23850
2855.52307 -0.23858
2853.47463 -0.23903
2851.42619 -0.23941
2849.37776 -0.23907
2847.32932 -0.23808
2845.28088 -0.23712
2843.23244 -0.23689
2841.18400 -0.23758
2839.13556 -0.23818
2837.08713 -0.23776
2835.03869 -0.23671
2832.99025 -0.23617
2830.94181 -0.23613
2828.89337 -0.23543
2826.84493 -0.23432
2824.79650 -0.23390
2822.74806 -0.23406
2820.69962 -0.23423
2818.65118 -0.23384
2816.60274 -0.23226
2814.55430 -0.23023
2812.50587 -0.22910
2810.45743 -0.22877
2808.40899 -0.22875
2806.36055 -0.22921
2804.31211 -0.22941
2802.26367 -0.22832
2800.21524 -0.22689
2798.16680 -0.22662
2796.11836 -0.22718
2794.06992 -0.22725
2792.02148 -0.22618
2789.97304 -0.22501
2787.92461 -0.22550
2785.87617 -0.22700
2783.82773 -0.22743
2781.77929 -0.22653
2779.73085 -0.22469
2777.68241 -0.22206
2775.63397 -0.22010
2773.58554 -0.22001
2771.53710 -0.22125
2769.48866 -0.22294
2767.44022 -0.22342
2765.39178 -0.22297
2763.34334 -0.22292
2761.29491 -0.22217
2759.24647 -0.22092
2757.19803 -0.21998
2755.14959 -0.21964
2753.10115 -0.22052
2751.05271 -0.22134
2749.00428 -0.22100
2746.95584 -0.22114
2744.90740 -0.22237
2742.85896 -0.22265
2740.81052 -0.22178
2738.76208 -0.22141
2736.71365 -0.22154
2734.66521 -0.22137
2732.61677 -0.22110
2730.56833 -0.22082
2728.51989 -0.22030
2726.47145 -0.22061
2724.42302 -0.22142
2722.37458 -0.22138
2720.32614 -0.22152
2718.27770 -0.22228
2716.22926 -0.22264
2714.18082 -0.22233
2712.13239 -0.22186
2710.08395 -0.22119
2708.03551 -0.22010
2705.98707 -0.21979
2703.93863 -0.22053
2701.89019 -0.22137
2699.84176 -0.22148
2697.79332 -0.22109
2695.74488 -0.22110
2693.69644 -0.22056
2691.64800 -0.21898
2689.59956 -0.21796
2687.55113 -0.21809
2685.50269 -0.21873
2683.45425 -0.21945
2681.40581 -0.21914
2679.35737 -0.21795
2677.30893 -0.21782
2675.26050 -0.21839
2673.21206 -0.21849
2671.16362 -0.21789
2669.11518 -0.21661
2667.06674 -0.21580
2665.01830 -0.21574
2662.96987 -0.21533
2660.92143 -0.21502
2658.87299 -0.21540
2656.82455 -0.21492
2654.77611 -0.21299
2652.72767 -0.21177
2650.67924 -0.21297
2648.63080 -0.21437
2646.58236 -0.21331
2644.53392 -0.21093
2642.48548 -0.20946
2640.43704 -0.20919
2638.38860 -0.20880
2636.34017 -0.20767
2634.29173 -0.20701
2632.24329 -0.20717
2630.19485 -0.20737
2628.14641 -0.20693
2626.09797 -0.20540
2624.04954 -0.20335
2622.00110 -0.20249
2619.95266 -0.20319
2617.90422 -0.20362
2615.85578 -0.20364
2613.80734 -0.20403
2611.75891 -0.20380
2609.71047 -0.20250
2607.66203 -0.20120
2605.61359 -0.20122
2603.56515 -0.20150
2601.51671 -0.20021
2599.46828 -0.19848
2597.41984 -0.19761
2595.37140 -0.19781
2593.32296 -0.19861
2591.27452 -0.19799
2589.22608 -0.19601
2587.17765 -0.19442
2585.12921 -0.19363
2583.08077 -0.19381
2581.03233 -0.19425
2578.98389 -0.19412
2576.93545 -0.19310
2574.88702 -0.19149
2572.83858 -0.19033
2570.79014 -0.18960
2568.74170 -0.18923
2566.69326 -0.18951
2564.64482 -0.19016
2562.59639 -0.19073
2560.54795 -0.19148
2558.49951 -0.19224
2556.45107 -0.19181
2554.40263 -0.19060
2552.35419 -0.18996
2550.30576 -0.18974
2548.25732 -0.18910
2546.20888 -0.18852
2544.16044 -0.18879
2542.11200 -0.18948
2540.06356 -0.18991
2538.01513 -0.19027
2535.96669 -0.19081
2533.91825 -0.19125
2531.86981 -0.19149
2529.82137 -0.19151
2527.77293 -0.19186
2525.72450 -0.19319
2523.67606 -0.19439
2521.62762 -0.19442
2519.57918 -0.19412
2517.53074 -0.19431
2515.48230 -0.19471
2513.43387 -0.19520
2511.38543 -0.19584
2509.33699 -0.19647
2507.28855 -0.19714
2505.24011 -0.19762
2503.19167 -0.19803
2501.14324 -0.19852
2499.09480 -0.19823
2497.04636 -0.19763
2494.99792 -0.19772
2492.94948 -0.19841
2490.90104 -0.20008
2488.85260 -0.20243
2486.80417 -0.20394
2484.75573 -0.20405
2482.70729 -0.20344
2480.65885 -0.20291
2478.61041 -0.20328
2476.56197 -0.20471
2474.51354 -0.20583
2472.46510 -0.20579
2470.41666 -0.20563
2468.36822 -0.20554
2466.31978 -0.20449
2464.27134 -0.20278
2462.22291 -0.20136
2460.17447 -0.20087
2458.12603 -0.20187
2456.07759 -0.20372
2454.02915 -0.20423
2451.98071 -0.20260
2449.93228 -0.20082
2447.88384 -0.20008
2445.83540 -0.19912
2443.78696 -0.19784
2441.73852 -0.19832
2439.69008 -0.19978
2437.64165 -0.19963
2435.59321 -0.19848
2433.54477 -0.19760
2431.49633 -0.19695
2429.44789 -0.19625
2427.39945 -0.19488
2425.35102 -0.19318
2423.30258 -0.19194
2421.25414 -0.19103
2419.20570 -0.19060
2417.15726 -0.19147
2415.10882 -0.19244
2413.06039 -0.19122
2411.01195 -0.18917
2408.96351 -0.18917
2406.91507 -0.18958
2404.86663 -0.18773
2402.81819 -0.18499
2400.76976 -0.18367
2398.72132 -0.18405
2396.67288 -0.18504
2394.62444 -0.18547
2392.57600 -0.18512
2390.52756 -0.18504
2388.47913 -0.18508
2386.43069 -0.18457
2384.38225 -0.18402
2382.33381 -0.18314
2380.28537 -0.18199
2378.23693 -0.18270
2376.18850 -0.18623
2374.14006 -0.19022
2372.09162 -0.19232
2370.04318 -0.19295
2367.99474 -0.19134
2365.94630 -0.18579
2363.89787 -0.18071
2361.84943 -0.18214
2359.80099 -0.18583
2357.75255 -0.18072
2355.70411 -0.17178
2353.65567 -0.17056
2351.60723 -0.17431
2349.55880 -0.18002
2347.51036 -0.18610
2345.46192 -0.18690
2343.41348 -0.18196
2341.36504 -0.18132
2339.31660 -0.18414
2337.26817 -0.18417
2335.21973 -0.18114
2333.17129 -0.17905
2331.12285 -0.17778
2329.07441 -0.17460
2327.02597 -0.17292
2324.97754 -0.17436
2322.92910 -0.17550
2320.88066 -0.17548
2318.83222 -0.17697
2316.78378 -0.17955
2314.73534 -0.17989
2312.68691 -0.17776
2310.63847 -0.17545
2308.59003 -0.17537
2306.54159 -0.17751
2304.49315 -0.17926
2302.44471 -0.17961
2300.39628 -0.17933
2298.34784 -0.17925
2296.29940 -0.17951
2294.25096 -0.17998
2292.20252 -0.18073
2290.15408 -0.18135
2288.10565 -0.18213
2286.05721 -0.18280
2284.00877 -0.18267
2281.96033 -0.18330
2279.91189 -0.18495
2277.86345 -0.18526
2275.81502 -0.18415
2273.76658 -0.18366
2271.71814 -0.18417
2269.66970 -0.18446
2267.62126 -0.18443
2265.57282 -0.18494
2263.52439 -0.18527
2261.47595 -0.18458
2259.42751 -0.18405
2257.37907 -0.18457
2255.33063 -0.18539
2253.28219 -0.18536
2251.23376 -0.18426
2249.18532 -0.18302
2247.13688 -0.18212
2245.08844 -0.18162
2243.04000 -0.18151
2240.99156 -0.18157
2238.94313 -0.18177
2236.89469 -0.18210
2234.84625 -0.18255
2232.79781 -0.18300
2230.74937 -0.18359
2228.70093 -0.18409
2226.65250 -0.18392
2224.60406 -0.18357
2222.55562 -0.18336
2220.50718 -0.18317
2218.45874 -0.18310
2216.41030 -0.18262
2214.36186 -0.18147
2212.31343 -0.18069
2210.26499 -0.18123
2208.21655 -0.18272
2206.16811 -0.18441
2204.11967 -0.18567
2202.07123 -0.18627
2200.02280 -0.18623
2197.97436 -0.18633
2195.92592 -0.18706
2193.87748 -0.18721
2191.82904 -0.18639
2189.78060 -0.18605
2187.73217 -0.18702
2185.68373 -0.18835
2183.63529 -0.18894
2181.58685 -0.18932
2179.53841 -0.18995
2177.48997 -0.19008
2175.44154 -0.18966
2173.39310 -0.19007
2171.34466 -0.19187
2169.29622 -0.19376
2167.24778 -0.19427
2165.19934 -0.19337
2163.15091 -0.19263
2161.10247 -0.19346
2159.05403 -0.19549
2157.00559 -0.19739
2154.95715 -0.19871
2152.90871 -0.20011
2150.86028 -0.20126
2148.81184 -0.20139
2146.76340 -0.20136
2144.71496 -0.20139
2142.66652 -0.20091
2140.61808 -0.20092
2138.56965 -0.20231
2136.52121 -0.20430
2134.47277 -0.20569
2132.42433 -0.20601
2130.37589 -0.20512
2128.32745 -0.20414
2126.27902 -0.20434
2124.23058 -0.20490
2122.18214 -0.20583
2120.13370 -0.20770
2118.08526 -0.20878
2116.03682 -0.20800
2113.98839 -0.20682
2111.93995 -0.20620
2109.89151 -0.20648
2107.84307 -0.20739
2105.79463 -0.20764
2103.74619 -0.20678
2101.69776 -0.20551
2099.64932 -0.20503
2097.60088 -0.20534
2095.55244 -0.20512
2093.50400 -0.20458
2091.45556 -0.20461
2089.40713 -0.20462
2087.35869 -0.20441
2085.31025 -0.20492
2083.26181 -0.20555
2081.21337 -0.20492
2079.16493 -0.20417
2077.11649 -0.20511
2075.06806 -0.20626
2073.01962 -0.20558
2070.97118 -0.20433
2068.92274 -0.20422
2066.87430 -0.20464
2064.82586 -0.20402
2062.77743 -0.20250
2060.72899 -0.20130
2058.68055 -0.20106
2056.63211 -0.20157
2054.58367 -0.20226
2052.53523 -0.20387
2050.48680 -0.20576
2048.43836 -0.20554
2046.38992 -0.20425
2044.34148 -0.20398
2042.29304 -0.20349
2040.24460 -0.20235
2038.19617 -0.20244
2036.14773 -0.20376
2034.09929 -0.20499
2032.05085 -0.20566
2030.00241 -0.20549
2027.95397 -0.20477
2025.90554 -0.20489
2023.85710 -0.20636
2021.80866 -0.20765
2019.76022 -0.20829
2017.71178 -0.20901
2015.66334 -0.20964
2013.61491 -0.21025
2011.56647 -0.21083
2009.51803 -0.21113
2007.46959 -0.21141
2005.42115 -0.21182
2003.37271 -0.21261
2001.32428 -0.21404
1999.27584 -0.21549
1997.22740 -0.21614
1995.17896 -0.21618
1993.13052 -0.21625
1991.08208 -0.21655
1989.03365 -0.21746
1986.98521 -0.21903
1984.93677 -0.22100
1982.88833 -0.22290
1980.83989 -0.22385
1978.79145 -0.22404
1976.74302 -0.22465
1974.69458 -0.22617
1972.64614 -0.22791
1970.59770 -0.22889
1968.54926 -0.22871
1966.50082 -0.22812
1964.45239 -0.22909
1962.40395 -0.23094
1960.35551 -0.23149
1958.30707 -0.23129
1956.25863 -0.23132
1954.21019 -0.23140
1952.16176 -0.23131
1950.11332 -0.23145
1948.06488 -0.23225
1946.01644 -0.23278
1943.96800 -0.23205
1941.91956 -0.22980
1939.87112 -0.22792
1937.82269 -0.22826
1935.77425 -0.22897
1933.72581 -0.22825
1931.67737 -0.22715
1929.62893 -0.22662
1927.58049 -0.22584
1925.53206 -0.22368
1923.48362 -0.22064
1921.43518 -0.21912
1919.38674 -0.21903
1917.33830 -0.21908
1915.28986 -0.21971
1913.24143 -0.21964
1911.19299 -0.21828
1909.14455 -0.21758
1907.09611 -0.21848
1905.04767 -0.21935
1902.99923 -0.21973
1900.95080 -0.22022
1898.90236 -0.22036
1896.85392 -0.21993
1894.80548 -0.21847
1892.75704 -0.21692
1890.70860 -0.21633
1888.66017 -0.21581
1886.61173 -0.21578
1884.56329 -0.21652
1882.51485 -0.21716
1880.46641 -0.21748
1878.41797 -0.21742
1876.36954 -0.21716
1874.32110 -0.21721
1872.27266 -0.21723
1870.22422 -0.21631
1868.17578 -0.21452
1866.12734 -0.21549
1864.07891 -0.21901
1862.03047 -0.22137
1859.98203 -0.22240
1857.93359 -0.22408
1855.88515 -0.22684
1853.83671 -0.22973
1851.78828 -0.23170
1849.73984 -0.23312
1847.69140 -0.23478
1845.64296 -0.23485
1843.59452 -0.23335
1841.54608 -0.23527
1839.49765 -0.23888
1837.44921 -0.24144
1835.40077 -0.24320
1833.35233 -0.24509
1831.30389 -0.24654
1829.25545 -0.24687
1827.20702 -0.24748
1825.15858 -0.24816
1823.11014 -0.24995
1821.06170 -0.25418
1819.01326 -0.25787
1816.96482 -0.25913
1814.91639 -0.26023
1812.86795 -0.26177
1810.81951 -0.26253
1808.77107 -0.26316
1806.72263 -0.26403
1804.67419 -0.26474
1802.62575 -0.26485
1800.57732 -0.26490
1798.52888 -0.26654
1796.48044 -0.26777
1794.43200 -0.26725
1792.38356 -0.26622
1790.33512 -0.26718
1788.28669 -0.27001
1786.23825 -0.27078
1784.18981 -0.26882
1782.14137 -0.26702
1780.09293 -0.26607
1778.04449 -0.26674
1775.99606 -0.26827
1773.94762 -0.26723
1771.89918 -0.26203
1769.85074 -0.25869
1767.80230 -0.25916
1765.75386 -0.26099
1763.70543 -0.26225
1761.65699 -0.26100
1759.60855 -0.25883
1757.56011 -0.25717
1755.51167 -0.25538
1753.46323 -0.25422
1751.41480 -0.25297
1749.36636 -0.25197
1747.31792 -0.25476
1745.26948 -0.26158
1743.22104 -0.27099
1741.17260 -0.28145
1739.12417 -0.29384
1737.07573 -0.30602
1735.02729 -0.32071
1732.97885 -0.34101
1730.93041 -0.35326
1728.88197 -0.35976
1726.83354 -0.36209
1724.78510 -0.35859
1722.73666 -0.34988
1720.68822 -0.33902
1718.63978 -0.32293
1716.59134 -0.29709
1714.54291 -0.27912
1712.49447 -0.27086
1710.44603 -0.26563
1708.39759 -0.26119
1706.34915 -0.25525
1704.30071 -0.24960
1702.25228 -0.24698
1700.20384 -0.24264
1698.15540 -0.23775
1696.10696 -0.23905
1694.05852 -0.24139
1692.01008 -0.24134
1689.96165 -0.23979
1687.91321 -0.23812
1685.86477 -0.23731
1683.81633 -0.23841
1681.76789 -0.24072
1679.71945 -0.24202
1677.67102 -0.24242
1675.62258 -0.24327
1673.57414 -0.24507
1671.52570 -0.24457
1669.47726 -0.24439
1667.42882 -0.24867
1665.38038 -0.25181
1663.33195 -0.25180
1661.28351 -0.25094
1659.23507 -0.25139
1657.18663 -0.25119
1655.13819 -0.24872
1653.08975 -0.24696
1651.04132 -0.24953
1648.99288 -0.24912
1646.94444 -0.24790
1644.89600 -0.24913
1642.84756 -0.24933
1640.79912 -0.24856
1638.75069 -0.24708
1636.70225 -0.24411
1634.65381 -0.24398
1632.60537 -0.24604
1630.55693 -0.24537
1628.50849 -0.24197
1626.46006 -0.23864
1624.41162 -0.23607
1622.36318 -0.23293
1620.31474 -0.23124
1618.26630 -0.23037
1616.21786 -0.23023
1614.16943 -0.23132
1612.12099 -0.23031
1610.07255 -0.22669
1608.02411 -0.22397
1605.97567 -0.22431
1603.92723 -0.22499
1601.87880 -0.22439
1599.83036 -0.22355
1597.78192 -0.22211
1595.73348 -0.21969
1593.68504 -0.21861
1591.63660 -0.21865
1589.58817 -0.21827
1587.53973 -0.21779
1585.49129 -0.21706
1583.44285 -0.21662
1581.39441 -0.21671
1579.34597 -0.21609
1577.29754 -0.21414
1575.24910 -0.21296
1573.20066 -0.21273
1571.15222 -0.21095
1569.10378 -0.20987
1567.05534 -0.21138
1565.00691 -0.21290
1562.95847 -0.21371
1560.91003 -0.21271
1558.86159 -0.21050
1556.81315 -0.21259
1554.76471 -0.21524
1552.71628 -0.21717
1550.66784 -0.21798
1548.61940 -0.21891
1546.57096 -0.21904
1544.52252 -0.21591
1542.47408 -0.20977
1540.42565 -0.20715
1538.37721 -0.21321
1536.32877 -0.21660
1534.28033 -0.21714
1532.23189 -0.21864
1530.18345 -0.22123
1528.13501 -0.22262
1526.08658 -0.22215
1524.03814 -0.21978
1521.98970 -0.21731
1519.94126 -0.21805
1517.89282 -0.22026
1515.84438 -0.22203
1513.79595 -0.22300
1511.74751 -0.22251
1509.69907 -0.21838
1507.65063 -0.21080
1505.60219 -0.21717
1503.55375 -0.22499
1501.50532 -0.22729
1499.45688 -0.22717
1497.40844 -0.22745
1495.36000 -0.23118
1493.31156 -0.23415
1491.26312 -0.23504
1489.21469 -0.23865
1487.16625 -0.24632
1485.11781 -0.25119
1483.06937 -0.25218
1481.02093 -0.25244
1478.97249 -0.25410
1476.92406 -0.25553
1474.87562 -0.25579
1472.82718 -0.25916
1470.77874 -0.26613
1468.73030 -0.26904
1466.68186 -0.26820
1464.63343 -0.26643
1462.58499 -0.26521
1460.53655 -0.26213
1458.48811 -0.25616
1456.43967 -0.25610
1454.39123 -0.26238
1452.34280 -0.26577
1450.29436 -0.26687
1448.24592 -0.26721
1446.19748 -0.26821
1444.14904 -0.26848
1442.10060 -0.26758
1440.05217 -0.26617
1438.00373 -0.26337
1435.95529 -0.26101
1433.90685 -0.26190
1431.85841 -0.26208
1429.80997 -0.26058
1427.76154 -0.26066
1425.71310 -0.26256
1423.66466 -0.26423
1421.61622 -0.26418
1419.56778 -0.26347
1417.51934 -0.26723
1415.47091 -0.27248
1413.42247 -0.27507
1411.37403 -0.27714
1409.32559 -0.28051
1407.27715 -0.28369
1405.22871 -0.28559
1403.18028 -0.28655
1401.13184 -0.28620
1399.08340 -0.28463
1397.03496 -0.28553
1394.98652 -0.29104
1392.93808 -0.29593
1390.88965 -0.29761
1388.84121 -0.29866
1386.79277 -0.30136
1384.74433 -0.30473
1382.69589 -0.30661
1380.64745 -0.30793
1378.59901 -0.30978
1376.55058 -0.31056
1374.50214 -0.31080
1372.45370 -0.31373
1370.40526 -0.31741
1368.35682 -0.31847
1366.30838 -0.31730
1364.25995 -0.31628
1362.21151 -0.31639
1360.16307 -0.31717
1358.11463 -0.31791
1356.06619 -0.31812
1354.01775 -0.31785
1351.96932 -0.31758
1349.92088 -0.31761
1347.87244 -0.31798
1345.82400 -0.31870
1343.77556 -0.31982
1341.72712 -0.32027
1339.67869 -0.31931
1337.63025 -0.31855
1335.58181 -0.31912
1333.53337 -0.32092
1331.48493 -0.32338
1329.43649 -0.32510
1327.38806 -0.32555
1325.33962 -0.32629
1323.29118 -0.32786
1321.24274 -0.32864
1319.19430 -0.32912
1317.14586 -0.33113
1315.09743 -0.33375
1313.04899 -0.33589
1311.00055 -0.33860
1308.95211 -0.34193
1306.90367 -0.34430
1304.85523 -0.34572
1302.80680 -0.34761
1300.75836 -0.34985
1298.70992 -0.35156
1296.66148 -0.35339
1294.61304 -0.35602
1292.56460 -0.35791
1290.51617 -0.35883
1288.46773 -0.36103
1286.41929 -0.36449
1284.37085 -0.36769
1282.32241 -0.37017
1280.27397 -0.37279
1278.22554 -0.37630
1276.17710 -0.38010
1274.12866 -0.38417
1272.08022 -0.38808
1270.03178 -0.38967
1267.98334 -0.38858
1265.93491 -0.38732
1263.88647 -0.38654
1261.83803 -0.38566
1259.78959 -0.38563
1257.74115 -0.38564
1255.69271 -0.38441
1253.64428 -0.38292
1251.59584 -0.38250
1249.54740 -0.38370
1247.49896 -0.38619
1245.45052 -0.38923
1243.40208 -0.39213
1241.35364 -0.39442
1239.30521 -0.39523
1237.25677 -0.39285
1235.20833 -0.38745
1233.15989 -0.38162
1231.11145 -0.37714
1229.06301 -0.37344
1227.01458 -0.36928
1224.96614 -0.36479
1222.91770 -0.36033
1220.86926 -0.35605
1218.82082 -0.35241
1216.77238 -0.35023
1214.72395 -0.34952
1212.67551 -0.34914
1210.62707 -0.34886
1208.57863 -0.34932
1206.53019 -0.35170
1204.48175 -0.35590
1202.43332 -0.36075
1200.38488 -0.36617
1198.33644 -0.37157
1196.28800 -0.37656
1194.23956 -0.38153
1192.19112 -0.38632
1190.14269 -0.39146
1188.09425 -0.39857
1186.04581 -0.40776
1183.99737 -0.41646
1181.94893 -0.42358
1179.90049 -0.42969
1177.85206 -0.43485
1175.80362 -0.43980
1173.75518 -0.44519
1171.70674 -0.44987
1169.65830 -0.45240
1167.60986 -0.45349
1165.56143 -0.45532
1163.51299 -0.45973
1161.46455 -0.46605
1159.41611 -0.47302
1157.36767 -0.48130
1155.31923 -0.48938
1153.27080 -0.49531
1151.22236 -0.50035
1149.17392 -0.50581
1147.12548 -0.51020
1145.07704 -0.51104
1143.02860 -0.50864
1140.98017 -0.50542
1138.93173 -0.50235
1136.88329 -0.49895
1134.83485 -0.49542
1132.78641 -0.49172
1130.73797 -0.48770
1128.68954 -0.48529
1126.64110 -0.48496
1124.59266 -0.48399
1122.54422 -0.48252
1120.49578 -0.48115
1118.44734 -0.47824
1116.39891 -0.47472
1114.35047 -0.47165
1112.30203 -0.46849
1110.25359 -0.46489
1108.20515 -0.46168
1106.15671 -0.45902
1104.10827 -0.45535
1102.05984 -0.45156
1100.01140 -0.44881
1097.96296 -0.44536
1095.91452 -0.44242
1093.86608 -0.44314
1091.81764 -0.44463
1089.76921 -0.44292
1087.72077 -0.44077
1085.67233 -0.44190
1083.62389 -0.44509
1081.57545 -0.44721
1079.52701 -0.44776
1077.47858 -0.44871
1075.43014 -0.45110
1073.38170 -0.45470
1071.33326 -0.45870
1069.28482 -0.46229
1067.23638 -0.46489
1065.18795 -0.46645
1063.13951 -0.46853
1061.09107 -0.47091
1059.04263 -0.47141
1056.99419 -0.47028
1054.94575 -0.46960
1052.89732 -0.47052
1050.84888 -0.47225
1048.80044 -0.47328
1046.75200 -0.47468
1044.70356 -0.47794
1042.65512 -0.48143
1040.60669 -0.48496
1038.55825 -0.48825
1036.50981 -0.48900
1034.46137 -0.48878
1032.41293 -0.49070
1030.36449 -0.49419
1028.31606 -0.49732
1026.26762 -0.49903
1024.21918 -0.49931
1022.17074 -0.50096
1020.12230 -0.50570
1018.07386 -0.50947
1016.02543 -0.50851
1013.97699 -0.50618
1011.92855 -0.50529
1009.88011 -0.50393
1007.83167 -0.50241
1005.78323 -0.50334
1003.73480 -0.50767
1001.68636 -0.51339
999.63792 -0.51870
997.58948 -0.52269
995.54104 -0.52495
993.49260 -0.52607
991.44417 -0.52436
989.39573 -0.51932
987.34729 -0.51258
985.29885 -0.50556
983.25041 -0.50221
981.20197 -0.50289
979.15354 -0.50263
977.10510 -0.50125
975.05666 -0.50110
973.00822 -0.50250
970.95978 -0.50598
968.91134 -0.50832
966.86290 -0.50743
964.81447 -0.50714
962.76603 -0.50700
960.71759 -0.50592
958.66915 -0.50598
956.62071 -0.50773
954.57227 -0.51385
952.52384 -0.52294
950.47540 -0.52873
948.42696 -0.53092
946.37852 -0.53271
944.33008 -0.53264
942.28164 -0.52779
940.23321 -0.51808
938.18477 -0.50240
936.13633 -0.48071
934.08789 -0.45586
932.03945 -0.42739
929.99101 -0.39309
927.94258 -0.35473
925.89414 -0.31488
923.84570 -0.27609
921.79726 -0.24037
919.74882 -0.20642
917.70038 -0.17212
915.65195 -0.13839
913.60351 -0.10794
911.55507 -0.08052
909.50663 -0.05482
907.45819 -0.03006
905.40975 -0.00408
903.36132 0.02421
901.31288 0.05270
899.26444 0.08031
897.21600 0.10742
895.16756 0.13329
893.11912 0.16123
891.07069 0.19386
889.02225 0.22532
886.97381 0.25009
884.92537 0.26945
882.87693 0.28491
880.82849 0.29541
878.78006 0.30030
876.73162 0.29816
874.68318 0.28085
872.63474 0.23778
870.58630 0.17038
868.53786 0.08599
866.48943 -0.00873
864.44099 -0.10495
862.39255 -0.19515
860.34411 -0.27389
858.29567 -0.33882
856.24723 -0.39294
854.19880 -0.43961
852.15036 -0.48078
850.10192 -0.51782
848.05348 -0.54927
846.00504 -0.57444
843.95660 -0.59417
841.90817 -0.60936
839.85973 -0.62185
837.81129 -0.63074
835.76285 -0.63199
833.71441 -0.62634
831.66597 -0.61797
829.61753 -0.60756
827.56910 -0.59507
825.52066 -0.58251
823.47222 -0.57289
821.42378 -0.56831
819.37534 -0.56872
817.32690 -0.57247
815.27847 -0.57820
813.23003 -0.58604
811.18159 -0.59447
809.13315 -0.59944
807.08471 -0.60067
805.03627 -0.60099
802.98784 -0.59981
800.93940 -0.59651
798.89096 -0.59235
796.84252 -0.58735
794.79408 -0.58131
792.74564 -0.57411
790.69721 -0.56524
788.64877 -0.55630
786.60033 -0.54939
784.55189 -0.54342
782.50345 -0.53721
780.45501 -0.53135
778.40658 -0.52598
776.35814 -0.52057
774.30970 -0.51756
772.26126 -0.52212
770.21282 -0.53735
768.16438 -0.56608
766.11595 -0.60747
764.06751 -0.65413
762.01907 -0.70177
759.97063 -0.75153
757.92219 -0.80398
755.87375 -0.85566
753.82532 -0.90033
751.77688 -0.93448
749.72844 -0.96098
747.68000 -0.98366
745.63156 -1.00230
743.58312 -1.01762
741.53469 -1.03191
739.48625 -1.04630
737.43781 -1.05890
735.38937 -1.06507
733.34093 -1.06780
731.29249 -1.07363
729.24406 -1.08160
727.19562 -1.09093
725.14718 -1.09964
723.09874 -1.10041
721.05030 -1.09248
719.00186 -1.08374
716.95343 -1.07858
714.90499 -1.07364
712.85655 -1.07041
710.80811 -1.07165
708.75967 -1.07172
706.71123 -1.07008
704.66280 -1.06889
702.61436 -1.06447
700.56592 -1.05994
698.51748 -1.05922
696.46904 -1.05737
694.42060 -1.05561
692.37216 -1.05821
690.32373 -1.06533
688.27529 -1.07338
686.22685 -1.06569
684.17841 -1.04035
682.12997 -1.01516
680.08153 -0.99839
678.03310 -0.98568
675.98466 -0.97433
673.93622 -0.96977
671.88778 -0.96540
669.83934 -0.94354
667.79090 -0.90030
665.74247 -0.87730
663.69403 -0.87153
661.64559 -0.86760
659.59715 -0.86350
657.54871 -0.85652
655.50027 -0.84742
653.45184 -0.84563
651.40340 -0.84900
649.35496 -0.84331
647.30652 -0.82681
645.25808 -0.80353
643.20964 -0.77501
641.16121 -0.75311
639.11277 -0.74803
637.06433 -0.74779
635.01589 -0.73751
632.96745 -0.72605
630.91901 -0.73260
628.87058 -0.75662
626.82214 -0.76710
624.77370 -0.74705
622.72526 -0.71915
620.67682 -0.70370
618.62838 -0.69850
616.57995 -0.67390
614.53151 -0.63149
612.48307 -0.60767
610.43463 -0.61619
608.38619 -0.64521
606.33775 -0.66104
604.28932 -0.64708
602.24088 -0.63630
600.19244 -0.63521
598.14400 -0.62694
