3996.50324 0.12958
3994.45480 0.13065
3992.40636 0.13016
3990.35792 0.12888
3988.30948 0.12897
3986.26104 0.12939
3984.21261 0.12810
3982.16417 0.12605
3980.11573 0.12587
3978.06729 0.12773
3976.01885 0.12918
3973.97041 0.12937
3971.92198 0.12967
3969.87354 0.13008
3967.82510 0.12987
3965.77666 0.13023
3963.72822 0.13121
3961.67978 0.13130
3959.63135 0.13149
3957.58291 0.13122
3955.53447 0.12881
3953.48603 0.12753
3951.43759 0.12923
3949.38915 0.13043
3947.34072 0.12957
3945.29228 0.13016
3943.24384 0.13274
3941.19540 0.13412
3939.14696 0.13355
3937.09852 0.13237
3935.05009 0.13242
3933.00165 0.13385
3930.95321 0.13475
3928.90477 0.13499
3926.85633 0.13553
3924.80789 0.13482
3922.75946 0.13235
3920.71102 0.13186
3918.66258 0.13348
3916.61414 0.13380
3914.56570 0.13329
3912.51726 0.13422
3910.46883 0.13576
3908.42039 0.13778
3906.37195 0.14111
3904.32351 0.14297
3902.27507 0.14034
3900.22663 0.13757
3898.17820 0.13692
3896.12976 0.13790
3894.08132 0.14032
3892.03288 0.13998
3889.98444 0.13601
3887.93600 0.13523
3885.88756 0.13554
3883.83913 0.13454
3881.79069 0.13572
3879.74225 0.13725
3877.69381 0.13671
3875.64537 0.13500
3873.59693 0.13249
3871.54850 0.13121
3869.50006 0.13144
3867.45162 0.13271
3865.40318 0.13363
3863.35474 0.13362
3861.30630 0.13486
3859.25787 0.13667
3857.20943 0.13876
3855.16099 0.14010
3853.11255 0.13332
3851.06411 0.12821
3849.01567 0.13134
3846.96724 0.13450
3844.91880 0.13424
3842.87036 0.13127
3840.82192 0.12954
3838.77348 0.12944
3836.72504 0.12889
3834.67661 0.12938
3832.62817 0.12979
3830.57973 0.12926
3828.53129 0.12931
3826.48285 0.13034
3824.43441 0.13329
3822.38598 0.13642
3820.33754 0.13309
3818.28910 0.13007
3816.24066 0.12960
3814.19222 0.12715
3812.14378 0.12661
3810.09535 0.12871
3808.04691 0.13143
3805.99847 0.13307
3803.95003 0.13570
3801.90159 0.13607
3799.85315 0.13219
3797.80472 0.13143
3795.75628 0.13029
3793.70784 0.12774
3791.65940 0.12545
3789.61096 0.12363
3787.56252 0.12356
3785.51409 0.12349
3783.46565 0.12188
3781.41721 0.12127
3779.36877 0.12076
3777.32033 0.12064
3775.27189 0.12195
3773.22346 0.12254
3771.17502 0.12214
3769.12658 0.12027
3767.07814 0.11811
3765.02970 0.11700
3762.98126 0.11737
3760.93283 0.11895
3758.88439 0.11850
3756.83595 0.11758
3754.78751 0.11837
3752.73907 0.11706
3750.69063 0.11208
3748.64219 0.11066
3746.59376 0.11346
3744.54532 0.11513
3742.49688 0.11319
3740.44844 0.11270
3738.40000 0.11464
3736.35156 0.11672
3734.30313 0.11570
3732.25469 0.11161
3730.20625 0.10865
3728.15781 0.10912
3726.10937 0.11043
3724.06093 0.10808
3722.01250 0.10480
3719.96406 0.10327
3717.91562 0.10252
3715.86718 0.10277
3713.81874 0.10460
3711.77030 0.10501
3709.72187 0.09884
3707.67343 0.09488
3705.62499 0.09610
3703.57655 0.09764
3701.52811 0.09488
3699.47967 0.09126
3697.43124 0.09079
3695.38280 0.09129
3693.33436 0.09160
3691.28592 0.09143
3689.23748 0.08953
3687.18904 0.08685
3685.14061 0.08559
3683.09217 0.08552
3681.04373 0.08545
3678.99529 0.08412
3676.94685 0.08061
3674.89841 0.07497
3672.84998 0.07282
3670.80154 0.07057
3668.75310 0.06554
3666.70466 0.06440
3664.65622 0.06446
3662.60778 0.06201
3660.55935 0.05865
3658.51091 0.05789
3656.46247 0.05824
3654.41403 0.05692
3652.36559 0.05692
3650.31715 0.05786
3648.26872 0.05139
3646.22028 0.04334
3644.17184 0.03966
3642.12340 0.03686
3640.07496 0.03477
3638.02652 0.03409
3635.97809 0.03283
3633.92965 0.02997
3631.88121 0.02839
3629.83277 0.02710
3627.78433 0.01923
3625.73589 0.01242
3623.68746 0.00990
3621.63902 0.00937
3619.59058 0.00899
3617.54214 0.00692
3615.49370 0.00332
3613.44526 -0.00275
3611.39682 -0.00843
3609.34839 -0.01001
3607.29995 -0.00984
3605.25151 -0.01072
3603.20307 -0.01227
3601.15463 -0.01453
3599.10619 -0.01748
3597.05776 -0.02105
3595.00932 -0.02482
3592.96088 -0.02765
3590.91244 -0.03066
3588.86400 -0.03540
3586.81556 -0.03842
3584.76713 -0.03779
3582.71869 -0.04031
3580.67025 -0.04638
3578.62181 -0.05143
3576.57337 -0.05414
3574.52493 -0.05498
3572.47650 -0.05520
3570.42806 -0.05725
3568.37962 -0.06112
3566.33118 -0.06524
3564.28274 -0.06748
3562.23430 -0.06825
3560.18587 -0.06957
3558.13743 -0.07313
3556.08899 -0.07665
3554.04055 -0.07710
3551.99211 -0.07602
3549.94367 -0.07630
3547.89524 -0.07776
3545.84680 -0.08100
3543.79836 -0.08645
3541.74992 -0.08959
3539.70148 -0.08870
3537.65304 -0.08671
3535.60461 -0.08697
3533.55617 -0.08978
3531.50773 -0.09287
3529.45929 -0.09491
3527.41085 -0.09639
3525.36241 -0.09810
3523.31398 -0.09800
3521.26554 -0.09764
3519.21710 -0.10148
3517.16866 -0.10703
3515.12022 -0.10880
3513.07178 -0.10801
3511.02335 -0.10800
3508.97491 -0.10909
3506.92647 -0.11213
3504.87803 -0.11567
3502.82959 -0.11735
3500.78115 -0.11697
3498.73272 -0.11509
3496.68428 -0.11358
3494.63584 -0.11410
3492.58740 -0.11582
3490.53896 -0.11713
3488.49052 -0.11844
3486.44209 -0.11988
3484.39365 -0.11933
3482.34521 -0.11778
3480.29677 -0.11783
3478.24833 -0.11848
3476.19989 -0.12002
3474.15146 -0.12429
3472.10302 -0.12865
3470.05458 -0.12977
3468.00614 -0.12787
3465.95770 -0.12403
3463.90926 -0.12191
3461.86082 -0.12397
3459.81239 -0.12479
3457.76395 -0.12313
3455.71551 -0.12345
3453.66707 -0.12425
3451.61863 -0.12476
3449.57019 -0.12652
3447.52176 -0.12805
3445.47332 -0.12804
3443.42488 -0.12780
3441.37644 -0.12847
3439.32800 -0.12862
3437.27956 -0.12792
3435.23113 -0.12904
3433.18269 -0.13275
3431.13425 -0.13448
3429.08581 -0.13289
3427.03737 -0.13276
3424.98893 -0.13467
3422.94050 -0.13527
3420.89206 -0.13376
3418.84362 -0.13279
3416.79518 -0.13368
3414.74674 -0.13482
3412.69830 -0.13514
3410.64987 -0.13480
3408.60143 -0.13450
3406.55299 -0.13400
3404.50455 -0.13351
3402.45611 -0.13494
3400.40767 -0.13737
3398.35924 -0.13898
3396.31080 -0.14123
3394.26236 -0.14392
3392.21392 -0.14445
3390.16548 -0.14353
3388.11704 -0.14241
3386.06861 -0.14049
3384.02017 -0.14078
3381.97173 -0.14320
3379.92329 -0.14268
3377.87485 -0.14087
3375.82641 -0.14141
3373.77798 -0.14336
3371.72954 -0.14546
3369.68110 -0.14574
3367.63266 -0.14483
3365.58422 -0.14695
3363.53578 -0.14950
3361.48735 -0.14864
3359.43891 -0.14645
3357.39047 -0.14490
3355.34203 -0.14419
3353.29359 -0.14455
3351.24515 -0.14572
3349.19672 -0.14561
3347.14828 -0.14549
3345.09984 -0.14677
3343.05140 -0.14680
3341.00296 -0.14670
3338.95452 -0.14770
3336.90609 -0.14751
3334.85765 -0.14609
3332.80921 -0.14564
3330.76077 -0.14657
3328.71233 -0.14828
3326.66389 -0.15119
3324.61545 -0.15327
3322.56702 -0.15298
3320.51858 -0.15254
3318.47014 -0.15215
3316.42170 -0.15211
3314.37326 -0.15410
3312.32482 -0.15568
3310.27639 -0.15488
3308.22795 -0.15438
3306.17951 -0.15462
3304.13107 -0.15316
3302.08263 -0.15202
3300.03419 -0.15551
3297.98576 -0.16132
3295.93732 -0.16270
3293.88888 -0.15899
3291.84044 -0.15688
3289.79200 -0.15815
3287.74356 -0.15831
3285.69513 -0.15812
3283.64669 -0.15860
3281.59825 -0.15835
3279.54981 -0.15952
3277.50137 -0.16128
3275.45293 -0.16044
3273.40450 -0.15960
3271.35606 -0.16168
3269.30762 -0.16384
3267.25918 -0.16443
3265.21074 -0.16532
3263.16230 -0.16626
3261.11387 -0.16586
3259.06543 -0.16449
3257.01699 -0.16295
3254.96855 -0.16264
3252.92011 -0.16477
3250.87167 -0.16741
3248.82324 -0.16857
3246.77480 -0.16809
3244.72636 -0.16742
3242.67792 -0.16857
3240.62948 -0.16967
3238.58104 -0.16944
3236.53261 -0.17012
3234.48417 -0.17159
3232.43573 -0.17209
3230.38729 -0.17221
3228.33885 -0.17226
3226.29041 -0.17162
3224.24198 -0.17146
3222.19354 -0.17292
3220.14510 -0.17460
3218.09666 -0.17402
3216.04822 -0.17251
3213.99978 -0.17381
3211.95135 -0.17778
3209.90291 -0.18132
3207.85447 -0.18159
3205.80603 -0.17850
3203.75759 -0.17546
3201.70915 -0.17572
3199.66072 -0.17868
3197.61228 -0.18115
3195.56384 -0.18116
3193.51540 -0.17881
3191.46696 -0.17705
3189.41852 -0.17922
3187.37008 -0.18264
3185.32165 -0.18402
3183.27321 -0.18478
3181.22477 -0.18507
3179.17633 -0.18366
3177.12789 -0.18160
3175.07945 -0.18130
3173.03102 -0.18299
3170.98258 -0.18477
3168.93414 -0.18596
3166.88570 -0.18614
3164.83726 -0.18514
3162.78882 -0.18356
3160.74039 -0.18188
3158.69195 -0.18227
3156.64351 -0.18496
3154.59507 -0.18717
3152.54663 -0.18669
3150.49819 -0.18354
3148.44976 -0.18158
3146.40132 -0.18280
3144.35288 -0.18427
3142.30444 -0.18452
3140.25600 -0.18556
3138.20756 -0.18677
3136.15913 -0.18592
3134.11069 -0.18459
3132.06225 -0.18473
3130.01381 -0.18513
3127.96537 -0.18434
3125.91693 -0.18407
3123.86850 -0.18534
3121.82006 -0.18568
3119.77162 -0.18453
3117.72318 -0.18383
3115.67474 -0.18401
3113.62630 -0.18407
3111.57787 -0.18355
3109.52943 -0.18243
3107.48099 -0.18107
3105.43255 -0.17956
3103.38411 -0.17861
3101.33567 -0.17939
3099.28724 -0.18069
3097.23880 -0.18062
3095.19036 -0.18050
3093.14192 -0.18106
3091.09348 -0.18030
3089.04504 -0.17874
3086.99661 -0.17820
3084.94817 -0.17778
3082.89973 -0.17579
3080.85129 -0.17407
3078.80285 -0.17455
3076.75441 -0.17498
3074.70598 -0.17393
3072.65754 -0.17239
3070.60910 -0.17132
3068.56066 -0.17096
3066.51222 -0.17117
3064.46378 -0.17054
3062.41535 -0.16824
3060.36691 -0.16560
3058.31847 -0.16377
3056.27003 -0.16287
3054.22159 -0.16252
3052.17315 -0.16276
3050.12471 -0.16366
3048.07628 -0.16401
3046.02784 -0.16266
3043.97940 -0.16051
3041.93096 -0.15921
3039.88252 -0.15865
3037.83408 -0.15779
3035.78565 -0.15692
3033.73721 -0.15659
3031.68877 -0.15578
3029.64033 -0.15455
3027.59189 -0.15502
3025.54345 -0.15643
3023.49502 -0.15596
3021.44658 -0.15479
3019.39814 -0.15453
3017.34970 -0.15396
3015.30126 -0.15257
3013.25282 -0.15095
3011.20439 -0.15014
3009.15595 -0.14982
3007.10751 -0.14818
3005.05907 -0.14629
3003.01063 -0.14653
3000.96219 -0.14831
2998.91376 -0.15039
2996.86532 -0.15095
2994.81688 -0.14843
2992.76844 -0.14479
2990.72000 -0.14200
2988.67156 -0.14126
2986.62313 -0.14278
2984.57469 -0.14441
2982.52625 -0.14471
2980.47781 -0.14399
2978.42937 -0.14322
2976.38093 -0.14259
2974.33250 -0.14069
2972.28406 -0.13802
2970.23562 -0.13770
2968.18718 -0.13982
2966.13874 -0.14080
2964.09030 -0.13961
2962.04187 -0.13920
2959.99343 -0.14068
2957.94499 -0.14095
2955.89655 -0.13915
2953.84811 -0.13786
2951.79967 -0.13762
2949.75124 -0.13753
2947.70280 -0.13690
2945.65436 -0.13582
2943.60592 -0.13546
2941.55748 -0.13546
2939.50904 -0.13514
2937.46061 -0.13481
2935.41217 -0.13383
2933.36373 -0.13284
2931.31529 -0.13309
2929.26685 -0.13314
2927.21841 -0.13297
2925.16998 -0.13557
2923.12154 -0.13920
2921.07310 -0.13844
2919.02466 -0.13461
2916.97622 -0.13240
2914.92778 -0.13208
2912.87934 -0.13122
2910.83091 -0.12974
2908.78247 -0.12923
2906.73403 -0.12935
2904.68559 -0.12976
2902.63715 -0.13031
2900.58871 -0.12958
2898.54028 -0.12815
2896.49184 -0.12741
2894.44340 -0.12590
2892.39496 -0.12287
2890.34652 -0.12157
2888.29808 -0.12319
2886.24965 -0.12425
2884.20121 -0.12378
2882.15277 -0.12325
2880.10433 -0.12243
2878.05589 -0.12188
2876.00745 -0.12179
2873.95902 -0.12087
2871.91058 -0.11909
2869.86214 -0.11758
2867.81370 -0.11665
2865.76526 -0.11577
2863.71682 -0.11551
2861.66839 -0.11558
2859.61995 -0.11435
2857.57151 -0.11360
2855.52307 -0.11493
2853.47463 -0.11615
2851.42619 -0.11596
2849.37776 -0.11432
2847.32932 -0.11143
2845.28088 -0.10883
2843.23244 -0.10799
2841.18400 -0.10873
2839.13556 -0.10899
2837.08713 -0.10711
2835.03869 -0.10432
2832.99025 -0.10294
2830.94181 -0.10227
2828.89337 -0.10096
2826.84493 -0.10014
2824.79650 -0.10061
2822.74806 -0.10175
2820.69962 -0.10237
2818.65118 -0.10109
2816.60274 -0.09797
2814.55430 -0.09514
2812.50587 -0.09385
2810.45743 -0.09344
2808.40899 -0.09393
2806.36055 -0.09494
2804.31211 -0.09456
2802.26367 -0.09257
2800.21524 -0.09054
2798.16680 -0.08939
2796.11836 -0.08908
2794.06992 -0.08897
2792.02148 -0.08801
2789.97304 -0.08662
2787.92461 -0.08744
2785.87617 -0.08981
2783.82773 -0.09017
2781.77929 -0.08849
2779.73085 -0.08629
2777.68241 -0.08315
2775.63397 -0.08039
2773.58554 -0.08009
2771.53710 -0.08142
2769.48866 -0.08308
2767.44022 -0.08390
2765.39178 -0.08391
2763.34334 -0.08381
2761.29491 -0.08293
2759.24647 -0.08197
2757.19803 -0.08127
2755.14959 -0.08076
2753.10115 -0.08089
2751.05271 -0.08052
2749.00428 -0.07954
2746.95584 -0.07944
2744.90740 -0.07974
2742.85896 -0.07925
2740.81052 -0.07909
2738.76208 -0.07978
2736.71365 -0.07929
2734.66521 -0.07764
2732.61677 -0.07728
2730.56833 -0.07834
2728.51989 -0.07882
2726.47145 -0.07823
2724.42302 -0.07740
2722.37458 -0.07668
2720.32614 -0.07655
2718.27770 -0.07722
2716.22926 -0.07786
2714.18082 -0.07767
2712.13239 -0.07658
2710.08395 -0.07469
2708.03551 -0.07292
2705.98707 -0.07288
2703.93863 -0.07396
2701.89019 -0.07447
2699.84176 -0.07356
2697.79332 -0.07159
2695.74488 -0.07046
2693.69644 -0.07055
2691.64800 -0.07088
2689.59956 -0.07103
2687.55113 -0.07054
2685.50269 -0.07003
2683.45425 -0.07011
2681.40581 -0.06917
2679.35737 -0.06757
2677.30893 -0.06743
2675.26050 -0.06781
2673.21206 -0.06793
2671.16362 -0.06809
2669.11518 -0.06745
2667.06674 -0.06639
2665.01830 -0.06543
2662.96987 -0.06381
2660.92143 -0.06259
2658.87299 -0.06232
2656.82455 -0.06121
2654.77611 -0.05915
2652.72767 -0.05800
2650.67924 -0.05874
2648.63080 -0.05959
2646.58236 -0.05795
2644.53392 -0.05531
2642.48548 -0.05465
2640.43704 -0.05507
2638.38860 -0.05386
2636.34017 -0.05147
2634.29173 -0.05090
2632.24329 -0.05227
2630.19485 -0.05303
2628.14641 -0.05222
2626.09797 -0.05019
2624.04954 -0.04759
2622.00110 -0.04552
2619.95266 -0.04429
2617.90422 -0.04319
2615.85578 -0.04298
2613.80734 -0.04407
2611.75891 -0.04444
2609.71047 -0.04325
2607.66203 -0.04162
2605.61359 -0.04037
2603.56515 -0.03961
2601.51671 -0.03885
2599.46828 -0.03786
2597.41984 -0.03717
2595.37140 -0.03714
2593.32296 -0.03773
2591.27452 -0.03740
2589.22608 -0.03571
2587.17765 -0.03411
2585.12921 -0.03318
2583.08077 -0.03337
2581.03233 -0.03360
2578.98389 -0.03249
2576.93545 -0.03056
2574.88702 -0.02856
2572.83858 -0.02710
2570.79014 -0.02612
2568.74170 -0.02539
2566.69326 -0.02511
2564.64482 -0.02542
2562.59639 -0.02611
2560.54795 -0.02640
2558.49951 -0.02548
2556.45107 -0.02354
2554.40263 -0.02138
2552.35419 -0.02054
2550.30576 -0.02132
2548.25732 -0.02141
2546.20888 -0.02017
2544.16044 -0.01926
2542.11200 -0.01928
2540.06356 -0.01965
2538.01513 -0.01953
2535.96669 -0.01883
2533.91825 -0.01874
2531.86981 -0.01947
2529.82137 -0.02030
2527.77293 -0.02094
2525.72450 -0.02125
2523.67606 -0.02135
2521.62762 -0.02109
2519.57918 -0.02045
2517.53074 -0.01999
2515.48230 -0.02024
2513.43387 -0.02143
2511.38543 -0.02255
2509.33699 -0.02313
2507.28855 -0.02400
2505.24011 -0.02438
2503.19167 -0.02399
2501.14324 -0.02367
2499.09480 -0.02270
2497.04636 -0.02178
2494.99792 -0.02224
2492.94948 -0.02302
2490.90104 -0.02345
2488.85260 -0.02394
2486.80417 -0.02426
2484.75573 -0.02447
2482.70729 -0.02468
2480.65885 -0.02486
2478.61041 -0.02570
2476.56197 -0.02682
2474.51354 -0.02654
2472.46510 -0.02533
2470.41666 -0.02506
2468.36822 -0.02528
2466.31978 -0.02470
2464.27134 -0.02342
2462.22291 -0.02172
2460.17447 -0.02011
2458.12603 -0.02036
2456.07759 -0.02213
2454.02915 -0.02285
2451.98071 -0.02171
2449.93228 -0.01992
2447.88384 -0.01905
2445.83540 -0.01795
2443.78696 -0.01583
2441.73852 -0.01569
2439.69008 -0.01762
2437.64165 -0.01836
2435.59321 -0.01745
2433.54477 -0.01590
2431.49633 -0.01456
2429.44789 -0.01400
2427.39945 -0.01309
2425.35102 -0.01097
2423.30258 -0.00879
2421.25414 -0.00771
2419.20570 -0.00769
2417.15726 -0.00806
2415.10882 -0.00805
2413.06039 -0.00705
2411.01195 -0.00579
2408.96351 -0.00559
2406.91507 -0.00589
2404.86663 -0.00559
2402.81819 -0.00426
2400.76976 -0.00252
2398.72132 -0.00194
2396.67288 -0.00253
2394.62444 -0.00265
2392.57600 -0.00129
2390.52756 0.00009
2388.47913 0.00012
2386.43069 -0.00022
2384.38225 0.00009
2382.33381 0.00108
2380.28537 0.00183
2378.23693 0.00084
2376.18850 -0.00274
2374.14006 -0.00827
2372.09162 -0.01249
2370.04318 -0.01269
2367.99474 -0.00968
2365.94630 -0.00667
2363.89787 -0.00970
2361.84943 -0.01527
2359.80099 -0.01499
2357.75255 -0.00984
2355.70411 -0.00541
2353.65567 -0.00422
2351.60723 -0.00195
2349.55880 -0.00014
2347.51036 0.00063
2345.46192 0.00383
2343.41348 0.00644
2341.36504 0.00061
2339.31660 -0.00684
2337.26817 -0.00777
2335.21973 -0.00538
2333.17129 -0.00573
2331.12285 -0.00691
2329.07441 -0.00317
2327.02597 0.00168
2324.97754 0.00406
2322.92910 0.00496
2320.88066 0.00370
2318.83222 0.00155
2316.78378 0.00068
2314.73534 0.00157
2312.68691 0.00328
2310.63847 0.00514
2308.59003 0.00616
2306.54159 0.00611
2304.49315 0.00643
2302.44471 0.00631
2300.39628 0.00568
2298.34784 0.00632
2296.29940 0.00713
2294.25096 0.00703
2292.20252 0.00752
2290.15408 0.00855
2288.10565 0.00867
2286.05721 0.00852
2284.00877 0.00950
2281.96033 0.01049
2279.91189 0.01016
2277.86345 0.00919
2275.81502 0.00841
2273.76658 0.00793
2271.71814 0.00727
2269.66970 0.00657
2267.62126 0.00707
2265.57282 0.00807
2263.52439 0.00840
2261.47595 0.00902
2259.42751 0.01031
2257.37907 0.01163
2255.33063 0.01248
2253.28219 0.01268
2251.23376 0.01237
2249.18532 0.01264
2247.13688 0.01373
2245.08844 0.01397
2243.04000 0.01334
2240.99156 0.01318
2238.94313 0.01335
2236.89469 0.01335
2234.84625 0.01404
2232.79781 0.01564
2230.74937 0.01661
2228.70093 0.01660
2226.65250 0.01640
2224.60406 0.01638
2222.55562 0.01640
2220.50718 0.01681
2218.45874 0.01788
2216.41030 0.01914
2214.36186 0.02009
2212.31343 0.02041
2210.26499 0.02018
2208.21655 0.01945
2206.16811 0.01880
2204.11967 0.01859
2202.07123 0.01812
2200.02280 0.01777
2197.97436 0.01756
2195.92592 0.01667
2193.87748 0.01663
2191.82904 0.01807
2189.78060 0.01874
2187.73217 0.01799
2185.68373 0.01744
2183.63529 0.01762
2181.58685 0.01766
2179.53841 0.01735
2177.48997 0.01737
2175.44154 0.01770
2173.39310 0.01757
2171.34466 0.01646
2169.29622 0.01448
2167.24778 0.01342
2165.19934 0.01481
2163.15091 0.01642
2161.10247 0.01568
2159.05403 0.01301
2157.00559 0.01052
2154.95715 0.01000
2152.90871 0.01028
2150.86028 0.00973
2148.81184 0.00939
2146.76340 0.00951
2144.71496 0.00998
2142.66652 0.01134
2140.61808 0.01195
2138.56965 0.01048
2136.52121 0.00815
2134.47277 0.00703
2132.42433 0.00752
2130.37589 0.00865
2128.32745 0.00962
2126.27902 0.01037
2124.23058 0.01113
2122.18214 0.01100
2120.13370 0.00978
2118.08526 0.00932
2116.03682 0.01061
2113.98839 0.01204
2111.93995 0.01204
2109.89151 0.01095
2107.84307 0.00962
2105.79463 0.00895
2103.74619 0.01023
2101.69776 0.01251
2099.64932 0.01363
2097.60088 0.01394
2095.55244 0.01427
2093.50400 0.01463
2091.45556 0.01472
2089.40713 0.01474
2087.35869 0.01536
2085.31025 0.01552
2083.26181 0.01554
2081.21337 0.01719
2079.16493 0.01873
2077.11649 0.01788
2075.06806 0.01607
2073.01962 0.01598
2070.97118 0.01725
2068.92274 0.01786
2066.87430 0.01757
2064.82586 0.01752
2062.77743 0.01880
2060.72899 0.02081
2058.68055 0.02138
2056.63211 0.02029
2054.58367 0.01942
2052.53523 0.01862
2050.48680 0.01791
2048.43836 0.01916
2046.38992 0.02098
2044.34148 0.02083
2042.29304 0.01995
2040.24460 0.02001
2038.19617 0.02034
2036.14773 0.02005
2034.09929 0.01916
2032.05085 0.01826
2030.00241 0.01781
2027.95397 0.01786
2025.90554 0.01731
2023.85710 0.01570
2021.80866 0.01475
2019.76022 0.01397
2017.71178 0.01212
2015.66334 0.01070
2013.61491 0.00972
2011.56647 0.00835
2009.51803 0.00728
2007.46959 0.00745
2005.42115 0.00809
2003.37271 0.00724
2001.32428 0.00581
1999.27584 0.00467
1997.22740 0.00308
1995.17896 0.00201
1993.13052 0.00164
1991.08208 0.00136
1989.03365 0.00090
1986.98521 -0.00040
1984.93677 -0.00237
1982.88833 -0.00475
1980.83989 -0.00689
1978.79145 -0.00772
1976.74302 -0.00766
1974.69458 -0.00765
1972.64614 -0.00819
1970.59770 -0.00938
1968.54926 -0.01092
1966.50082 -0.01192
1964.45239 -0.01201
1962.40395 -0.01215
1960.35551 -0.01301
1958.30707 -0.01429
1956.25863 -0.01469
1954.21019 -0.01390
1952.16176 -0.01320
1950.11332 -0.01351
1948.06488 -0.01441
1946.01644 -0.01451
1943.96800 -0.01477
1941.91956 -0.01481
1939.87112 -0.01190
1937.82269 -0.00908
1935.77425 -0.00922
1933.72581 -0.01050
1931.67737 -0.01104
1929.62893 -0.01099
1927.58049 -0.01026
1925.53206 -0.00856
1923.48362 -0.00711
1921.43518 -0.00632
1919.38674 -0.00555
1917.33830 -0.00596
1915.28986 -0.00601
1913.24143 -0.00388
1911.19299 -0.00224
1909.14455 -0.00284
1907.09611 -0.00268
1905.04767 -0.00065
1902.99923 0.00027
1900.95080 -0.00036
1898.90236 -0.00037
1896.85392 0.00023
1894.80548 0.00071
1892.75704 0.00166
1890.70860 0.00337
1888.66017 0.00483
1886.61173 0.00480
1884.56329 0.00399
1882.51485 0.00419
1880.46641 0.00523
1878.41797 0.00519
1876.36954 0.00404
1874.32110 0.00370
1872.27266 0.00472
1870.22422 0.00494
1868.17578 0.00355
1866.12734 0.00310
1864.07891 0.00317
1862.03047 0.00258
1859.98203 0.00175
1857.93359 0.00098
1855.88515 -0.00041
1853.83671 -0.00247
1851.78828 -0.00399
1849.73984 -0.00480
1847.69140 -0.00607
1845.64296 -0.00701
1843.59452 -0.00692
1841.54608 -0.00800
1839.49765 -0.01025
1837.44921 -0.01217
1835.40077 -0.01328
1833.35233 -0.01474
1831.30389 -0.01704
1829.25545 -0.01864
1827.20702 -0.01814
1825.15858 -0.01776
1823.11014 -0.01947
1821.06170 -0.02283
1819.01326 -0.02631
1816.96482 -0.02839
1814.91639 -0.02939
1812.86795 -0.03013
1810.81951 -0.03074
1808.77107 -0.03132
1806.72263 -0.03200
1804.67419 -0.03336
1802.62575 -0.03526
1800.57732 -0.03708
1798.52888 -0.03902
1796.48044 -0.04008
1794.43200 -0.04024
1792.38356 -0.04215
1790.33512 -0.04497
1788.28669 -0.04595
1786.23825 -0.04491
1784.18981 -0.04183
1782.14137 -0.03941
1780.09293 -0.04046
1778.04449 -0.04374
1775.99606 -0.04598
1773.94762 -0.04566
1771.89918 -0.04278
1769.85074 -0.04035
1767.80230 -0.04047
1765.75386 -0.04219
1763.70543 -0.04358
1761.65699 -0.04296
1759.60855 -0.04042
1757.56011 -0.03801
1755.51167 -0.03595
1753.46323 -0.03393
1751.41480 -0.03273
1749.36636 -0.03401
1747.31792 -0.03617
1745.26948 -0.03710
1743.22104 -0.03702
1741.17260 -0.03504
1739.12417 -0.03227
1737.07573 -0.03163
1735.02729 -0.03311
1732.97885 -0.03399
1730.93041 -0.03308
1728.88197 -0.03288
1726.83354 -0.03235
1724.78510 -0.03109
1722.73666 -0.03002
1720.68822 -0.02903
1718.63978 -0.02770
1716.59134 -0.02714
1714.54291 -0.02697
1712.49447 -0.02575
1710.44603 -0.02578
1708.39759 -0.02805
1706.34915 -0.03071
1704.30071 -0.03200
1702.25228 -0.03369
1700.20384 -0.03712
1698.15540 -0.03816
1696.10696 -0.03663
1694.05852 -0.03596
1692.01008 -0.03593
1689.96165 -0.03642
1687.91321 -0.03721
1685.86477 -0.03949
1683.81633 -0.04524
1681.76789 -0.04635
1679.71945 -0.04504
1677.67102 -0.04556
1675.62258 -0.04850
1673.57414 -0.05168
1671.52570 -0.05209
1669.47726 -0.05252
1667.42882 -0.05493
1665.38038 -0.05658
1663.33195 -0.05739
1661.28351 -0.05823
1659.23507 -0.05881
1657.18663 -0.05845
1655.13819 -0.05847
1653.08975 -0.06375
1651.04132 -0.06636
1648.99288 -0.06423
1646.94444 -0.06324
1644.89600 -0.06126
1642.84756 -0.05765
1640.79912 -0.05602
1638.75069 -0.05614
1636.70225 -0.05540
1634.65381 -0.05361
1632.60537 -0.05230
1630.55693 -0.05117
1628.50849 -0.04928
1626.46006 -0.04671
1624.41162 -0.04461
1622.36318 -0.04222
1620.31474 -0.04030
1618.26630 -0.03913
1616.21786 -0.03740
1614.16943 -0.03582
1612.12099 -0.03390
1610.07255 -0.03083
1608.02411 -0.02840
1605.97567 -0.02732
1603.92723 -0.02593
1601.87880 -0.02448
1599.83036 -0.02374
1597.78192 -0.02182
1595.73348 -0.01855
1593.68504 -0.01648
1591.63660 -0.01527
1589.58817 -0.01423
1587.53973 -0.01395
1585.49129 -0.01317
1583.44285 -0.01221
1581.39441 -0.01213
1579.34597 -0.01184
1577.29754 -0.01154
1575.24910 -0.01154
1573.20066 -0.00982
1571.15222 -0.00736
1569.10378 -0.00610
1567.05534 -0.00616
1565.00691 -0.00659
1562.95847 -0.00743
1560.91003 -0.00854
1558.86159 -0.01014
1556.81315 -0.00818
1554.76471 -0.00692
1552.71628 -0.00718
1550.66784 -0.00677
1548.61940 -0.00615
1546.57096 -0.00559
1544.52252 -0.00422
1542.47408 -0.00323
1540.42565 -0.00326
1538.37721 -0.00239
1536.32877 -0.00117
1534.28033 0.00057
1532.23189 0.00071
1530.18345 -0.00074
1528.13501 -0.00289
1526.08658 -0.00646
1524.03814 -0.00750
1521.98970 -0.00472
1519.94126 -0.00293
1517.89282 -0.00261
1515.84438 -0.00143
1513.79595 -0.00030
1511.74751 -0.00052
1509.69907 -0.00187
1507.65063 -0.00419
1505.60219 -0.00500
1503.55375 -0.00327
1501.50532 -0.00167
1499.45688 -0.00054
1497.40844 0.00024
1495.36000 0.00062
1493.31156 0.00163
1491.26312 0.00284
1489.21469 0.00227
1487.16625 0.00065
1485.11781 0.00108
1483.06937 0.00337
1481.02093 0.00466
1478.97249 0.00400
1476.92406 0.00411
1474.87562 0.00508
1472.82718 0.00372
1470.77874 0.00192
1468.73030 0.00215
1466.68186 0.00216
1464.63343 0.00023
1462.58499 -0.00114
1460.53655 -0.00010
1458.48811 0.00085
1456.43967 -0.00138
1454.39123 -0.00178
1452.34280 -0.00035
1450.29436 0.00152
1448.24592 0.00331
1446.19748 0.00349
1444.14904 0.00251
1442.10060 0.00172
1440.05217 0.00144
1438.00373 0.00137
1435.95529 0.00163
1433.90685 0.00170
1431.85841 0.00124
1429.80997 0.00188
1427.76154 0.00318
1425.71310 0.00289
1423.66466 0.00258
1421.61622 0.00453
1419.56778 0.00587
1417.51934 0.00390
1415.47091 0.00335
1413.42247 0.00429
1411.37403 0.00436
1409.32559 0.00346
1407.27715 0.00194
1405.22871 -0.00026
1403.18028 -0.00160
1401.13184 -0.00147
1399.08340 -0.00105
1397.03496 -0.00150
1394.98652 -0.00362
1392.93808 -0.00468
1390.88965 -0.00343
1388.84121 -0.00260
1386.79277 -0.00371
1384.74433 -0.00411
1382.69589 -0.00260
1380.64745 -0.00168
1378.59901 -0.00281
1376.55058 -0.00349
1374.50214 -0.00261
1372.45370 -0.00251
1370.40526 -0.00280
1368.35682 -0.00215
1366.30838 -0.00081
1364.25995 -0.00039
1362.21151 -0.00191
1360.16307 -0.00259
1358.11463 -0.00125
1356.06619 0.00122
1354.01775 0.00361
1351.96932 0.00404
1349.92088 0.00310
1347.87244 0.00312
1345.82400 0.00414
1343.77556 0.00447
1341.72712 0.00423
1339.67869 0.00473
1337.63025 0.00634
1335.58181 0.00767
1333.53337 0.00763
1331.48493 0.00723
1329.43649 0.00774
1327.38806 0.00887
1325.33962 0.00936
1323.29118 0.00864
1321.24274 0.00784
1319.19430 0.00710
1317.14586 0.00570
1315.09743 0.00495
1313.04899 0.00583
1311.00055 0.00653
1308.95211 0.00585
1306.90367 0.00485
1304.85523 0.00366
1302.80680 0.00218
1300.75836 0.00161
1298.70992 0.00190
1296.66148 0.00152
1294.61304 0.00051
1292.56460 0.00008
1290.51617 -0.00046
1288.46773 -0.00203
1286.41929 -0.00329
1284.37085 -0.00363
1282.32241 -0.00368
1280.27397 -0.00376
1278.22554 -0.00416
1276.17710 -0.00491
1274.12866 -0.00599
1272.08022 -0.00677
1270.03178 -0.00557
1267.98334 -0.00284
1265.93491 -0.00141
1263.88647 -0.00135
1261.83803 -0.00128
1259.78959 -0.00135
1257.74115 -0.00056
1255.69271 0.00204
1253.64428 0.00516
1251.59584 0.00742
1249.54740 0.00906
1247.49896 0.01047
1245.45052 0.01157
1243.40208 0.01308
1241.35364 0.01486
1239.30521 0.01641
1237.25677 0.01876
1235.20833 0.02132
1233.15989 0.02275
1231.11145 0.02336
1229.06301 0.02414
1227.01458 0.02585
1224.96614 0.02780
1222.91770 0.02922
1220.86926 0.03056
1218.82082 0.03183
1216.77238 0.03230
1214.72395 0.03220
1212.67551 0.03241
1210.62707 0.03350
1208.57863 0.03539
1206.53019 0.03548
1204.48175 0.03339
1202.43332 0.03254
1200.38488 0.03362
1198.33644 0.03465
1196.28800 0.03469
1194.23956 0.03464
1192.19112 0.03503
1190.14269 0.03454
1188.09425 0.03233
1186.04581 0.02922
1183.99737 0.02677
1181.94893 0.02526
1179.90049 0.02334
1177.85206 0.02121
1175.80362 0.01891
1173.75518 0.01461
1171.70674 0.00991
1169.65830 0.00813
1167.60986 0.00827
1165.56143 0.00741
1163.51299 0.00489
1161.46455 0.00185
1159.41611 -0.00111
1157.36767 -0.00408
1155.31923 -0.00634
1153.27080 -0.00780
1151.22236 -0.00929
1149.17392 -0.01146
1147.12548 -0.01408
1145.07704 -0.01542
1143.02860 -0.01598
1140.98017 -0.01809
1138.93173 -0.01980
1136.88329 -0.01868
1134.83485 -0.01773
1132.78641 -0.01903
1130.73797 -0.01983
1128.68954 -0.02013
1126.64110 -0.02183
1124.59266 -0.02352
1122.54422 -0.02504
1120.49578 -0.02579
1118.44734 -0.02442
1116.39891 -0.02359
1114.35047 -0.02444
1112.30203 -0.02491
1110.25359 -0.02443
1108.20515 -0.02446
1106.15671 -0.02415
1104.10827 -0.02223
1102.05984 -0.02113
1100.01140 -0.01977
1097.96296 -0.01521
1095.91452 -0.01087
1093.86608 -0.01069
1091.81764 -0.01215
1089.76921 -0.01106
1087.72077 -0.00794
1085.67233 -0.00567
1083.62389 -0.00580
1081.57545 -0.00804
1079.52701 -0.01013
1077.47858 -0.01044
1075.43014 -0.01000
1073.38170 -0.00991
1071.33326 -0.00938
1069.28482 -0.00884
1067.23638 -0.00883
1065.18795 -0.00827
1063.13951 -0.00897
1061.09107 -0.01103
1059.04263 -0.01093
1056.99419 -0.00950
1054.94575 -0.00972
1052.89732 -0.01145
1050.84888 -0.01239
1048.80044 -0.01168
1046.75200 -0.01280
1044.70356 -0.01757
1042.65512 -0.02187
1040.60669 -0.02410
1038.55825 -0.02642
1036.50981 -0.02723
1034.46137 -0.02550
1032.41293 -0.02448
1030.36449 -0.02642
1028.31606 -0.03003
1026.26762 -0.03084
1024.21918 -0.02700
1022.17074 -0.02485
1020.12230 -0.02943
1018.07386 -0.03560
1016.02543 -0.03673
1013.97699 -0.03441
1011.92855 -0.03262
1009.88011 -0.03113
1007.83167 -0.02920
1005.78323 -0.02768
1003.73480 -0.02719
1001.68636 -0.02649
999.63792 -0.02532
997.58948 -0.02472
995.54104 -0.02483
993.49260 -0.02581
991.44417 -0.02656
989.39573 -0.02688
987.34729 -0.02711
985.29885 -0.02582
983.25041 -0.02566
981.20197 -0.02809
979.15354 -0.02852
977.10510 -0.02761
975.05666 -0.02762
973.00822 -0.02539
970.95978 -0.02214
968.91134 -0.02019
966.86290 -0.01796
964.81447 -0.01694
962.76603 -0.01766
960.71759 -0.01927
958.66915 -0.01914
956.62071 -0.01326
954.57227 -0.00817
952.52384 -0.01047
950.47540 -0.01419
948.42696 -0.01500
946.37852 -0.01776
944.33008 -0.02316
942.28164 -0.02703
940.23321 -0.03197
938.18477 -0.03878
936.13633 -0.04302
934.08789 -0.04466
932.03945 -0.04613
929.99101 -0.04893
927.94258 -0.05261
925.89414 -0.05525
923.84570 -0.05755
921.79726 -0.06085
919.74882 -0.06372
917.70038 -0.06343
915.65195 -0.05965
913.60351 -0.05417
911.55507 -0.04872
909.50663 -0.04449
907.45819 -0.03993
905.40975 -0.03378
903.36132 -0.02680
901.31288 -0.01940
899.26444 -0.01249
897.21600 -0.00571
895.16756 0.00187
893.11912 0.01030
891.07069 0.02033
889.02225 0.03020
886.97381 0.03856
884.92537 0.04695
882.87693 0.05366
880.82849 0.05771
878.78006 0.06136
876.73162 0.06444
874.68318 0.06718
872.63474 0.07287
870.58630 0.08031
868.53786 0.08529
866.48943 0.08737
864.44099 0.08664
862.39255 0.08454
860.34411 0.08441
858.29567 0.08639
856.24723 0.08529
854.19880 0.07990
852.15036 0.07477
850.10192 0.07058
848.05348 0.06618
846.00504 0.06181
843.95660 0.05719
841.90817 0.05015
839.85973 0.03896
837.81129 0.02532
835.76285 0.01463
833.71441 0.00825
831.66597 0.00177
829.61753 -0.00604
827.56910 -0.01333
825.52066 -0.01910
823.47222 -0.02264
821.42378 -0.02499
819.37534 -0.02747
817.32690 -0.02819
815.27847 -0.02762
813.23003 -0.02879
811.18159 -0.03058
809.13315 -0.03034
807.08471 -0.02899
805.03627 -0.02794
802.98784 -0.02684
800.93940 -0.02631
798.89096 -0.02664
796.84252 -0.02760
794.79408 -0.02764
792.74564 -0.02488
790.69721 -0.02097
788.64877 -0.01839
786.60033 -0.01796
784.55189 -0.01789
782.50345 -0.01706
780.45501 -0.01684
778.40658 -0.01607
776.35814 -0.01390
774.30970 -0.01296
772.26126 -0.01160
770.21282 -0.00734
768.16438 -0.00508
766.11595 -0.00534
764.06751 -0.00309
762.01907 0.00186
759.97063 0.00677
757.92219 0.00685
755.87375 0.00188
753.82532 -0.00061
751.77688 0.00230
749.72844 0.00543
747.68000 0.00537
745.63156 0.00727
743.58312 0.01476
741.53469 0.02175
739.48625 0.02154
737.43781 0.01735
735.38937 0.02036
733.34093 0.02930
731.29249 0.03176
729.24406 0.02714
727.19562 0.01873
725.14718 0.01245
723.09874 0.01802
721.05030 0.02811
719.00186 0.03291
716.95343 0.03973
714.90499 0.05180
712.85655 0.06035
710.80811 0.06177
708.75967 0.06268
706.71123 0.06465
704.66280 0.06380
702.61436 0.06536
700.56592 0.06687
698.51748 0.05900
696.46904 0.04949
694.42060 0.04662
692.37216 0.05433
690.32373 0.06646
688.27529 0.06542
686.22685 0.05899
684.17841 0.06710
682.12997 0.08693
680.08153 0.09863
678.03310 0.09370
675.98466 0.08455
673.93622 0.07599
671.88778 0.06841
669.83934 0.07095
667.79090 0.09082
665.74247 0.10230
663.69403 0.09849
661.64559 0.08592
659.59715 0.05594
657.54871 0.01588
655.50027 -0.00760
653.45184 -0.02089
651.40340 -0.04372
649.35496 -0.07482
647.30652 -0.09876
645.25808 -0.10565
643.20964 -0.10050
641.16121 -0.09723
639.11277 -0.10397
637.06433 -0.11537
635.01589 -0.12305
632.96745 -0.12521
630.91901 -0.14093
628.87058 -0.17637
626.82214 -0.19807
624.77370 -0.18504
622.72526 -0.15714
620.67682 -0.14371
618.62838 -0.14108
616.57995 -0.10441
614.53151 -0.04456
612.48307 -0.00825
610.43463 -0.00900
608.38619 -0.05899
606.33775 -0.12776
604.28932 -0.14375
602.24088 -0.10922
600.19244 -0.06950
598.14400 -0.05997
