3996.50324 0.03791
3994.45480 0.03868
3992.40636 0.03966
3990.35792 0.04006
3988.30948 0.03941
3986.26104 0.03925
3984.21261 0.03923
3982.16417 0.03874
3980.11573 0.03941
3978.06729 0.04116
3976.01885 0.04220
3973.97041 0.04102
3971.92198 0.03810
3969.87354 0.03557
3967.82510 0.03513
3965.77666 0.03733
3963.72822 0.03998
3961.67978 0.04094
3959.63135 0.04194
3957.58291 0.04259
3955.53447 0.04053
3953.48603 0.03769
3951.43759 0.03620
3949.38915 0.03650
3947.34072 0.03870
3945.29228 0.04127
3943.24384 0.04248
3941.19540 0.04215
3939.14696 0.04107
3937.09852 0.03993
3935.05009 0.04027
3933.00165 0.04208
3930.95321 0.04359
3928.90477 0.04497
3926.85633 0.04682
3924.80789 0.04707
3922.75946 0.04565
3920.71102 0.04565
3918.66258 0.04645
3916.61414 0.04547
3914.56570 0.04479
3912.51726 0.04653
3910.46883 0.04840
3908.42039 0.05002
3906.37195 0.05300
3904.32351 0.05441
3902.27507 0.05056
3900.22663 0.04714
3898.17820 0.04693
3896.12976 0.04749
3894.08132 0.04828
3892.03288 0.04692
3889.98444 0.04425
3887.93600 0.04572
3885.88756 0.04832
3883.83913 0.04899
3881.79069 0.04889
3879.74225 0.04629
3877.69381 0.04551
3875.64537 0.04738
3873.59693 0.04651
3871.54850 0.04458
3869.50006 0.04587
3867.45162 0.04742
3865.40318 0.04755
3863.35474 0.04759
3861.30630 0.04858
3859.25787 0.04952
3857.20943 0.05199
3855.16099 0.05787
3853.11255 0.05512
3851.06411 0.04401
3849.01567 0.04172
3846.96724 0.04163
3844.91880 0.04139
3842.87036 0.04197
3840.82192 0.04180
3838.77348 0.03894
3836.72504 0.03811
3834.67661 0.04147
3832.62817 0.04257
3830.57973 0.04074
3828.53129 0.04043
3826.48285 0.04144
3824.43441 0.04297
3822.38598 0.04404
3820.33754 0.04081
3818.28910 0.03803
3816.24066 0.03492
3814.19222 0.03210
3812.14378 0.03422
3810.09535 0.03779
3808.04691 0.03965
3805.99847 0.03860
3803.95003 0.03795
3801.90159 0.03687
3799.85315 0.03395
3797.80472 0.03381
3795.75628 0.03471
3793.70784 0.03524
3791.65940 0.03529
3789.61096 0.03450
3787.56252 0.03373
3785.51409 0.03239
3783.46565 0.03121
3781.41721 0.03242
3779.36877 0.03251
3777.32033 0.03049
3775.27189 0.03042
3773.22346 0.03176
3771.17502 0.03210
3769.12658 0.02948
3767.07814 0.02707
3765.02970 0.02698
3762.98126 0.02838
3760.93283 0.03006
3758.88439 0.02915
3756.83595 0.02740
3754.78751 0.02797
3752.73907 0.02698
3750.69063 0.02071
3748.64219 0.02041
3746.59376 0.02545
3744.54532 0.02702
3742.49688 0.02496
3740.44844 0.02341
3738.40000 0.02276
3736.35156 0.02333
3734.30313 0.02104
3732.25469 0.01506
3730.20625 0.01272
3728.15781 0.01459
3726.10937 0.01670
3724.06093 0.01517
3722.01250 0.01386
3719.96406 0.01511
3717.91562 0.01607
3715.86718 0.01645
3713.81874 0.01702
3711.77030 0.01598
3709.72187 0.01127
3707.67343 0.00801
3705.62499 0.00795
3703.57655 0.00916
3701.52811 0.00788
3699.47967 0.00560
3697.43124 0.00585
3695.38280 0.00660
3693.33436 0.00729
3691.28592 0.00753
3689.23748 0.00236
3687.18904 -0.00259
3685.14061 -0.00149
3683.09217 0.00059
3681.04373 0.00100
3678.99529 -0.00036
3676.94685 -0.00349
3674.89841 -0.00865
3672.84998 -0.00988
3670.80154 -0.01040
3668.75310 -0.01569
3666.70466 -0.01762
3664.65622 -0.01666
3662.60778 -0.01721
3660.55935 -0.01873
3658.51091 -0.02009
3656.46247 -0.02242
3654.41403 -0.02346
3652.36559 -0.02067
3650.31715 -0.01813
3648.26872 -0.02711
3646.22028 -0.03595
3644.17184 -0.03748
3642.12340 -0.03894
3640.07496 -0.04295
3638.02652 -0.04597
3635.97809 -0.04664
3633.92965 -0.04689
3631.88121 -0.04573
3629.83277 -0.04566
3627.78433 -0.05258
3625.73589 -0.05699
3623.68746 -0.05730
3621.63902 -0.05678
3619.59058 -0.05846
3617.54214 -0.06312
3615.49370 -0.06736
3613.44526 -0.07133
3611.39682 -0.07313
3609.34839 -0.07291
3607.29995 -0.07489
3605.25151 -0.07778
3603.20307 -0.07889
3601.15463 -0.08003
3599.10619 -0.08180
3597.05776 -0.08306
3595.00932 -0.08457
3592.96088 -0.08673
3590.91244 -0.08846
3588.86400 -0.08942
3586.81556 -0.09128
3584.76713 -0.09571
3582.71869 -0.10066
3580.67025 -0.10410
3578.62181 -0.10584
3576.57337 -0.10713
3574.52493 -0.10812
3572.47650 -0.10920
3570.42806 -0.11109
3568.37962 -0.11503
3566.33118 -0.12104
3564.28274 -0.12231
3562.23430 -0.12079
3560.18587 -0.11997
3558.13743 -0.11959
3556.08899 -0.12051
3554.04055 -0.12209
3551.99211 -0.12245
3549.94367 -0.12236
3547.89524 -0.12272
3545.84680 -0.12427
3543.79836 -0.12827
3541.74992 -0.13131
3539.70148 -0.13151
3537.65304 -0.13128
3535.60461 -0.13185
3533.55617 -0.13290
3531.50773 -0.13379
3529.45929 -0.13425
3527.41085 -0.13607
3525.36241 -0.13879
3523.31398 -0.13880
3521.26554 -0.13850
3519.21710 -0.14128
3517.16866 -0.14308
3515.12022 -0.14195
3513.07178 -0.14173
3511.02335 -0.14239
3508.97491 -0.14266
3506.92647 -0.14509
3504.87803 -0.14835
3502.82959 -0.15002
3500.78115 -0.15015
3498.73272 -0.14821
3496.68428 -0.14452
3494.63584 -0.14139
3492.58740 -0.14060
3490.53896 -0.14056
3488.49052 -0.14060
3486.44209 -0.14250
3484.39365 -0.14437
3482.34521 -0.14425
3480.29677 -0.14317
3478.24833 -0.14172
3476.19989 -0.14201
3474.15146 -0.14654
3472.10302 -0.15134
3470.05458 -0.15126
3468.00614 -0.14768
3465.95770 -0.14292
3463.90926 -0.14025
3461.86082 -0.14305
3459.81239 -0.14571
3457.76395 -0.14480
3455.71551 -0.14449
3453.66707 -0.14430
3451.61863 -0.14420
3449.57019 -0.14557
3447.52176 -0.14629
3445.47332 -0.14519
3443.42488 -0.14369
3441.37644 -0.14292
3439.32800 -0.14198
3437.27956 -0.14134
3435.23113 -0.14340
3433.18269 -0.14701
3431.13425 -0.14821
3429.08581 -0.14739
3427.03737 -0.14737
3424.98893 -0.14735
3422.94050 -0.14649
3420.89206 -0.14535
3418.84362 -0.14546
3416.79518 -0.14629
3414.74674 -0.14604
3412.69830 -0.14676
3410.64987 -0.14878
3408.60143 -0.14817
3406.55299 -0.14537
3404.50455 -0.14450
3402.45611 -0.14522
3400.40767 -0.14533
3398.35924 -0.14530
3396.31080 -0.14589
3394.26236 -0.14638
3392.21392 -0.14715
3390.16548 -0.14940
3388.11704 -0.15092
3386.06861 -0.15044
3384.02017 -0.15061
3381.97173 -0.15028
3379.92329 -0.14694
3377.87485 -0.14392
3375.82641 -0.14374
3373.77798 -0.14487
3371.72954 -0.14701
3369.68110 -0.14902
3367.63266 -0.14875
3365.58422 -0.14837
3363.53578 -0.14836
3361.48735 -0.14820
3359.43891 -0.14991
3357.39047 -0.15100
3355.34203 -0.14912
3353.29359 -0.14741
3351.24515 -0.14725
3349.19672 -0.14570
3347.14828 -0.14409
3345.09984 -0.14494
3343.05140 -0.14577
3341.00296 -0.14646
3338.95452 -0.14736
3336.90609 -0.14671
3334.85765 -0.14518
3332.80921 -0.14437
3330.76077 -0.14489
3328.71233 -0.14733
3326.66389 -0.15048
3324.61545 -0.15121
3322.56702 -0.14994
3320.51858 -0.14922
3318.47014 -0.14914
3316.42170 -0.14964
3314.37326 -0.15174
3312.32482 -0.15326
3310.27639 -0.15160
3308.22795 -0.15009
3306.17951 -0.15092
3304.13107 -0.15103
3302.08263 -0.14971
3300.03419 -0.15052
3297.98576 -0.15374
3295.93732 -0.15427
3293.88888 -0.15202
3291.84044 -0.15232
3289.79200 -0.15442
3287.74356 -0.15452
3285.69513 -0.15394
3283.64669 -0.15296
3281.59825 -0.15115
3279.54981 -0.15214
3277.50137 -0.15463
3275.45293 -0.15444
3273.40450 -0.15355
3271.35606 -0.15418
3269.30762 -0.15531
3267.25918 -0.15543
3265.21074 -0.15440
3263.16230 -0.15353
3261.11387 -0.15362
3259.06543 -0.15445
3257.01699 -0.15506
3254.96855 -0.15582
3252.92011 -0.15781
3250.87167 -0.15892
3248.82324 -0.15845
3246.77480 -0.15799
3244.72636 -0.15757
3242.67792 -0.15790
3240.62948 -0.15886
3238.58104 -0.15901
3236.53261 -0.15903
3234.48417 -0.15930
3232.43573 -0.15885
3230.38729 -0.15825
3228.33885 -0.15803
3226.29041 -0.15795
3224.24198 -0.15841
3222.19354 -0.15982
3220.14510 -0.16215
3218.09666 -0.16339
3216.04822 -0.16253
3213.99978 -0.16245
3211.95135 -0.16501
3209.90291 -0.16802
3207.85447 -0.16908
3205.80603 -0.16819
3203.75759 -0.16664
3201.70915 -0.16577
3199.66072 -0.16588
3197.61228 -0.16681
3195.56384 -0.16705
3193.51540 -0.16613
3191.46696 -0.16700
3189.41852 -0.16936
3187.37008 -0.17075
3185.32165 -0.17200
3183.27321 -0.17339
3181.22477 -0.17375
3179.17633 -0.17237
3177.12789 -0.16994
3175.07945 -0.16921
3173.03102 -0.17116
3170.98258 -0.17381
3168.93414 -0.17484
3166.88570 -0.17363
3164.83726 -0.17213
3162.78882 -0.17094
3160.74039 -0.16959
3158.69195 -0.17059
3156.64351 -0.17405
3154.59507 -0.17627
3152.54663 -0.17474
3150.49819 -0.17151
3148.44976 -0.17131
3146.40132 -0.17386
3144.35288 -0.17520
3142.30444 -0.17462
3140.25600 -0.17416
3138.20756 -0.17421
3136.15913 -0.17358
3134.11069 -0.17250
3132.06225 -0.17273
3130.01381 -0.17433
3127.96537 -0.17448
3125.91693 -0.17367
3123.86850 -0.17393
3121.82006 -0.17322
3119.77162 -0.17149
3117.72318 -0.17099
3115.67474 -0.17165
3113.62630 -0.17212
3111.57787 -0.17142
3109.52943 -0.17055
3107.48099 -0.17008
3105.43255 -0.16895
3103.38411 -0.16796
3101.33567 -0.16823
3099.28724 -0.16930
3097.23880 -0.16973
3095.19036 -0.16985
3093.14192 -0.17024
3091.09348 -0.16902
3089.04504 -0.16726
3086.99661 -0.16722
3084.94817 -0.16789
3082.89973 -0.16738
3080.85129 -0.16642
3078.80285 -0.16673
3076.75441 -0.16721
3074.70598 -0.16658
3072.65754 -0.16546
3070.60910 -0.16506
3068.56066 -0.16604
3066.51222 -0.16711
3064.46378 -0.16583
3062.41535 -0.16292
3060.36691 -0.16086
3058.31847 -0.15991
3056.27003 -0.15855
3054.22159 -0.15669
3052.17315 -0.15689
3050.12471 -0.15959
3048.07628 -0.16154
3046.02784 -0.16085
3043.97940 -0.15970
3041.93096 -0.15996
3039.88252 -0.15998
3037.83408 -0.15823
3035.78565 -0.15681
3033.73721 -0.15730
3031.68877 -0.15777
3029.64033 -0.15750
3027.59189 -0.15798
3025.54345 -0.15882
3023.49502 -0.15855
3021.44658 -0.15829
3019.39814 -0.15877
3017.34970 -0.15865
3015.30126 -0.15736
3013.25282 -0.15579
3011.20439 -0.15579
3009.15595 -0.15714
3007.10751 -0.15665
3005.05907 -0.15457
3003.01063 -0.15482
3000.96219 -0.15749
2998.91376 -0.16019
2996.86532 -0.16149
2994.81688 -0.16046
2992.76844 -0.15743
2990.72000 -0.15391
2988.67156 -0.15285
2986.62313 -0.15520
2984.57469 -0.15736
2982.52625 -0.15732
2980.47781 -0.15625
2978.42937 -0.15539
2976.38093 -0.15493
2974.33250 -0.15397
2972.28406 -0.15321
2970.23562 -0.15414
2968.18718 -0.15597
2966.13874 -0.15654
2964.09030 -0.15502
2962.04187 -0.15328
2959.99343 -0.15349
2957.94499 -0.15446
2955.89655 -0.15421
2953.84811 -0.15400
2951.79967 -0.15496
2949.75124 -0.15615
2947.70280 -0.15621
2945.65436 -0.15508
2943.60592 -0.15439
2941.55748 -0.15433
2939.50904 -0.15493
2937.46061 -0.15623
2935.41217 -0.15634
2933.36373 -0.15498
2931.31529 -0.15412
2929.26685 -0.15442
2927.21841 -0.15514
2925.16998 -0.15623
2923.12154 -0.15706
2921.07310 -0.15633
2919.02466 -0.15555
2916.97622 -0.15536
2914.92778 -0.15502
2912.87934 -0.15545
2910.83091 -0.15603
2908.78247 -0.15597
2906.73403 -0.15539
2904.68559 -0.15461
2902.63715 -0.15388
2900.58871 -0.15262
2898.54028 -0.15226
2896.49184 -0.15381
2894.44340 -0.15432
2892.39496 -0.15289
2890.34652 -0.15217
2888.29808 -0.15292
2886.24965 -0.15336
2884.20121 -0.15271
2882.15277 -0.15219
2880.10433 -0.15203
2878.05589 -0.15198
2876.00745 -0.15278
2873.95902 -0.15367
2871.91058 -0.15324
2869.86214 -0.15213
2867.81370 -0.15096
2865.76526 -0.14920
2863.71682 -0.14795
2861.66839 -0.14786
2859.61995 -0.14747
2857.57151 -0.14714
2855.52307 -0.14792
2853.47463 -0.14881
2851.42619 -0.14920
2849.37776 -0.14905
2847.32932 -0.14802
2845.28088 -0.14647
2843.23244 -0.14541
2841.18400 -0.14544
2839.13556 -0.14564
2837.08713 -0.14445
2835.03869 -0.14240
2832.99025 -0.14146
2830.94181 -0.14110
2828.89337 -0.13988
2826.84493 -0.13893
2824.79650 -0.13915
2822.74806 -0.13975
2820.69962 -0.13998
2818.65118 -0.13923
2816.60274 -0.13766
2814.55430 -0.13650
2812.50587 -0.13607
2810.45743 -0.13600
2808.40899 -0.13620
2806.36055 -0.13631
2804.31211 -0.13578
2802.26367 -0.13441
2800.21524 -0.13298
2798.16680 -0.13277
2796.11836 -0.13325
2794.06992 -0.13286
2792.02148 -0.13214
2789.97304 -0.13224
2787.92461 -0.13294
2785.87617 -0.13355
2783.82773 -0.13375
2781.77929 -0.13348
2779.73085 -0.13190
2777.68241 -0.12906
2775.63397 -0.12708
2773.58554 -0.12756
2771.53710 -0.12994
2769.48866 -0.13210
2767.44022 -0.13239
2765.39178 -0.13173
2763.34334 -0.13140
2761.29491 -0.13106
2759.24647 -0.13079
2757.19803 -0.13041
2755.14959 -0.12980
2753.10115 -0.13010
2751.05271 -0.13089
2749.00428 -0.13067
2746.95584 -0.12982
2744.90740 -0.12962
2742.85896 -0.13031
2740.81052 -0.13098
2738.76208 -0.13137
2736.71365 -0.13206
2734.66521 -0.13221
2732.61677 -0.13188
2730.56833 -0.13225
2728.51989 -0.13244
2726.47145 -0.13244
2724.42302 -0.13254
2722.37458 -0.13200
2720.32614 -0.13176
2718.27770 -0.13180
2716.22926 -0.13169
2714.18082 -0.13163
2712.13239 -0.13129
2710.08395 -0.13060
2708.03551 -0.12955
2705.98707 -0.12884
2703.93863 -0.12898
2701.89019 -0.12992
2699.84176 -0.13062
2697.79332 -0.13039
2695.74488 -0.13050
2693.69644 -0.13058
2691.64800 -0.12970
2689.59956 -0.12920
2687.55113 -0.12965
2685.50269 -0.13005
2683.45425 -0.13002
2681.40581 -0.12893
2679.35737 -0.12741
2677.30893 -0.12773
2675.26050 -0.12929
2673.21206 -0.13024
2671.16362 -0.13013
2669.11518 -0.12853
2667.06674 -0.12646
2665.01830 -0.12572
2662.96987 -0.12563
2660.92143 -0.12579
2658.87299 -0.12650
2656.82455 -0.12597
2654.77611 -0.12382
2652.72767 -0.12259
2650.67924 -0.12338
2648.63080 -0.12381
2646.58236 -0.12206
2644.53392 -0.11956
2642.48548 -0.11798
2640.43704 -0.11737
2638.38860 -0.11734
2636.34017 -0.11707
2634.29173 -0.11625
2632.24329 -0.11568
2630.19485 -0.11579
2628.14641 -0.11564
2626.09797 -0.11428
2624.04954 -0.11297
2622.00110 -0.11304
2619.95266 -0.11296
2617.90422 -0.11140
2615.85578 -0.11014
2613.80734 -0.11038
2611.75891 -0.11116
2609.71047 -0.11121
2607.66203 -0.10978
2605.61359 -0.10854
2603.56515 -0.10830
2601.51671 -0.10714
2599.46828 -0.10512
2597.41984 -0.10399
2595.37140 -0.10387
2593.32296 -0.10393
2591.27452 -0.10352
2589.22608 -0.10224
2587.17765 -0.10046
2585.12921 -0.09911
2583.08077 -0.09850
2581.03233 -0.09812
2578.98389 -0.09805
2576.93545 -0.09772
2574.88702 -0.09668
2572.83858 -0.09601
2570.79014 -0.09610
2568.74170 -0.09623
2566.69326 -0.09606
2564.64482 -0.09620
2562.59639 -0.09606
2560.54795 -0.09504
2558.49951 -0.09400
2556.45107 -0.09304
2554.40263 -0.09222
2552.35419 -0.09224
2550.30576 -0.09240
2548.25732 -0.09144
2546.20888 -0.09000
2544.16044 -0.08945
2542.11200 -0.08989
2540.06356 -0.09070
2538.01513 -0.09158
2535.96669 -0.09232
2533.91825 -0.09236
2531.86981 -0.09164
2529.82137 -0.09083
2527.77293 -0.09052
2525.72450 -0.09067
2523.67606 -0.09132
2521.62762 -0.09178
2519.57918 -0.09150
2517.53074 -0.09175
2515.48230 -0.09314
2513.43387 -0.09453
2511.38543 -0.09491
2509.33699 -0.09426
2507.28855 -0.09350
2505.24011 -0.09347
2503.19167 -0.09409
2501.14324 -0.09392
2499.09480 -0.09187
2497.04636 -0.09034
2494.99792 -0.09099
2492.94948 -0.09181
2490.90104 -0.09239
2488.85260 -0.09386
2486.80417 -0.09550
2484.75573 -0.09579
2482.70729 -0.09466
2480.65885 -0.09395
2478.61041 -0.09487
2476.56197 -0.09615
2474.51354 -0.09615
2472.46510 -0.09499
2470.41666 -0.09382
2468.36822 -0.09344
2466.31978 -0.09319
2464.27134 -0.09220
2462.22291 -0.09088
2460.17447 -0.08990
2458.12603 -0.08995
2456.07759 -0.09075
2454.02915 -0.09071
2451.98071 -0.08929
2449.93228 -0.08811
2447.88384 -0.08798
2445.83540 -0.08740
2443.78696 -0.08617
2441.73852 -0.08590
2439.69008 -0.08659
2437.64165 -0.08602
2435.59321 -0.08407
2433.54477 -0.08301
2431.49633 -0.08306
2429.44789 -0.08319
2427.39945 -0.08271
2425.35102 -0.08134
2423.30258 -0.08017
2421.25414 -0.07981
2419.20570 -0.07933
2417.15726 -0.07850
2415.10882 -0.07776
2413.06039 -0.07677
2411.01195 -0.07611
2408.96351 -0.07669
2406.91507 -0.07722
2404.86663 -0.07621
2402.81819 -0.07415
2400.76976 -0.07268
2398.72132 -0.07258
2396.67288 -0.07319
2394.62444 -0.07367
2392.57600 -0.07391
2390.52756 -0.07458
2388.47913 -0.07501
2386.43069 -0.07429
2384.38225 -0.07314
2382.33381 -0.07230
2380.28537 -0.07250
2378.23693 -0.07399
2376.18850 -0.07683
2374.14006 -0.08020
2372.09162 -0.07996
2370.04318 -0.07608
2367.99474 -0.07480
2365.94630 -0.07541
2363.89787 -0.07438
2361.84943 -0.07617
2359.80099 -0.07709
2357.75255 -0.07071
2355.70411 -0.06794
2353.65567 -0.07336
2351.60723 -0.07732
2349.55880 -0.07763
2347.51036 -0.07770
2345.46192 -0.07788
2343.41348 -0.07950
2341.36504 -0.08171
2339.31660 -0.07664
2337.26817 -0.06908
2335.21973 -0.07035
2333.17129 -0.07758
2331.12285 -0.08089
2329.07441 -0.07790
2327.02597 -0.07343
2324.97754 -0.07085
2322.92910 -0.07107
2320.88066 -0.07252
2318.83222 -0.07347
2316.78378 -0.07339
2314.73534 -0.07188
2312.68691 -0.07057
2310.63847 -0.06995
2308.59003 -0.07010
2306.54159 -0.07201
2304.49315 -0.07344
2302.44471 -0.07311
2300.39628 -0.07272
2298.34784 -0.07236
2296.29940 -0.07198
2294.25096 -0.07225
2292.20252 -0.07216
2290.15408 -0.07149
2288.10565 -0.07181
2286.05721 -0.07240
2284.00877 -0.07134
2281.96033 -0.07001
2279.91189 -0.07012
2277.86345 -0.07070
2275.81502 -0.07067
2273.76658 -0.07037
2271.71814 -0.07045
2269.66970 -0.07014
2267.62126 -0.06872
2265.57282 -0.06749
2263.52439 -0.06712
2261.47595 -0.06667
2259.42751 -0.06613
2257.37907 -0.06631
2255.33063 -0.06663
2253.28219 -0.06626
2251.23376 -0.06585
2249.18532 -0.06535
2247.13688 -0.06422
2245.08844 -0.06319
2243.04000 -0.06222
2240.99156 -0.06098
2238.94313 -0.06056
2236.89469 -0.06160
2234.84625 -0.06251
2232.79781 -0.06230
2230.74937 -0.06213
2228.70093 -0.06220
2226.65250 -0.06174
2224.60406 -0.06136
2222.55562 -0.06124
2220.50718 -0.06052
2218.45874 -0.05929
2216.41030 -0.05783
2214.36186 -0.05639
2212.31343 -0.05594
2210.26499 -0.05634
2208.21655 -0.05618
2206.16811 -0.05583
2204.11967 -0.05663
2202.07123 -0.05727
2200.02280 -0.05637
2197.97436 -0.05592
2195.92592 -0.05695
2193.87748 -0.05714
2191.82904 -0.05616
2189.78060 -0.05594
2187.73217 -0.05678
2185.68373 -0.05750
2183.63529 -0.05680
2181.58685 -0.05559
2179.53841 -0.05594
2177.48997 -0.05703
2175.44154 -0.05741
2173.39310 -0.05769
2171.34466 -0.05842
2169.29622 -0.05934
2167.24778 -0.05935
2165.19934 -0.05775
2163.15091 -0.05628
2161.10247 -0.05694
2159.05403 -0.05865
2157.00559 -0.05919
2154.95715 -0.05906
2152.90871 -0.05984
2150.86028 -0.06038
2148.81184 -0.05914
2146.76340 -0.05815
2144.71496 -0.05837
2142.66652 -0.05803
2140.61808 -0.05768
2138.56965 -0.05843
2136.52121 -0.05965
2134.47277 -0.06025
2132.42433 -0.05964
2130.37589 -0.05817
2128.32745 -0.05737
2126.27902 -0.05798
2124.23058 -0.05837
2122.18214 -0.05809
2120.13370 -0.05828
2118.08526 -0.05798
2116.03682 -0.05627
2113.98839 -0.05486
2111.93995 -0.05456
2109.89151 -0.05465
2107.84307 -0.05503
2105.79463 -0.05553
2103.74619 -0.05474
2101.69776 -0.05224
2099.64932 -0.05026
2097.60088 -0.04989
2095.55244 -0.04993
2093.50400 -0.04918
2091.45556 -0.04812
2089.40713 -0.04796
2087.35869 -0.04839
2085.31025 -0.04888
2083.26181 -0.04896
2081.21337 -0.04754
2079.16493 -0.04586
2077.11649 -0.04595
2075.06806 -0.04637
2073.01962 -0.04543
2070.97118 -0.04447
2068.92274 -0.04459
2066.87430 -0.04517
2064.82586 -0.04521
2062.77743 -0.04431
2060.72899 -0.04291
2058.68055 -0.04173
2056.63211 -0.04131
2054.58367 -0.04197
2052.53523 -0.04379
2050.48680 -0.04511
2048.43836 -0.04435
2046.38992 -0.04335
2044.34148 -0.04333
2042.29304 -0.04314
2040.24460 -0.04311
2038.19617 -0.04365
2036.14773 -0.04400
2034.09929 -0.04451
2032.05085 -0.04523
2030.00241 -0.04518
2027.95397 -0.04460
2025.90554 -0.04495
2023.85710 -0.04614
2021.80866 -0.04691
2019.76022 -0.04813
2017.71178 -0.05020
2015.66334 -0.05101
2013.61491 -0.05105
2011.56647 -0.05221
2009.51803 -0.05430
2007.46959 -0.05607
2005.42115 -0.05652
2003.37271 -0.05622
2001.32428 -0.05670
1999.27584 -0.05838
1997.22740 -0.06006
1995.17896 -0.06084
1993.13052 -0.06114
1991.08208 -0.06126
1989.03365 -0.06184
1986.98521 -0.06376
1984.93677 -0.06644
1982.88833 -0.06844
1980.83989 -0.06916
1978.79145 -0.06907
1976.74302 -0.06967
1974.69458 -0.07119
1972.64614 -0.07271
1970.59770 -0.07412
1968.54926 -0.07522
1966.50082 -0.07576
1964.45239 -0.07642
1962.40395 -0.07717
1960.35551 -0.07733
1958.30707 -0.07735
1956.25863 -0.07771
1954.21019 -0.07832
1952.16176 -0.07893
1950.11332 -0.07951
1948.06488 -0.08033
1946.01644 -0.08085
1943.96800 -0.08131
1941.91956 -0.08109
1939.87112 -0.07907
1937.82269 -0.07751
1935.77425 -0.07731
1933.72581 -0.07743
1931.67737 -0.07799
1929.62893 -0.07854
1927.58049 -0.07792
1925.53206 -0.07656
1923.48362 -0.07577
1921.43518 -0.07539
1919.38674 -0.07476
1917.33830 -0.07469
1915.28986 -0.07460
1913.24143 -0.07320
1911.19299 -0.07169
1909.14455 -0.07155
1907.09611 -0.07213
1905.04767 -0.07264
1902.99923 -0.07313
1900.95080 -0.07276
1898.90236 -0.07128
1896.85392 -0.07033
1894.80548 -0.07021
1892.75704 -0.06968
1890.70860 -0.06925
1888.66017 -0.06952
1886.61173 -0.06962
1884.56329 -0.06968
1882.51485 -0.06950
1880.46641 -0.06863
1878.41797 -0.06873
1876.36954 -0.07030
1874.32110 -0.07114
1872.27266 -0.07029
1870.22422 -0.06993
1868.17578 -0.07198
1866.12734 -0.07405
1864.07891 -0.07492
1862.03047 -0.07511
1859.98203 -0.07482
1857.93359 -0.07536
1855.88515 -0.07713
1853.83671 -0.07884
1851.78828 -0.07964
1849.73984 -0.08009
1847.69140 -0.08060
1845.64296 -0.08010
1843.59452 -0.08010
1841.54608 -0.08245
1839.49765 -0.08423
1837.44921 -0.08506
1835.40077 -0.08665
1833.35233 -0.08864
1831.30389 -0.08981
1829.25545 -0.09087
1827.20702 -0.09157
1825.15858 -0.09176
1823.11014 -0.09337
1821.06170 -0.09639
1819.01326 -0.09950
1816.96482 -0.10136
1814.91639 -0.10231
1812.86795 -0.10368
1810.81951 -0.10528
1808.77107 -0.10587
1806.72263 -0.10589
1804.67419 -0.10660
1802.62575 -0.10788
1800.57732 -0.10901
1798.52888 -0.11002
1796.48044 -0.11053
1794.43200 -0.11017
1792.38356 -0.11063
1790.33512 -0.11304
1788.28669 -0.11512
1786.23825 -0.11567
1784.18981 -0.11509
1782.14137 -0.11472
1780.09293 -0.11525
1778.04449 -0.11670
1775.99606 -0.11809
1773.94762 -0.11790
1771.89918 -0.11653
1769.85074 -0.11629
1767.80230 -0.11737
1765.75386 -0.11867
1763.70543 -0.11878
1761.65699 -0.11791
1759.60855 -0.11689
1757.56011 -0.11581
1755.51167 -0.11425
1753.46323 -0.11188
1751.41480 -0.10986
1749.36636 -0.11017
1747.31792 -0.11186
1745.26948 -0.11292
1743.22104 -0.11322
1741.17260 -0.11267
1739.12417 -0.11208
1737.07573 -0.11167
1735.02729 -0.11123
1732.97885 -0.11216
1730.93041 -0.11264
1728.88197 -0.11285
1726.83354 -0.11342
1724.78510 -0.11315
1722.73666 -0.11153
1720.68822 -0.10912
1718.63978 -0.10660
1716.59134 -0.10620
1714.54291 -0.10788
1712.49447 -0.10860
1710.44603 -0.10973
1708.39759 -0.11178
1706.34915 -0.11336
1704.30071 -0.11378
1702.25228 -0.11399
1700.20384 -0.11490
1698.15540 -0.11650
1696.10696 -0.11934
1694.05852 -0.12132
1692.01008 -0.12025
1689.96165 -0.11825
1687.91321 -0.11738
1685.86477 -0.11749
1683.81633 -0.11973
1681.76789 -0.12270
1679.71945 -0.12373
1677.67102 -0.12430
1675.62258 -0.12623
1673.57414 -0.12822
1671.52570 -0.12707
1669.47726 -0.12580
1667.42882 -0.12732
1665.38038 -0.12848
1663.33195 -0.12933
1661.28351 -0.13062
1659.23507 -0.13136
1657.18663 -0.13060
1655.13819 -0.12798
1653.08975 -0.12870
1651.04132 -0.13260
1648.99288 -0.13177
1646.94444 -0.13196
1644.89600 -0.13381
1642.84756 -0.13267
1640.79912 -0.13091
1638.75069 -0.12956
1636.70225 -0.12888
1634.65381 -0.13008
1632.60537 -0.12937
1630.55693 -0.12637
1628.50849 -0.12287
1626.46006 -0.12083
1624.41162 -0.11914
1622.36318 -0.11570
1620.31474 -0.11279
1618.26630 -0.11128
1616.21786 -0.11165
1614.16943 -0.11251
1612.12099 -0.11048
1610.07255 -0.10602
1608.02411 -0.10282
1605.97567 -0.10258
1603.92723 -0.10254
1601.87880 -0.10134
1599.83036 -0.09995
1597.78192 -0.09837
1595.73348 -0.09635
1593.68504 -0.09504
1591.63660 -0.09424
1589.58817 -0.09297
1587.53973 -0.09145
1585.49129 -0.08964
1583.44285 -0.08776
1581.39441 -0.08645
1579.34597 -0.08566
1577.29754 -0.08471
1575.24910 -0.08351
1573.20066 -0.08194
1571.15222 -0.07978
1569.10378 -0.07899
1567.05534 -0.07987
1565.00691 -0.08089
1562.95847 -0.08126
1560.91003 -0.07949
1558.86159 -0.07753
1556.81315 -0.07912
1554.76471 -0.08062
1552.71628 -0.08182
1550.66784 -0.08208
1548.61940 -0.08216
1546.57096 -0.08101
1544.52252 -0.07728
1542.47408 -0.07282
1540.42565 -0.07309
1538.37721 -0.07747
1536.32877 -0.07759
1534.28033 -0.07581
1532.23189 -0.07696
1530.18345 -0.07936
1528.13501 -0.08021
1526.08658 -0.07991
1524.03814 -0.07772
1521.98970 -0.07416
1519.94126 -0.07297
1517.89282 -0.07410
1515.84438 -0.07557
1513.79595 -0.07553
1511.74751 -0.07322
1509.69907 -0.06835
1507.65063 -0.06256
1505.60219 -0.06732
1503.55375 -0.07205
1501.50532 -0.07315
1499.45688 -0.07366
1497.40844 -0.07396
1495.36000 -0.07264
1493.31156 -0.06976
1491.26312 -0.06647
1489.21469 -0.06618
1487.16625 -0.06951
1485.11781 -0.07069
1483.06937 -0.06911
1481.02093 -0.06713
1478.97249 -0.06655
1476.92406 -0.06618
1474.87562 -0.06483
1472.82718 -0.06485
1470.77874 -0.06728
1468.73030 -0.06850
1466.68186 -0.06883
1464.63343 -0.06914
1462.58499 -0.06855
1460.53655 -0.06571
1458.48811 -0.06111
1456.43967 -0.06289
1454.39123 -0.06763
1452.34280 -0.06763
1450.29436 -0.06611
1448.24592 -0.06559
1446.19748 -0.06581
1444.14904 -0.06590
1442.10060 -0.06612
1440.05217 -0.06557
1438.00373 -0.06402
1435.95529 -0.06379
1433.90685 -0.06494
1431.85841 -0.06525
1429.80997 -0.06428
1427.76154 -0.06305
1425.71310 -0.06278
1423.66466 -0.06343
1421.61622 -0.06329
1419.56778 -0.06303
1417.51934 -0.06649
1415.47091 -0.06904
1413.42247 -0.06875
1411.37403 -0.06856
1409.32559 -0.06965
1407.27715 -0.07111
1405.22871 -0.07190
1403.18028 -0.07209
1401.13184 -0.07266
1399.08340 -0.07422
1397.03496 -0.07618
1394.98652 -0.07748
1392.93808 -0.07762
1390.88965 -0.07693
1388.84121 -0.07644
1386.79277 -0.07689
1384.74433 -0.07766
1382.69589 -0.07778
1380.64745 -0.07763
1378.59901 -0.07788
1376.55058 -0.07789
1374.50214 -0.07777
1372.45370 -0.07864
1370.40526 -0.07929
1368.35682 -0.07881
1366.30838 -0.07765
1364.25995 -0.07677
1362.21151 -0.07676
1360.16307 -0.07688
1358.11463 -0.07669
1356.06619 -0.07569
1354.01775 -0.07410
1351.96932 -0.07306
1349.92088 -0.07251
1347.87244 -0.07213
1345.82400 -0.07209
1343.77556 -0.07235
1341.72712 -0.07200
1339.67869 -0.07048
1337.63025 -0.06888
1335.58181 -0.06867
1333.53337 -0.06962
1331.48493 -0.07049
1329.43649 -0.07050
1327.38806 -0.06951
1325.33962 -0.06909
1323.29118 -0.06995
1321.24274 -0.07026
1319.19430 -0.06967
1317.14586 -0.06953
1315.09743 -0.06998
1313.04899 -0.07133
1311.00055 -0.07399
1308.95211 -0.07637
1306.90367 -0.07679
1304.85523 -0.07668
1302.80680 -0.07817
1300.75836 -0.08015
1298.70992 -0.08076
1296.66148 -0.08071
1294.61304 -0.08164
1292.56460 -0.08262
1290.51617 -0.08243
1288.46773 -0.08247
1286.41929 -0.08348
1284.37085 -0.08474
1282.32241 -0.08541
1280.27397 -0.08539
1278.22554 -0.08544
1276.17710 -0.08549
1274.12866 -0.08497
1272.08022 -0.08407
1270.03178 -0.08243
1267.98334 -0.07993
1265.93491 -0.07831
1263.88647 -0.07800
1261.83803 -0.07879
1259.78959 -0.08088
1257.74115 -0.08210
1255.69271 -0.08087
1253.64428 -0.07837
1251.59584 -0.07612
1249.54740 -0.07467
1247.49896 -0.07344
1245.45052 -0.07170
1243.40208 -0.07010
1241.35364 -0.06930
1239.30521 -0.06883
1237.25677 -0.06768
1235.20833 -0.06517
1233.15989 -0.06246
1231.11145 -0.06066
1229.06301 -0.05909
1227.01458 -0.05736
1224.96614 -0.05591
1222.91770 -0.05455
1220.86926 -0.05234
1218.82082 -0.05011
1216.77238 -0.04955
1214.72395 -0.04981
1212.67551 -0.04978
1210.62707 -0.04959
1208.57863 -0.04884
1206.53019 -0.04864
1204.48175 -0.04954
1202.43332 -0.04946
1200.38488 -0.04857
1198.33644 -0.04758
1196.28800 -0.04699
1194.23956 -0.04838
1192.19112 -0.05018
1190.14269 -0.05087
1188.09425 -0.05151
1186.04581 -0.05303
1183.99737 -0.05538
1181.94893 -0.05793
1179.90049 -0.05986
1177.85206 -0.06105
1175.80362 -0.06335
1173.75518 -0.06733
1171.70674 -0.07070
1169.65830 -0.07206
1167.60986 -0.07241
1165.56143 -0.07356
1163.51299 -0.07656
1161.46455 -0.07978
1159.41611 -0.08169
1157.36767 -0.08414
1155.31923 -0.08671
1153.27080 -0.08734
1151.22236 -0.08785
1149.17392 -0.09035
1147.12548 -0.09300
1145.07704 -0.09310
1143.02860 -0.09245
1140.98017 -0.09333
1138.93173 -0.09411
1136.88329 -0.09454
1134.83485 -0.09632
1132.78641 -0.09833
1130.73797 -0.09932
1128.68954 -0.10063
1126.64110 -0.10196
1124.59266 -0.10175
1122.54422 -0.10141
1120.49578 -0.10157
1118.44734 -0.10062
1116.39891 -0.09881
1114.35047 -0.09778
1112.30203 -0.09807
1110.25359 -0.09791
1108.20515 -0.09687
1106.15671 -0.09590
1104.10827 -0.09382
1102.05984 -0.09138
1100.01140 -0.08982
1097.96296 -0.08781
1095.91452 -0.08617
1093.86608 -0.08714
1091.81764 -0.08939
1089.76921 -0.08898
1087.72077 -0.08613
1085.67233 -0.08506
1083.62389 -0.08686
1081.57545 -0.08848
1079.52701 -0.08860
1077.47858 -0.08933
1075.43014 -0.09083
1073.38170 -0.09222
1071.33326 -0.09372
1069.28482 -0.09438
1067.23638 -0.09367
1065.18795 -0.09241
1063.13951 -0.09218
1061.09107 -0.09291
1059.04263 -0.09318
1056.99419 -0.09401
1054.94575 -0.09741
1052.89732 -0.10271
1050.84888 -0.10591
1048.80044 -0.10467
1046.75200 -0.10415
1044.70356 -0.10865
1042.65512 -0.11474
1040.60669 -0.11893
1038.55825 -0.11917
1036.50981 -0.11582
1034.46137 -0.11418
1032.41293 -0.11637
1030.36449 -0.11969
1028.31606 -0.12256
1026.26762 -0.12341
1024.21918 -0.12157
1022.17074 -0.12182
1020.12230 -0.12688
1018.07386 -0.13182
1016.02543 -0.13300
1013.97699 -0.13273
1011.92855 -0.13344
1009.88011 -0.13412
1007.83167 -0.13347
1005.78323 -0.13319
1003.73480 -0.13490
1001.68636 -0.13733
999.63792 -0.13905
997.58948 -0.13867
995.54104 -0.13713
993.49260 -0.13741
991.44417 -0.13782
989.39573 -0.13713
987.34729 -0.13796
985.29885 -0.14046
983.25041 -0.14447
981.20197 -0.14799
979.15354 -0.14719
977.10510 -0.14459
975.05666 -0.14426
973.00822 -0.14610
970.95978 -0.14834
968.91134 -0.14841
966.86290 -0.14649
964.81447 -0.14694
962.76603 -0.15039
960.71759 -0.15392
958.66915 -0.15461
956.62071 -0.15300
954.57227 -0.15477
952.52384 -0.15939
950.47540 -0.16227
948.42696 -0.16518
946.37852 -0.17124
944.33008 -0.17764
942.28164 -0.18096
940.23321 -0.18285
938.18477 -0.18384
936.13633 -0.18178
934.08789 -0.17791
932.03945 -0.17452
929.99101 -0.17117
927.94258 -0.16712
925.89414 -0.16151
923.84570 -0.15499
921.79726 -0.14873
919.74882 -0.14252
917.70038 -0.13547
915.65195 -0.12713
913.60351 -0.11870
911.55507 -0.11157
909.50663 -0.10584
907.45819 -0.10028
905.40975 -0.09443
903.36132 -0.08829
901.31288 -0.08250
899.26444 -0.07911
897.21600 -0.07696
895.16756 -0.07232
893.11912 -0.06322
891.07069 -0.05205
889.02225 -0.04467
886.97381 -0.04325
884.92537 -0.04283
882.87693 -0.03949
880.82849 -0.03543
878.78006 -0.03275
876.73162 -0.03136
874.68318 -0.03055
872.63474 -0.02713
870.58630 -0.02126
868.53786 -0.01702
866.48943 -0.01613
864.44099 -0.02004
862.39255 -0.02773
860.34411 -0.03335
858.29567 -0.03370
856.24723 -0.03276
854.19880 -0.03306
852.15036 -0.03414
850.10192 -0.03712
848.05348 -0.04166
846.00504 -0.04729
843.95660 -0.05383
841.90817 -0.06113
839.85973 -0.06925
837.81129 -0.07743
835.76285 -0.08489
833.71441 -0.09182
831.66597 -0.09843
829.61753 -0.10442
827.56910 -0.10909
825.52066 -0.11370
823.47222 -0.12001
821.42378 -0.12524
819.37534 -0.12799
817.32690 -0.12980
815.27847 -0.13039
813.23003 -0.13127
811.18159 -0.13438
809.13315 -0.13729
807.08471 -0.13862
805.03627 -0.13912
802.98784 -0.13814
800.93940 -0.13719
798.89096 -0.13758
796.84252 -0.13720
794.79408 -0.13576
792.74564 -0.13482
790.69721 -0.13363
788.64877 -0.13206
786.60033 -0.13181
784.55189 -0.13219
782.50345 -0.13302
780.45501 -0.13544
778.40658 -0.13803
776.35814 -0.13735
774.30970 -0.13333
772.26126 -0.13079
770.21282 -0.13191
768.16438 -0.13582
766.11595 -0.13878
764.06751 -0.13551
762.01907 -0.12826
759.97063 -0.12410
757.92219 -0.12752
755.87375 -0.13459
753.82532 -0.13775
751.77688 -0.13672
749.72844 -0.13464
747.68000 -0.13267
745.63156 -0.12997
743.58312 -0.12704
741.53469 -0.12528
739.48625 -0.12492
737.43781 -0.12484
735.38937 -0.12162
733.34093 -0.11569
731.29249 -0.11161
729.24406 -0.11408
727.19562 -0.12321
725.14718 -0.13017
723.09874 -0.12644
721.05030 -0.11497
719.00186 -0.10627
716.95343 -0.10360
714.90499 -0.10048
712.85655 -0.09803
710.80811 -0.10079
708.75967 -0.10452
706.71123 -0.10736
704.66280 -0.10610
702.61436 -0.09913
700.56592 -0.09667
698.51748 -0.09722
696.46904 -0.08912
694.42060 -0.08428
692.37216 -0.09308
690.32373 -0.10412
688.27529 -0.11488
686.22685 -0.11502
684.17841 -0.09508
682.12997 -0.06880
680.08153 -0.05296
678.03310 -0.05253
675.98466 -0.05822
673.93622 -0.06057
671.88778 -0.05223
669.83934 -0.03663
667.79090 -0.03567
665.74247 -0.05075
663.69403 -0.06543
661.64559 -0.08581
659.59715 -0.11632
657.54871 -0.14219
655.50027 -0.15996
653.45184 -0.18724
651.40340 -0.21338
649.35496 -0.22587
647.30652 -0.23813
645.25808 -0.23940
643.20964 -0.21651
641.16121 -0.20149
639.11277 -0.22300
637.06433 -0.26037
635.01589 -0.27870
632.96745 -0.27376
630.91901 -0.27817
628.87058 -0.30617
626.82214 -0.32005
624.77370 -0.30511
622.72526 -0.29481
620.67682 -0.30067
618.62838 -0.30457
616.57995 -0.27060
614.53151 -0.21454
612.48307 -0.18481
610.43463 -0.20006
608.38619 -0.24669
606.33775 -0.26662
604.28932 -0.24371
602.24088 -0.23107
600.19244 -0.22259
598.14400 -0.20342
