3996.50324 0.20020
3994.45480 0.20019
3992.40636 0.19870
3990.35792 0.19737
3988.30948 0.19614
3986.26104 0.19496
3984.21261 0.19438
3982.16417 0.19413
3980.11573 0.19386
3978.06729 0.19375
3976.01885 0.19303
3973.97041 0.19180
3971.92198 0.19204
3969.87354 0.19319
3967.82510 0.19293
3965.77666 0.19206
3963.72822 0.19265
3961.67978 0.19439
3959.63135 0.19570
3957.58291 0.19525
3955.53447 0.19210
3953.48603 0.18880
3951.43759 0.18854
3949.38915 0.19055
3947.34072 0.19277
3945.29228 0.19352
3943.24384 0.19278
3941.19540 0.19245
3939.14696 0.19255
3937.09852 0.19202
3935.05009 0.19106
3933.00165 0.19030
3930.95321 0.19078
3928.90477 0.19045
3926.85633 0.18919
3924.80789 0.18950
3922.75946 0.19019
3920.71102 0.19135
3918.66258 0.19384
3916.61414 0.19367
3914.56570 0.19070
3912.51726 0.19022
3910.46883 0.19105
3908.42039 0.19092
3906.37195 0.19343
3904.32351 0.19936
3902.27507 0.20197
3900.22663 0.19952
3898.17820 0.19619
3896.12976 0.19435
3894.08132 0.19446
3892.03288 0.19609
3889.98444 0.19571
3887.93600 0.19354
3885.88756 0.19461
3883.83913 0.19911
3881.79069 0.20091
3879.74225 0.19795
3877.69381 0.19339
3875.64537 0.19096
3873.59693 0.19026
3871.54850 0.18998
3869.50006 0.19247
3867.45162 0.19400
3865.40318 0.19325
3863.35474 0.19638
3861.30630 0.20026
3859.25787 0.20019
3857.20943 0.19922
3855.16099 0.20160
3853.11255 0.20751
3851.06411 0.20623
3849.01567 0.20345
3846.96724 0.20215
3844.91880 0.20280
3842.87036 0.20619
3840.82192 0.20869
3838.77348 0.20834
3836.72504 0.20913
3834.67661 0.21158
3832.62817 0.21213
3830.57973 0.20919
3828.53129 0.20428
3826.48285 0.20077
3824.43441 0.20111
3822.38598 0.20481
3820.33754 0.21045
3818.28910 0.21206
3816.24066 0.21040
3814.19222 0.20813
3812.14378 0.20603
3810.09535 0.20485
3808.04691 0.20653
3805.99847 0.21105
3803.95003 0.21462
3801.90159 0.21799
3799.85315 0.21976
3797.80472 0.22043
3795.75628 0.22167
3793.70784 0.22061
3791.65940 0.21867
3789.61096 0.21890
3787.56252 0.22076
3785.51409 0.22274
3783.46565 0.22491
3781.41721 0.22757
3779.36877 0.22927
3777.32033 0.22887
3775.27189 0.22921
3773.22346 0.23144
3771.17502 0.23521
3769.12658 0.23793
3767.07814 0.23689
3765.02970 0.23663
3762.98126 0.23802
3760.93283 0.23835
3758.88439 0.24115
3756.83595 0.24677
3754.78751 0.24947
3752.73907 0.24900
3750.69063 0.24808
3748.64219 0.24992
3746.59376 0.25332
3744.54532 0.25828
3742.49688 0.26051
3740.44844 0.26002
3738.40000 0.26276
3736.35156 0.27332
3734.30313 0.28072
3732.25469 0.27491
3730.20625 0.27013
3728.15781 0.27039
3726.10937 0.27253
3724.06093 0.27248
3722.01250 0.27293
3719.96406 0.27736
3717.91562 0.28333
3715.86718 0.28649
3713.81874 0.28699
3711.77030 0.28964
3709.72187 0.29448
3707.67343 0.29792
3705.62499 0.30247
3703.57655 0.30983
3701.52811 0.31762
3699.47967 0.32178
3697.43124 0.32621
3695.38280 0.33098
3693.33436 0.33228
3691.28592 0.33346
3689.23748 0.33667
3687.18904 0.33854
3685.14061 0.34195
3683.09217 0.34680
3681.04373 0.35199
3678.99529 0.35654
3676.94685 0.36062
3674.89841 0.37103
3672.84998 0.38184
3670.80154 0.38671
3668.75310 0.39024
3666.70466 0.39388
3664.65622 0.39770
3662.60778 0.40245
3660.55935 0.40614
3658.51091 0.40737
3656.46247 0.40966
3654.41403 0.41460
3652.36559 0.42053
3650.31715 0.42991
3648.26872 0.43889
3646.22028 0.44111
3644.17184 0.43843
3642.12340 0.43499
3640.07496 0.43962
3638.02652 0.45030
3635.97809 0.45601
3633.92965 0.45401
3631.88121 0.45113
3629.83277 0.45480
3627.78433 0.46381
3625.73589 0.46851
3623.68746 0.47227
3621.63902 0.47865
3619.59058 0.48983
3617.54214 0.49809
3615.49370 0.49580
3613.44526 0.48806
3611.39682 0.48293
3609.34839 0.48549
3607.29995 0.48850
3605.25151 0.48505
3603.20307 0.47860
3601.15463 0.47500
3599.10619 0.48034
3597.05776 0.49205
3595.00932 0.50307
3592.96088 0.50492
3590.91244 0.49775
3588.86400 0.48957
3586.81556 0.48537
3584.76713 0.48141
3582.71869 0.47552
3580.67025 0.47232
3578.62181 0.47173
3576.57337 0.46909
3574.52493 0.46735
3572.47650 0.47046
3570.42806 0.47251
3568.37962 0.46967
3566.33118 0.46808
3564.28274 0.46900
3562.23430 0.46653
3560.18587 0.46120
3558.13743 0.45567
3556.08899 0.45189
3554.04055 0.45327
3551.99211 0.45996
3549.94367 0.46339
3547.89524 0.45975
3545.84680 0.45154
3543.79836 0.44407
3541.74992 0.44293
3539.70148 0.44748
3537.65304 0.45402
3535.60461 0.45797
3533.55617 0.45628
3531.50773 0.45191
3529.45929 0.44935
3527.41085 0.44772
3525.36241 0.44473
3523.31398 0.44423
3521.26554 0.44675
3519.21710 0.44673
3517.16866 0.44263
3515.12022 0.43932
3513.07178 0.43880
3511.02335 0.43800
3508.97491 0.43335
3506.92647 0.42498
3504.87803 0.42172
3502.82959 0.42739
3500.78115 0.43126
3498.73272 0.43074
3496.68428 0.43355
3494.63584 0.43528
3492.58740 0.43083
3490.53896 0.42686
3488.49052 0.42273
3486.44209 0.41680
3484.39365 0.41549
3482.34521 0.41996
3480.29677 0.42209
3478.24833 0.41840
3476.19989 0.41646
3474.15146 0.41942
3472.10302 0.42632
3470.05458 0.43522
3468.00614 0.43859
3465.95770 0.43606
3463.90926 0.43394
3461.86082 0.43407
3459.81239 0.43518
3457.76395 0.43033
3455.71551 0.42005
3453.66707 0.41491
3451.61863 0.41623
3449.57019 0.41794
3447.52176 0.41810
3445.47332 0.41809
3443.42488 0.41667
3441.37644 0.41424
3439.32800 0.41679
3437.27956 0.42414
3435.23113 0.42602
3433.18269 0.41991
3431.13425 0.41517
3429.08581 0.41536
3427.03737 0.41762
3424.98893 0.42244
3422.94050 0.42603
3420.89206 0.42053
3418.84362 0.41278
3416.79518 0.41132
3414.74674 0.41230
3412.69830 0.41157
3410.64987 0.41257
3408.60143 0.41702
3406.55299 0.41632
3404.50455 0.41210
3402.45611 0.41354
3400.40767 0.41671
3398.35924 0.41521
3396.31080 0.41214
3394.26236 0.41210
3392.21392 0.41335
3390.16548 0.41550
3388.11704 0.41752
3386.06861 0.41478
3384.02017 0.41149
3381.97173 0.41366
3379.92329 0.41554
3377.87485 0.41117
3375.82641 0.40705
3373.77798 0.40848
3371.72954 0.41080
3369.68110 0.41333
3367.63266 0.41841
3365.58422 0.41891
3363.53578 0.41114
3361.48735 0.40630
3359.43891 0.40953
3357.39047 0.41601
3355.34203 0.42441
3353.29359 0.42833
3351.24515 0.42270
3349.19672 0.41486
3347.14828 0.40993
3345.09984 0.40908
3343.05140 0.41166
3341.00296 0.41337
3338.95452 0.41348
3336.90609 0.41271
3334.85765 0.41287
3332.80921 0.41637
3330.76077 0.41787
3328.71233 0.41497
3326.66389 0.41377
3324.61545 0.41749
3322.56702 0.42432
3320.51858 0.42723
3318.47014 0.42227
3316.42170 0.41602
3314.37326 0.41301
3312.32482 0.41190
3310.27639 0.41163
3308.22795 0.41202
3306.17951 0.40986
3304.13107 0.40203
3302.08263 0.39511
3300.03419 0.39624
3297.98576 0.39945
3295.93732 0.39849
3293.88888 0.39879
3291.84044 0.40214
3289.79200 0.40539
3287.74356 0.40995
3285.69513 0.41440
3283.64669 0.41618
3281.59825 0.41603
3279.54981 0.41305
3277.50137 0.40928
3275.45293 0.40911
3273.40450 0.41065
3271.35606 0.40992
3269.30762 0.40612
3267.25918 0.40095
3265.21074 0.39733
3263.16230 0.39869
3261.11387 0.40563
3259.06543 0.41315
3257.01699 0.41541
3254.96855 0.41054
3252.92011 0.40461
3250.87167 0.40318
3248.82324 0.40447
3246.77480 0.40479
3244.72636 0.40463
3242.67792 0.40820
3240.62948 0.41154
3238.58104 0.41040
3236.53261 0.40810
3234.48417 0.40745
3232.43573 0.40967
3230.38729 0.41509
3228.33885 0.42003
3226.29041 0.41892
3224.24198 0.41586
3222.19354 0.41599
3220.14510 0.41600
3218.09666 0.41392
3216.04822 0.41286
3213.99978 0.41288
3211.95135 0.40947
3209.90291 0.40601
3207.85447 0.41057
3205.80603 0.42063
3203.75759 0.42535
3201.70915 0.42189
3199.66072 0.41780
3197.61228 0.41805
3195.56384 0.42321
3193.51540 0.42823
3191.46696 0.42556
3189.41852 0.41780
3187.37008 0.41348
3185.32165 0.41465
3183.27321 0.41641
3181.22477 0.41639
3179.17633 0.41825
3177.12789 0.42219
3175.07945 0.42410
3173.03102 0.42337
3170.98258 0.42356
3168.93414 0.42733
3166.88570 0.43099
3164.83726 0.43171
3162.78882 0.43446
3160.74039 0.43884
3158.69195 0.43670
3156.64351 0.43077
3154.59507 0.43124
3152.54663 0.43912
3150.49819 0.44463
3148.44976 0.44163
3146.40132 0.43801
3144.35288 0.43966
3142.30444 0.44109
3140.25600 0.43696
3138.20756 0.43106
3136.15913 0.42947
3134.11069 0.43181
3132.06225 0.43321
3130.01381 0.43289
3127.96537 0.43455
3125.91693 0.43506
3123.86850 0.43385
3121.82006 0.43671
3119.77162 0.44044
3117.72318 0.44134
3115.67474 0.44083
3113.62630 0.43823
3111.57787 0.43416
3109.52943 0.43194
3107.48099 0.43465
3105.43255 0.44080
3103.38411 0.44552
3101.33567 0.44550
3099.28724 0.44401
3097.23880 0.44622
3095.19036 0.44716
3093.14192 0.44312
3091.09348 0.44105
3089.04504 0.44589
3086.99661 0.45215
3084.94817 0.45399
3082.89973 0.45401
3080.85129 0.45235
3078.80285 0.44950
3076.75441 0.45099
3074.70598 0.45621
3072.65754 0.45791
3070.60910 0.45320
3068.56066 0.44714
3066.51222 0.44521
3064.46378 0.44752
3062.41535 0.45108
3060.36691 0.45628
3058.31847 0.46239
3056.27003 0.46418
3054.22159 0.46009
3052.17315 0.45624
3050.12471 0.45696
3048.07628 0.45978
3046.02784 0.46167
3043.97940 0.46275
3041.93096 0.46449
3039.88252 0.46643
3037.83408 0.46724
3035.78565 0.46644
3033.73721 0.46585
3031.68877 0.46816
3029.64033 0.47012
3027.59189 0.46848
3025.54345 0.46741
3023.49502 0.46787
3021.44658 0.46680
3019.39814 0.46690
3017.34970 0.47031
3015.30126 0.47517
3013.25282 0.47840
3011.20439 0.47708
3009.15595 0.47738
3007.10751 0.48668
3005.05907 0.49648
3003.01063 0.49623
3000.96219 0.48845
2998.91376 0.48115
2996.86532 0.48106
2994.81688 0.48525
2992.76844 0.48858
2990.72000 0.49380
2988.67156 0.50119
2986.62313 0.50487
2984.57469 0.49997
2982.52625 0.49277
2980.47781 0.49473
2978.42937 0.50383
2976.38093 0.51141
2974.33250 0.51653
2972.28406 0.51629
2970.23562 0.50956
2968.18718 0.50362
2966.13874 0.50054
2964.09030 0.49815
2962.04187 0.49469
2959.99343 0.48804
2957.94499 0.48182
2955.89655 0.47819
2953.84811 0.47354
2951.79967 0.46973
2949.75124 0.46847
2947.70280 0.46567
2945.65436 0.46259
2943.60592 0.46479
2941.55748 0.47046
2939.50904 0.47330
2937.46061 0.47203
2935.41217 0.46764
2933.36373 0.46179
2931.31529 0.45758
2929.26685 0.45519
2927.21841 0.45168
2925.16998 0.44565
2923.12154 0.44101
2921.07310 0.43935
2919.02466 0.43571
2916.97622 0.43087
2914.92778 0.43104
2912.87934 0.43577
2910.83091 0.44013
2908.78247 0.44368
2906.73403 0.44667
2904.68559 0.44678
2902.63715 0.44644
2900.58871 0.44878
2898.54028 0.45074
2896.49184 0.45059
2894.44340 0.45093
2892.39496 0.45257
2890.34652 0.45362
2888.29808 0.45319
2886.24965 0.45368
2884.20121 0.45495
2882.15277 0.45493
2880.10433 0.45627
2878.05589 0.45821
2876.00745 0.45743
2873.95902 0.45603
2871.91058 0.45552
2869.86214 0.45470
2867.81370 0.45317
2865.76526 0.45129
2863.71682 0.44853
2861.66839 0.44559
2859.61995 0.44351
2857.57151 0.44105
2855.52307 0.43855
2853.47463 0.43620
2851.42619 0.43401
2849.37776 0.43452
2847.32932 0.43775
2845.28088 0.44166
2843.23244 0.44538
2841.18400 0.44882
2839.13556 0.45283
2837.08713 0.45580
2835.03869 0.45558
2832.99025 0.45425
2830.94181 0.45488
2828.89337 0.45795
2826.84493 0.46067
2824.79650 0.46190
2822.74806 0.46308
2820.69962 0.46439
2818.65118 0.46598
2816.60274 0.46761
2814.55430 0.46894
2812.50587 0.46915
2810.45743 0.46717
2808.40899 0.46553
2806.36055 0.46576
2804.31211 0.46615
2802.26367 0.46661
2800.21524 0.46728
2798.16680 0.46748
2796.11836 0.46868
2794.06992 0.47108
2792.02148 0.47303
2789.97304 0.47392
2787.92461 0.47134
2785.87617 0.46775
2783.82773 0.46995
2781.77929 0.47525
2779.73085 0.47543
2777.68241 0.47139
2775.63397 0.47021
2773.58554 0.47185
2771.53710 0.47300
2769.48866 0.47307
2767.44022 0.47436
2765.39178 0.47793
2763.34334 0.47816
2761.29491 0.47402
2759.24647 0.47095
2757.19803 0.47077
2755.14959 0.47217
2753.10115 0.47413
2751.05271 0.47689
2749.00428 0.47963
2746.95584 0.47939
2744.90740 0.47714
2742.85896 0.47684
2740.81052 0.47698
2738.76208 0.47606
2736.71365 0.47715
2734.66521 0.48071
2732.61677 0.48201
2730.56833 0.47916
2728.51989 0.47680
2726.47145 0.47705
2724.42302 0.47864
2722.37458 0.48113
2720.32614 0.48180
2718.27770 0.48000
2716.22926 0.47880
2714.18082 0.47828
2712.13239 0.47773
2710.08395 0.47695
2708.03551 0.47698
2705.98707 0.47845
2703.93863 0.47942
2701.89019 0.47998
2699.84176 0.48050
2697.79332 0.48026
2695.74488 0.47985
2693.69644 0.48040
2691.64800 0.48082
2689.59956 0.48041
2687.55113 0.48173
2685.50269 0.48430
2683.45425 0.48336
2681.40581 0.48028
2679.35737 0.48033
2677.30893 0.48068
2675.26050 0.47902
2673.21206 0.47920
2671.16362 0.48115
2669.11518 0.48267
2667.06674 0.48303
2665.01830 0.48328
2662.96987 0.48565
2660.92143 0.48730
2658.87299 0.48588
2656.82455 0.48533
2654.77611 0.48680
2652.72767 0.48669
2650.67924 0.48463
2648.63080 0.48464
2646.58236 0.48681
2644.53392 0.48703
2642.48548 0.48501
2640.43704 0.48287
2638.38860 0.48348
2636.34017 0.48836
2634.29173 0.49199
2632.24329 0.49099
2630.19485 0.48812
2628.14641 0.48659
2626.09797 0.49024
2624.04954 0.49584
2622.00110 0.49705
2619.95266 0.49586
2617.90422 0.49607
2615.85578 0.49686
2613.80734 0.49726
2611.75891 0.49763
2609.71047 0.49833
2607.66203 0.50024
2605.61359 0.50221
2603.56515 0.50196
2601.51671 0.49914
2599.46828 0.49717
2597.41984 0.49865
2595.37140 0.49878
2593.32296 0.49369
2591.27452 0.48974
2589.22608 0.49141
2587.17765 0.49399
2585.12921 0.49519
2583.08077 0.49533
2581.03233 0.49464
2578.98389 0.49516
2576.93545 0.49699
2574.88702 0.49738
2572.83858 0.49697
2570.79014 0.49925
2568.74170 0.50224
2566.69326 0.50362
2564.64482 0.50322
2562.59639 0.50186
2560.54795 0.50135
2558.49951 0.49958
2556.45107 0.49634
2554.40263 0.49486
2552.35419 0.49618
2550.30576 0.49898
2548.25732 0.50070
2546.20888 0.50052
2544.16044 0.49936
2542.11200 0.49814
2540.06356 0.49841
2538.01513 0.49969
2535.96669 0.49989
2533.91825 0.49894
2531.86981 0.49685
2529.82137 0.49488
2527.77293 0.49546
2525.72450 0.49655
2523.67606 0.49430
2521.62762 0.49123
2519.57918 0.49017
2517.53074 0.48996
2515.48230 0.49052
2513.43387 0.49045
2511.38543 0.48953
2509.33699 0.48923
2507.28855 0.48825
2505.24011 0.48543
2503.19167 0.48132
2501.14324 0.47862
2499.09480 0.48042
2497.04636 0.48426
2494.99792 0.48562
2492.94948 0.48628
2490.90104 0.48559
2488.85260 0.48063
2486.80417 0.47609
2484.75573 0.47580
2482.70729 0.47805
2480.65885 0.47872
2478.61041 0.47505
2476.56197 0.47116
2474.51354 0.47145
2472.46510 0.47320
2470.41666 0.47365
2468.36822 0.47398
2466.31978 0.47445
2464.27134 0.47408
2462.22291 0.47335
2460.17447 0.47394
2458.12603 0.47497
2456.07759 0.47319
2454.02915 0.46897
2451.98071 0.46656
2449.93228 0.46663
2447.88384 0.46720
2445.83540 0.46886
2443.78696 0.47042
2441.73852 0.46849
2439.69008 0.46447
2437.64165 0.46212
2435.59321 0.46198
2433.54477 0.46357
2431.49633 0.46583
2429.44789 0.46641
2427.39945 0.46498
2425.35102 0.46316
2423.30258 0.46338
2421.25414 0.46644
2419.20570 0.46908
2417.15726 0.46883
2415.10882 0.46689
2413.06039 0.46588
2411.01195 0.46637
2408.96351 0.46699
2406.91507 0.46642
2404.86663 0.46457
2402.81819 0.46408
2400.76976 0.46518
2398.72132 0.46450
2396.67288 0.46103
2394.62444 0.45767
2392.57600 0.45677
2390.52756 0.45799
2388.47913 0.45974
2386.43069 0.45975
2384.38225 0.45871
2382.33381 0.45882
2380.28537 0.46022
2378.23693 0.46125
2376.18850 0.46136
2374.14006 0.46305
2372.09162 0.46480
2370.04318 0.46285
2367.99474 0.46034
2365.94630 0.45864
2363.89787 0.45214
2361.84943 0.44975
2359.80099 0.46979
2357.75255 0.49358
2355.70411 0.48791
2353.65567 0.47345
2351.60723 0.47138
2349.55880 0.47113
2347.51036 0.46959
2345.46192 0.47228
2343.41348 0.47317
2341.36504 0.46568
2339.31660 0.46131
2337.26817 0.46202
2335.21973 0.46935
2333.17129 0.48239
2331.12285 0.48782
2329.07441 0.48164
2327.02597 0.47196
2324.97754 0.46536
2322.92910 0.46420
2320.88066 0.46466
2318.83222 0.46148
2316.78378 0.45624
2314.73534 0.45583
2312.68691 0.46097
2310.63847 0.46517
2308.59003 0.46533
2306.54159 0.46338
2304.49315 0.46226
2302.44471 0.46225
2300.39628 0.46094
2298.34784 0.45859
2296.29940 0.45751
2294.25096 0.45755
2292.20252 0.45617
2290.15408 0.45399
2288.10565 0.45425
2286.05721 0.45540
2284.00877 0.45524
2281.96033 0.45562
2279.91189 0.45596
2277.86345 0.45528
2275.81502 0.45518
2273.76658 0.45386
2271.71814 0.45032
2269.66970 0.44971
2267.62126 0.45367
2265.57282 0.45725
2263.52439 0.45869
2261.47595 0.45925
2259.42751 0.45797
2257.37907 0.45485
2255.33063 0.45172
2253.28219 0.44923
2251.23376 0.44757
2249.18532 0.44724
2247.13688 0.44896
2245.08844 0.45224
2243.04000 0.45473
2240.99156 0.45533
2238.94313 0.45448
2236.89469 0.45384
2234.84625 0.45476
2232.79781 0.45565
2230.74937 0.45531
2228.70093 0.45516
2226.65250 0.45588
2224.60406 0.45603
2222.55562 0.45490
2220.50718 0.45405
2218.45874 0.45449
2216.41030 0.45470
2214.36186 0.45459
2212.31343 0.45442
2210.26499 0.45314
2208.21655 0.45242
2206.16811 0.45305
2204.11967 0.45320
2202.07123 0.45361
2200.02280 0.45556
2197.97436 0.45649
2195.92592 0.45568
2193.87748 0.45521
2191.82904 0.45493
2189.78060 0.45578
2187.73217 0.45768
2185.68373 0.45803
2183.63529 0.45748
2181.58685 0.45673
2179.53841 0.45449
2177.48997 0.45237
2175.44154 0.45191
2173.39310 0.44988
2171.34466 0.44531
2169.29622 0.44216
2167.24778 0.44290
2165.19934 0.44638
2163.15091 0.44922
2161.10247 0.44990
2159.05403 0.44885
2157.00559 0.44623
2154.95715 0.44440
2152.90871 0.44335
2150.86028 0.44142
2148.81184 0.44265
2146.76340 0.44748
2144.71496 0.44967
2142.66652 0.44848
2140.61808 0.44866
2138.56965 0.44882
2136.52121 0.44475
2134.47277 0.44059
2132.42433 0.44229
2130.37589 0.44852
2128.32745 0.45238
2126.27902 0.45053
2124.23058 0.44756
2122.18214 0.44763
2120.13370 0.44932
2118.08526 0.45077
2116.03682 0.45236
2113.98839 0.45286
2111.93995 0.45179
2109.89151 0.45068
2107.84307 0.45074
2105.79463 0.45351
2103.74619 0.45802
2101.69776 0.46058
2099.64932 0.46014
2097.60088 0.45897
2095.55244 0.45941
2093.50400 0.46197
2091.45556 0.46469
2089.40713 0.46672
2087.35869 0.46900
2085.31025 0.47000
2083.26181 0.46912
2081.21337 0.46911
2079.16493 0.47056
2077.11649 0.47156
2075.06806 0.47130
2073.01962 0.47042
2070.97118 0.46991
2068.92274 0.46899
2066.87430 0.46701
2064.82586 0.46661
2062.77743 0.46967
2060.72899 0.47293
2058.68055 0.47388
2056.63211 0.47409
2054.58367 0.47458
2052.53523 0.47556
2050.48680 0.47792
2048.43836 0.48156
2046.38992 0.48333
2044.34148 0.48146
2042.29304 0.47867
2040.24460 0.47825
2038.19617 0.48056
2036.14773 0.48226
2034.09929 0.48174
2032.05085 0.48185
2030.00241 0.48326
2027.95397 0.48362
2025.90554 0.48310
2023.85710 0.48408
2021.80866 0.48712
2019.76022 0.48863
2017.71178 0.48556
2015.66334 0.48077
2013.61491 0.47702
2011.56647 0.47439
2009.51803 0.47503
2007.46959 0.47890
2005.42115 0.48207
2003.37271 0.48262
2001.32428 0.48095
1999.27584 0.47935
1997.22740 0.47930
1995.17896 0.47979
1993.13052 0.48093
1991.08208 0.48255
1989.03365 0.48208
1986.98521 0.47900
1984.93677 0.47595
1982.88833 0.47508
1980.83989 0.47625
1978.79145 0.47718
1976.74302 0.47598
1974.69458 0.47382
1972.64614 0.47271
1970.59770 0.47122
1968.54926 0.46926
1966.50082 0.47116
1964.45239 0.47509
1962.40395 0.47637
1960.35551 0.47620
1958.30707 0.47544
1956.25863 0.47345
1954.21019 0.47196
1952.16176 0.47259
1950.11332 0.47504
1948.06488 0.47699
1946.01644 0.47670
1943.96800 0.47530
1941.91956 0.47445
1939.87112 0.47666
1937.82269 0.48116
1935.77425 0.48420
1933.72581 0.48453
1931.67737 0.48402
1929.62893 0.48418
1927.58049 0.48599
1925.53206 0.49017
1923.48362 0.49377
1921.43518 0.49312
1919.38674 0.49167
1917.33830 0.49128
1915.28986 0.48975
1913.24143 0.48944
1911.19299 0.49121
1909.14455 0.49160
1907.09611 0.49090
1905.04767 0.49313
1902.99923 0.49661
1900.95080 0.49663
1898.90236 0.49388
1896.85392 0.49234
1894.80548 0.49427
1892.75704 0.49793
1890.70860 0.49927
1888.66017 0.49772
1886.61173 0.49730
1884.56329 0.49806
1882.51485 0.49960
1880.46641 0.50285
1878.41797 0.50467
1876.36954 0.50498
1874.32110 0.50598
1872.27266 0.50562
1870.22422 0.50322
1868.17578 0.50293
1866.12734 0.50504
1864.07891 0.50485
1862.03047 0.50373
1859.98203 0.50491
1857.93359 0.50632
1855.88515 0.50571
1853.83671 0.50536
1851.78828 0.50599
1849.73984 0.50695
1847.69140 0.50821
1845.64296 0.50949
1843.59452 0.51066
1841.54608 0.51173
1839.49765 0.51348
1837.44921 0.51605
1835.40077 0.51689
1833.35233 0.51400
1831.30389 0.51063
1829.25545 0.51327
1827.20702 0.51902
1825.15858 0.52036
1823.11014 0.51886
1821.06170 0.51788
1819.01326 0.51722
1816.96482 0.51593
1814.91639 0.51431
1812.86795 0.51254
1810.81951 0.51277
1808.77107 0.51738
1806.72263 0.52248
1804.67419 0.52464
1802.62575 0.52463
1800.57732 0.52308
1798.52888 0.51960
1796.48044 0.51971
1794.43200 0.52565
1792.38356 0.52906
1790.33512 0.52789
1788.28669 0.53103
1786.23825 0.53502
1784.18981 0.53335
1782.14137 0.52963
1780.09293 0.53107
1778.04449 0.53404
1775.99606 0.53360
1773.94762 0.53838
1771.89918 0.55283
1769.85074 0.55685
1767.80230 0.55277
1765.75386 0.55282
1763.70543 0.55611
1761.65699 0.55917
1759.60855 0.56318
1757.56011 0.57322
1755.51167 0.58769
1753.46323 0.60067
1751.41480 0.61444
1749.36636 0.62890
1747.31792 0.64025
1745.26948 0.65188
1743.22104 0.66409
1741.17260 0.67000
1739.12417 0.66003
1737.07573 0.63706
1735.02729 0.59637
1732.97885 0.53107
1730.93041 0.48278
1728.88197 0.44792
1726.83354 0.41959
1724.78510 0.39897
1722.73666 0.38611
1720.68822 0.38100
1718.63978 0.38577
1716.59134 0.40027
1714.54291 0.41079
1712.49447 0.41750
1710.44603 0.42169
1708.39759 0.42416
1706.34915 0.42762
1704.30071 0.43324
1702.25228 0.43991
1700.20384 0.44874
1698.15540 0.45492
1696.10696 0.45578
1694.05852 0.45341
1692.01008 0.45336
1689.96165 0.45829
1687.91321 0.46339
1685.86477 0.46285
1683.81633 0.45732
1681.76789 0.45705
1679.71945 0.46156
1677.67102 0.46639
1675.62258 0.46568
1673.57414 0.45735
1671.52570 0.45091
1669.47726 0.45047
1667.42882 0.45424
1665.38038 0.45872
1663.33195 0.46036
1661.28351 0.45665
1659.23507 0.45350
1657.18663 0.45246
1655.13819 0.45156
1653.08975 0.45463
1651.04132 0.45940
1648.99288 0.45708
1646.94444 0.44988
1644.89600 0.45076
1642.84756 0.45791
1640.79912 0.46132
1638.75069 0.46198
1636.70225 0.46475
1634.65381 0.46590
1632.60537 0.46544
1630.55693 0.46687
1628.50849 0.46900
1626.46006 0.47243
1624.41162 0.47762
1622.36318 0.47848
1620.31474 0.47642
1618.26630 0.47522
1616.21786 0.47277
1614.16943 0.47444
1612.12099 0.48040
1610.07255 0.48612
1608.02411 0.48868
1605.97567 0.49022
1603.92723 0.49260
1601.87880 0.49321
1599.83036 0.49150
1597.78192 0.49096
1595.73348 0.49283
1593.68504 0.49483
1591.63660 0.49588
1589.58817 0.49611
1587.53973 0.49597
1585.49129 0.49615
1583.44285 0.49605
1581.39441 0.49677
1579.34597 0.50088
1577.29754 0.50486
1575.24910 0.50340
1573.20066 0.50632
1571.15222 0.51314
1569.10378 0.51467
1567.05534 0.51275
1565.00691 0.51323
1562.95847 0.51377
1560.91003 0.51615
1558.86159 0.52181
1556.81315 0.51764
1554.76471 0.51243
1552.71628 0.51277
1550.66784 0.51664
1548.61940 0.51781
1546.57096 0.51559
1544.52252 0.51378
1542.47408 0.51762
1540.42565 0.52377
1538.37721 0.51326
1536.32877 0.50641
1534.28033 0.50724
1532.23189 0.50842
1530.18345 0.50853
1528.13501 0.51203
1526.08658 0.51707
1524.03814 0.52150
1521.98970 0.52381
1519.94126 0.51894
1517.89282 0.51757
1515.84438 0.52392
1513.79595 0.52825
1511.74751 0.53129
1509.69907 0.54227
1507.65063 0.55857
1505.60219 0.54509
1503.55375 0.53614
1501.50532 0.53987
1499.45688 0.54485
1497.40844 0.54540
1495.36000 0.54686
1493.31156 0.55242
1491.26312 0.55901
1489.21469 0.56061
1487.16625 0.55372
1485.11781 0.54761
1483.06937 0.54556
1481.02093 0.54522
1478.97249 0.54274
1476.92406 0.53725
1474.87562 0.52942
1472.82718 0.51971
1470.77874 0.51254
1468.73030 0.50721
1466.68186 0.50135
1464.63343 0.49626
1462.58499 0.49522
1460.53655 0.49841
1458.48811 0.50250
1456.43967 0.49794
1454.39123 0.49095
1452.34280 0.48886
1450.29436 0.49084
1448.24592 0.49281
1446.19748 0.48554
1444.14904 0.47424
1442.10060 0.46934
1440.05217 0.47197
1438.00373 0.47710
1435.95529 0.47753
1433.90685 0.47464
1431.85841 0.47534
1429.80997 0.47670
1427.76154 0.47486
1425.71310 0.47423
1423.66466 0.47599
1421.61622 0.48037
1419.56778 0.48815
1417.51934 0.48654
1415.47091 0.47883
1413.42247 0.47880
1411.37403 0.48274
1409.32559 0.48353
1407.27715 0.48352
1405.22871 0.48609
1403.18028 0.48821
1401.13184 0.48840
1399.08340 0.49140
1397.03496 0.49976
1394.98652 0.50406
1392.93808 0.50058
1390.88965 0.49797
1388.84121 0.49654
1386.79277 0.49052
1384.74433 0.48426
1382.69589 0.48433
1380.64745 0.48633
1378.59901 0.48579
1376.55058 0.48640
1374.50214 0.49002
1372.45370 0.49027
1370.40526 0.48652
1368.35682 0.48246
1366.30838 0.47899
1364.25995 0.47668
1362.21151 0.47684
1360.16307 0.47971
1358.11463 0.48404
1356.06619 0.48777
1354.01775 0.48892
1351.96932 0.48837
1349.92088 0.48805
1347.87244 0.48960
1345.82400 0.49232
1343.77556 0.49311
1341.72712 0.49208
1339.67869 0.49266
1337.63025 0.49489
1335.58181 0.49402
1333.53337 0.49065
1331.48493 0.48991
1329.43649 0.49214
1327.38806 0.49331
1325.33962 0.49166
1323.29118 0.48809
1321.24274 0.48514
1319.19430 0.48454
1317.14586 0.48753
1315.09743 0.49333
1313.04899 0.49671
1311.00055 0.49466
1308.95211 0.49233
1306.90367 0.49343
1304.85523 0.49438
1302.80680 0.49290
1300.75836 0.49193
1298.70992 0.49251
1296.66148 0.49185
1294.61304 0.49117
1292.56460 0.49429
1290.51617 0.49959
1288.46773 0.50296
1286.41929 0.50309
1284.37085 0.50270
1282.32241 0.50496
1280.27397 0.50776
1278.22554 0.50779
1276.17710 0.50699
1274.12866 0.50423
1272.08022 0.49489
1270.03178 0.48369
1267.98334 0.47768
1265.93491 0.47487
1263.88647 0.47182
1261.83803 0.46818
1259.78959 0.46567
1257.74115 0.46689
1255.69271 0.47203
1253.64428 0.47839
1251.59584 0.48340
1249.54740 0.48634
1247.49896 0.48561
1245.45052 0.48086
1243.40208 0.47391
1241.35364 0.46439
1239.30521 0.45363
1237.25677 0.44605
1235.20833 0.44266
1233.15989 0.44028
1231.11145 0.43794
1229.06301 0.43782
1227.01458 0.44045
1224.96614 0.44422
1222.91770 0.44987
1220.86926 0.45795
1218.82082 0.46497
1216.77238 0.47095
1214.72395 0.47914
1212.67551 0.48865
1210.62707 0.49883
1208.57863 0.51110
1206.53019 0.52451
1204.48175 0.53537
1202.43332 0.53995
1200.38488 0.53912
1198.33644 0.53738
1196.28800 0.53621
1194.23956 0.53419
1192.19112 0.53179
1190.14269 0.52702
1188.09425 0.51585
1186.04581 0.50054
1183.99737 0.48357
1181.94893 0.46569
1179.90049 0.45131
1177.85206 0.44114
1175.80362 0.42941
1173.75518 0.41459
1171.70674 0.40196
1169.65830 0.39424
1167.60986 0.38945
1165.56143 0.38596
1163.51299 0.38268
1161.46455 0.37591
1159.41611 0.36319
1157.36767 0.34747
1155.31923 0.33153
1153.27080 0.31605
1151.22236 0.30032
1149.17392 0.28243
1147.12548 0.26554
1145.07704 0.25483
1143.02860 0.24965
1140.98017 0.24620
1138.93173 0.24253
1136.88329 0.24089
1134.83485 0.24312
1132.78641 0.24709
1130.73797 0.25048
1128.68954 0.25269
1126.64110 0.25366
1124.59266 0.25384
1122.54422 0.25400
1120.49578 0.25375
1118.44734 0.25329
1116.39891 0.25371
1114.35047 0.25456
1112.30203 0.25595
1110.25359 0.25843
1108.20515 0.25953
1106.15671 0.26094
1104.10827 0.26626
1102.05984 0.27156
1100.01140 0.27518
1097.96296 0.28047
1095.91452 0.28647
1093.86608 0.28826
1091.81764 0.28586
1089.76921 0.28547
1087.72077 0.28935
1085.67233 0.29373
1083.62389 0.29670
1081.57545 0.30015
1079.52701 0.30330
1077.47858 0.30257
1075.43014 0.29710
1073.38170 0.28882
1071.33326 0.28127
1069.28482 0.27676
1067.23638 0.27501
1065.18795 0.27375
1063.13951 0.26728
1061.09107 0.25728
1059.04263 0.25116
1056.99419 0.24831
1054.94575 0.24546
1052.89732 0.24136
1050.84888 0.23781
1048.80044 0.23791
1046.75200 0.23926
1044.70356 0.23623
1042.65512 0.22888
1040.60669 0.22154
1038.55825 0.21612
1036.50981 0.21335
1034.46137 0.21258
1032.41293 0.21095
1030.36449 0.20831
1028.31606 0.20610
1026.26762 0.20435
1024.21918 0.20464
1022.17074 0.20324
1020.12230 0.19411
1018.07386 0.18365
1016.02543 0.18292
1013.97699 0.18812
1011.92855 0.19136
1009.88011 0.19681
1007.83167 0.20511
1005.78323 0.20998
1003.73480 0.20875
1001.68636 0.20448
999.63792 0.20068
997.58948 0.19445
995.54104 0.18303
993.49260 0.16986
991.44417 0.16091
989.39573 0.16050
987.34729 0.16760
985.29885 0.17495
983.25041 0.17745
981.20197 0.17862
979.15354 0.18418
977.10510 0.19013
975.05666 0.19228
973.00822 0.19271
970.95978 0.18800
968.91134 0.18076
966.86290 0.17764
964.81447 0.17441
962.76603 0.16801
960.71759 0.16127
958.66915 0.15732
956.62071 0.15687
954.57227 0.15495
952.52384 0.15107
950.47540 0.15029
948.42696 0.15182
946.37852 0.15221
944.33008 0.14959
942.28164 0.14579
940.23321 0.14533
938.18477 0.15215
936.13633 0.16645
934.08789 0.18200
932.03945 0.19768
929.99101 0.21884
927.94258 0.24584
925.89414 0.27305
923.84570 0.29563
921.79726 0.31762
919.74882 0.34376
917.70038 0.36949
915.65195 0.38859
913.60351 0.40319
911.55507 0.41620
909.50663 0.42416
907.45819 0.42678
905.40975 0.42712
903.36132 0.42726
901.31288 0.42738
899.26444 0.42557
897.21600 0.42057
895.16756 0.41267
893.11912 0.40508
891.07069 0.40151
889.02225 0.40104
886.97381 0.39941
884.92537 0.39593
882.87693 0.39089
880.82849 0.38180
878.78006 0.36964
876.73162 0.35939
874.68318 0.35376
872.63474 0.35142
870.58630 0.34938
868.53786 0.34452
866.48943 0.33650
864.44099 0.32734
862.39255 0.31661
860.34411 0.30686
858.29567 0.30413
856.24723 0.30694
854.19880 0.31210
852.15036 0.31875
850.10192 0.32519
848.05348 0.32972
846.00504 0.33012
843.95660 0.33359
841.90817 0.34824
839.85973 0.36729
837.81129 0.38434
835.76285 0.40466
833.71441 0.42882
831.66597 0.45305
829.61753 0.47924
827.56910 0.50715
825.52066 0.53541
823.47222 0.56313
821.42378 0.58248
819.37534 0.59207
817.32690 0.60163
815.27847 0.61190
813.23003 0.62223
811.18159 0.63572
809.13315 0.65013
807.08471 0.65949
805.03627 0.65897
802.98784 0.65370
800.93940 0.65223
798.89096 0.65361
796.84252 0.65209
794.79408 0.64920
792.74564 0.64803
790.69721 0.64475
788.64877 0.63716
786.60033 0.62728
784.55189 0.61590
782.50345 0.60120
780.45501 0.58748
778.40658 0.57915
776.35814 0.57097
774.30970 0.56384
772.26126 0.56085
770.21282 0.55436
768.16438 0.54166
766.11595 0.52864
764.06751 0.51976
762.01907 0.51260
759.97063 0.50219
757.92219 0.49017
755.87375 0.47939
753.82532 0.46828
751.77688 0.45740
749.72844 0.44544
747.68000 0.42394
745.63156 0.40167
743.58312 0.39561
741.53469 0.40354
739.48625 0.40798
737.43781 0.39187
735.38937 0.37189
733.34093 0.37362
731.29249 0.38121
729.24406 0.37687
727.19562 0.37339
725.14718 0.36930
723.09874 0.36594
721.05030 0.37912
719.00186 0.39158
716.95343 0.39226
714.90499 0.39801
712.85655 0.39839
710.80811 0.38361
708.75967 0.37992
706.71123 0.38955
704.66280 0.38586
702.61436 0.37901
700.56592 0.38065
698.51748 0.37755
696.46904 0.38685
694.42060 0.42131
692.37216 0.43187
690.32373 0.39283
688.27529 0.36584
686.22685 0.38604
684.17841 0.40240
682.12997 0.39189
680.08153 0.39472
678.03310 0.40540
675.98466 0.39555
673.93622 0.37724
671.88778 0.37206
669.83934 0.38117
667.79090 0.39698
665.74247 0.41479
663.69403 0.43280
661.64559 0.43800
659.59715 0.41145
657.54871 0.36342
655.50027 0.31956
653.45184 0.28777
651.40340 0.26751
649.35496 0.26726
647.30652 0.28211
645.25808 0.31099
643.20964 0.36069
641.16121 0.38627
639.11277 0.35361
637.06433 0.30520
635.01589 0.29871
632.96745 0.32800
630.91901 0.30548
628.87058 0.22914
626.82214 0.20339
624.77370 0.25186
622.72526 0.28257
620.67682 0.25286
618.62838 0.22233
616.57995 0.23752
614.53151 0.27804
612.48307 0.30343
610.43463 0.28021
608.38619 0.22981
606.33775 0.20943
604.28932 0.21024
602.24088 0.23085
600.19244 0.28313
598.14400 0.26924
