3996.50324 0.09471
3994.45480 0.09740
3992.40636 0.09821
3990.35792 0.09763
3988.30948 0.09790
3986.26104 0.09806
3984.21261 0.09722
3982.16417 0.09580
3980.11573 0.09525
3978.06729 0.09666
3976.01885 0.09729
3973.97041 0.09593
3971.92198 0.09565
3969.87354 0.09621
3967.82510 0.09530
3965.77666 0.09432
3963.72822 0.09456
3961.67978 0.09505
3959.63135 0.09653
3957.58291 0.09772
3955.53447 0.09664
3953.48603 0.09615
3951.43759 0.09678
3949.38915 0.09666
3947.34072 0.09686
3945.29228 0.09751
3943.24384 0.09758
3941.19540 0.09789
3939.14696 0.09792
3937.09852 0.09604
3935.05009 0.09428
3933.00165 0.09474
3930.95321 0.09640
3928.90477 0.09850
3926.85633 0.10122
3924.80789 0.10170
3922.75946 0.09845
3920.71102 0.09728
3918.66258 0.09957
3916.61414 0.09976
3914.56570 0.09808
3912.51726 0.09899
3910.46883 0.10172
3908.42039 0.10431
3906.37195 0.10639
3904.32351 0.10638
3902.27507 0.10343
3900.22663 0.10020
3898.17820 0.09900
3896.12976 0.10074
3894.08132 0.10344
3892.03288 0.10212
3889.98444 0.09814
3887.93600 0.09883
3885.88756 0.10056
3883.83913 0.10008
3881.79069 0.09981
3879.74225 0.09841
3877.69381 0.09857
3875.64537 0.10057
3873.59693 0.09982
3871.54850 0.09701
3869.50006 0.09520
3867.45162 0.09461
3865.40318 0.09400
3863.35474 0.09371
3861.30630 0.09571
3859.25787 0.09736
3857.20943 0.09738
3855.16099 0.09615
3853.11255 0.09010
3851.06411 0.08651
3849.01567 0.08967
3846.96724 0.09365
3844.91880 0.09611
3842.87036 0.09592
3840.82192 0.09381
3838.77348 0.09044
3836.72504 0.08685
3834.67661 0.08696
3832.62817 0.08813
3830.57973 0.08882
3828.53129 0.09036
3826.48285 0.09059
3824.43441 0.09017
3822.38598 0.09058
3820.33754 0.08924
3818.28910 0.09024
3816.24066 0.09017
3814.19222 0.08667
3812.14378 0.08707
3810.09535 0.08955
3808.04691 0.08929
3805.99847 0.08685
3803.95003 0.08870
3801.90159 0.09045
3799.85315 0.08713
3797.80472 0.08556
3795.75628 0.08431
3793.70784 0.08295
3791.65940 0.08252
3789.61096 0.08251
3787.56252 0.08333
3785.51409 0.08377
3783.46565 0.08309
3781.41721 0.08254
3779.36877 0.08119
3777.32033 0.08106
3775.27189 0.08339
3773.22346 0.08500
3771.17502 0.08492
3769.12658 0.08270
3767.07814 0.08042
3765.02970 0.07953
3762.98126 0.07878
3760.93283 0.07888
3758.88439 0.07930
3756.83595 0.07891
3754.78751 0.07883
3752.73907 0.07938
3750.69063 0.07697
3748.64219 0.07338
3746.59376 0.07419
3744.54532 0.07359
3742.49688 0.07041
3740.44844 0.06876
3738.40000 0.06702
3736.35156 0.06450
3734.30313 0.06191
3732.25469 0.05991
3730.20625 0.06034
3728.15781 0.06240
3726.10937 0.06352
3724.06093 0.06306
3722.01250 0.06284
3719.96406 0.06343
3717.91562 0.06421
3715.86718 0.06439
3713.81874 0.06463
3711.77030 0.06377
3709.72187 0.05878
3707.67343 0.05615
3705.62499 0.05747
3703.57655 0.05784
3701.52811 0.05393
3699.47967 0.05069
3697.43124 0.05089
3695.38280 0.05144
3693.33436 0.05169
3691.28592 0.05133
3689.23748 0.04577
3687.18904 0.04129
3685.14061 0.04301
3683.09217 0.04490
3681.04373 0.04568
3678.99529 0.04611
3676.94685 0.04338
3674.89841 0.03668
3672.84998 0.03452
3670.80154 0.03184
3668.75310 0.02605
3666.70466 0.02539
3664.65622 0.02607
3662.60778 0.02474
3660.55935 0.02248
3658.51091 0.01976
3656.46247 0.01528
3654.41403 0.01211
3652.36559 0.01330
3650.31715 0.01509
3648.26872 0.00881
3646.22028 0.00087
3644.17184 -0.00174
3642.12340 -0.00198
3640.07496 -0.00307
3638.02652 -0.00612
3635.97809 -0.01038
3633.92965 -0.01389
3631.88121 -0.01386
3629.83277 -0.01426
3627.78433 -0.02329
3625.73589 -0.02973
3623.68746 -0.03020
3621.63902 -0.02886
3619.59058 -0.02812
3617.54214 -0.02949
3615.49370 -0.03305
3613.44526 -0.03729
3611.39682 -0.04009
3609.34839 -0.04348
3607.29995 -0.04899
3605.25151 -0.05195
3603.20307 -0.05266
3601.15463 -0.05453
3599.10619 -0.05731
3597.05776 -0.06016
3595.00932 -0.06337
3592.96088 -0.06587
3590.91244 -0.06732
3588.86400 -0.06853
3586.81556 -0.07085
3584.76713 -0.07548
3582.71869 -0.08079
3580.67025 -0.08536
3578.62181 -0.08906
3576.57337 -0.09285
3574.52493 -0.09591
3572.47650 -0.09620
3570.42806 -0.09597
3568.37962 -0.09857
3566.33118 -0.10268
3564.28274 -0.10406
3562.23430 -0.10505
3560.18587 -0.10741
3558.13743 -0.11025
3556.08899 -0.11269
3554.04055 -0.11368
3551.99211 -0.11355
3549.94367 -0.11412
3547.89524 -0.11467
3545.84680 -0.11553
3543.79836 -0.11926
3541.74992 -0.12223
3539.70148 -0.12159
3537.65304 -0.12092
3535.60461 -0.12307
3533.55617 -0.12685
3531.50773 -0.13017
3529.45929 -0.13121
3527.41085 -0.13140
3525.36241 -0.13298
3523.31398 -0.13411
3521.26554 -0.13640
3519.21710 -0.14156
3517.16866 -0.14567
3515.12022 -0.14636
3513.07178 -0.14610
3511.02335 -0.14616
3508.97491 -0.14636
3506.92647 -0.14805
3504.87803 -0.15049
3502.82959 -0.15258
3500.78115 -0.15414
3498.73272 -0.15372
3496.68428 -0.15115
3494.63584 -0.14890
3492.58740 -0.14866
3490.53896 -0.14936
3488.49052 -0.15116
3486.44209 -0.15404
3484.39365 -0.15514
3482.34521 -0.15385
3480.29677 -0.15243
3478.24833 -0.15282
3476.19989 -0.15587
3474.15146 -0.16041
3472.10302 -0.16301
3470.05458 -0.16185
3468.00614 -0.15869
3465.95770 -0.15547
3463.90926 -0.15545
3461.86082 -0.15951
3459.81239 -0.16130
3457.76395 -0.16007
3455.71551 -0.16009
3453.66707 -0.15977
3451.61863 -0.15899
3449.57019 -0.16010
3447.52176 -0.16250
3445.47332 -0.16435
3443.42488 -0.16436
3441.37644 -0.16300
3439.32800 -0.16159
3437.27956 -0.16126
3435.23113 -0.16349
3433.18269 -0.16735
3431.13425 -0.16864
3429.08581 -0.16771
3427.03737 -0.16782
3424.98893 -0.16830
3422.94050 -0.16831
3420.89206 -0.16778
3418.84362 -0.16704
3416.79518 -0.16723
3414.74674 -0.16915
3412.69830 -0.17213
3410.64987 -0.17399
3408.60143 -0.17343
3406.55299 -0.17155
3404.50455 -0.17081
3402.45611 -0.17097
3400.40767 -0.16949
3398.35924 -0.16871
3396.31080 -0.17207
3394.26236 -0.17575
3392.21392 -0.17649
3390.16548 -0.17621
3388.11704 -0.17578
3386.06861 -0.17591
3384.02017 -0.17790
3381.97173 -0.17902
3379.92329 -0.17725
3377.87485 -0.17550
3375.82641 -0.17523
3373.77798 -0.17667
3371.72954 -0.17937
3369.68110 -0.18016
3367.63266 -0.17990
3365.58422 -0.18175
3363.53578 -0.18339
3361.48735 -0.18384
3359.43891 -0.18447
3357.39047 -0.18328
3355.34203 -0.18062
3353.29359 -0.18082
3351.24515 -0.18288
3349.19672 -0.18155
3347.14828 -0.17974
3345.09984 -0.18162
3343.05140 -0.18370
3341.00296 -0.18458
3338.95452 -0.18600
3336.90609 -0.18696
3334.85765 -0.18532
3332.80921 -0.18260
3330.76077 -0.18214
3328.71233 -0.18436
3326.66389 -0.18797
3324.61545 -0.19058
3322.56702 -0.19101
3320.51858 -0.19042
3318.47014 -0.18871
3316.42170 -0.18758
3314.37326 -0.19005
3312.32482 -0.19299
3310.27639 -0.19287
3308.22795 -0.19239
3306.17951 -0.19227
3304.13107 -0.19054
3302.08263 -0.18888
3300.03419 -0.19045
3297.98576 -0.19506
3295.93732 -0.19757
3293.88888 -0.19520
3291.84044 -0.19369
3289.79200 -0.19537
3287.74356 -0.19606
3285.69513 -0.19684
3283.64669 -0.19765
3281.59825 -0.19626
3279.54981 -0.19630
3277.50137 -0.19840
3275.45293 -0.19874
3273.40450 -0.19744
3271.35606 -0.19726
3269.30762 -0.19830
3267.25918 -0.19899
3265.21074 -0.20019
3263.16230 -0.20159
3261.11387 -0.20129
3259.06543 -0.20056
3257.01699 -0.20019
3254.96855 -0.20041
3252.92011 -0.20257
3250.87167 -0.20514
3248.82324 -0.20621
3246.77480 -0.20570
3244.72636 -0.20455
3242.67792 -0.20391
3240.62948 -0.20352
3238.58104 -0.20325
3236.53261 -0.20394
3234.48417 -0.20597
3232.43573 -0.20798
3230.38729 -0.20887
3228.33885 -0.20938
3226.29041 -0.20962
3224.24198 -0.20890
3222.19354 -0.20832
3220.14510 -0.20911
3218.09666 -0.20949
3216.04822 -0.20872
3213.99978 -0.20926
3211.95135 -0.21217
3209.90291 -0.21569
3207.85447 -0.21730
3205.80603 -0.21520
3203.75759 -0.21175
3201.70915 -0.21114
3199.66072 -0.21328
3197.61228 -0.21562
3195.56384 -0.21629
3193.51540 -0.21503
3191.46696 -0.21461
3189.41852 -0.21679
3187.37008 -0.21909
3185.32165 -0.22038
3183.27321 -0.22167
3181.22477 -0.22173
3179.17633 -0.21982
3177.12789 -0.21796
3175.07945 -0.21876
3173.03102 -0.22149
3170.98258 -0.22348
3168.93414 -0.22404
3166.88570 -0.22337
3164.83726 -0.22198
3162.78882 -0.22067
3160.74039 -0.22001
3158.69195 -0.22100
3156.64351 -0.22263
3154.59507 -0.22352
3152.54663 -0.22333
3150.49819 -0.22149
3148.44976 -0.22053
3146.40132 -0.22254
3144.35288 -0.22480
3142.30444 -0.22496
3140.25600 -0.22401
3138.20756 -0.22267
3136.15913 -0.22123
3134.11069 -0.22092
3132.06225 -0.22177
3130.01381 -0.22284
3127.96537 -0.22316
3125.91693 -0.22311
3123.86850 -0.22247
3121.82006 -0.22080
3119.77162 -0.21993
3117.72318 -0.22014
3115.67474 -0.21978
3113.62630 -0.21895
3111.57787 -0.21942
3109.52943 -0.22076
3107.48099 -0.22054
3105.43255 -0.21876
3103.38411 -0.21755
3101.33567 -0.21799
3099.28724 -0.21884
3097.23880 -0.21875
3095.19036 -0.21869
3093.14192 -0.21885
3091.09348 -0.21730
3089.04504 -0.21516
3086.99661 -0.21453
3084.94817 -0.21411
3082.89973 -0.21247
3080.85129 -0.21179
3078.80285 -0.21350
3076.75441 -0.21418
3074.70598 -0.21194
3072.65754 -0.20930
3070.60910 -0.20895
3068.56066 -0.21043
3066.51222 -0.21083
3064.46378 -0.20908
3062.41535 -0.20731
3060.36691 -0.20676
3058.31847 -0.20622
3056.27003 -0.20452
3054.22159 -0.20224
3052.17315 -0.20164
3050.12471 -0.20296
3048.07628 -0.20365
3046.02784 -0.20271
3043.97940 -0.20165
3041.93096 -0.20154
3039.88252 -0.20103
3037.83408 -0.19870
3035.78565 -0.19607
3033.73721 -0.19497
3031.68877 -0.19486
3029.64033 -0.19467
3027.59189 -0.19506
3025.54345 -0.19554
3023.49502 -0.19467
3021.44658 -0.19454
3019.39814 -0.19590
3017.34970 -0.19599
3015.30126 -0.19416
3013.25282 -0.19167
3011.20439 -0.19012
3009.15595 -0.19014
3007.10751 -0.18937
3005.05907 -0.18734
3003.01063 -0.18679
3000.96219 -0.18826
2998.91376 -0.19102
2996.86532 -0.19303
2994.81688 -0.19125
2992.76844 -0.18703
2990.72000 -0.18354
2988.67156 -0.18255
2986.62313 -0.18440
2984.57469 -0.18618
2982.52625 -0.18624
2980.47781 -0.18577
2978.42937 -0.18484
2976.38093 -0.18356
2974.33250 -0.18222
2972.28406 -0.18118
2970.23562 -0.18109
2968.18718 -0.18140
2966.13874 -0.18135
2964.09030 -0.18052
2962.04187 -0.17996
2959.99343 -0.18097
2957.94499 -0.18140
2955.89655 -0.17975
2953.84811 -0.17834
2951.79967 -0.17845
2949.75124 -0.17888
2947.70280 -0.17797
2945.65436 -0.17603
2943.60592 -0.17507
2941.55748 -0.17549
2939.50904 -0.17697
2937.46061 -0.17871
2935.41217 -0.17882
2933.36373 -0.17711
2931.31529 -0.17554
2929.26685 -0.17520
2927.21841 -0.17523
2925.16998 -0.17606
2923.12154 -0.17758
2921.07310 -0.17699
2919.02466 -0.17517
2916.97622 -0.17406
2914.92778 -0.17301
2912.87934 -0.17226
2910.83091 -0.17259
2908.78247 -0.17336
2906.73403 -0.17255
2904.68559 -0.17092
2902.63715 -0.17031
2900.58871 -0.16947
2898.54028 -0.16856
2896.49184 -0.16904
2894.44340 -0.16894
2892.39496 -0.16662
2890.34652 -0.16468
2888.29808 -0.16479
2886.24965 -0.16495
2884.20121 -0.16425
2882.15277 -0.16439
2880.10433 -0.16484
2878.05589 -0.16416
2876.00745 -0.16343
2873.95902 -0.16301
2871.91058 -0.16204
2869.86214 -0.16130
2867.81370 -0.16067
2865.76526 -0.15860
2863.71682 -0.15678
2861.66839 -0.15699
2859.61995 -0.15768
2857.57151 -0.15856
2855.52307 -0.15939
2853.47463 -0.15918
2851.42619 -0.15879
2849.37776 -0.15781
2847.32932 -0.15571
2845.28088 -0.15362
2843.23244 -0.15205
2841.18400 -0.15125
2839.13556 -0.14994
2837.08713 -0.14738
2835.03869 -0.14536
2832.99025 -0.14504
2830.94181 -0.14509
2828.89337 -0.14405
2826.84493 -0.14319
2824.79650 -0.14362
2822.74806 -0.14396
2820.69962 -0.14317
2818.65118 -0.14180
2816.60274 -0.14075
2814.55430 -0.13993
2812.50587 -0.13856
2810.45743 -0.13763
2808.40899 -0.13829
2806.36055 -0.13930
2804.31211 -0.13865
2802.26367 -0.13617
2800.21524 -0.13391
2798.16680 -0.13301
2796.11836 -0.13272
2794.06992 -0.13275
2792.02148 -0.13288
2789.97304 -0.13273
2787.92461 -0.13317
2785.87617 -0.13403
2783.82773 -0.13374
2781.77929 -0.13228
2779.73085 -0.12998
2777.68241 -0.12717
2775.63397 -0.12512
2773.58554 -0.12500
2771.53710 -0.12623
2769.48866 -0.12760
2767.44022 -0.12806
2765.39178 -0.12760
2763.34334 -0.12702
2761.29491 -0.12601
2759.24647 -0.12492
2757.19803 -0.12421
2755.14959 -0.12381
2753.10115 -0.12429
2751.05271 -0.12475
2749.00428 -0.12425
2746.95584 -0.12359
2744.90740 -0.12291
2742.85896 -0.12201
2740.81052 -0.12175
2738.76208 -0.12205
2736.71365 -0.12252
2734.66521 -0.12295
2732.61677 -0.12264
2730.56833 -0.12162
2728.51989 -0.12048
2726.47145 -0.11977
2724.42302 -0.11912
2722.37458 -0.11849
2720.32614 -0.11884
2718.27770 -0.11960
2716.22926 -0.11969
2714.18082 -0.11876
2712.13239 -0.11717
2710.08395 -0.11551
2708.03551 -0.11466
2705.98707 -0.11562
2703.93863 -0.11675
2701.89019 -0.11647
2699.84176 -0.11537
2697.79332 -0.11437
2695.74488 -0.11380
2693.69644 -0.11299
2691.64800 -0.11223
2689.59956 -0.11182
2687.55113 -0.11095
2685.50269 -0.10999
2683.45425 -0.10966
2681.40581 -0.10918
2679.35737 -0.10879
2677.30893 -0.10967
2675.26050 -0.11016
2673.21206 -0.10865
2671.16362 -0.10650
2669.11518 -0.10513
2667.06674 -0.10489
2665.01830 -0.10507
2662.96987 -0.10423
2660.92143 -0.10316
2658.87299 -0.10312
2656.82455 -0.10259
2654.77611 -0.10041
2652.72767 -0.09839
2650.67924 -0.09831
2648.63080 -0.09858
2646.58236 -0.09669
2644.53392 -0.09376
2642.48548 -0.09278
2640.43704 -0.09360
2638.38860 -0.09342
2636.34017 -0.09166
2634.29173 -0.09060
2632.24329 -0.09112
2630.19485 -0.09215
2628.14641 -0.09250
2626.09797 -0.09093
2624.04954 -0.08779
2622.00110 -0.08522
2619.95266 -0.08370
2617.90422 -0.08231
2615.85578 -0.08210
2613.80734 -0.08344
2611.75891 -0.08395
2609.71047 -0.08236
2607.66203 -0.08042
2605.61359 -0.08003
2603.56515 -0.08001
2601.51671 -0.07875
2599.46828 -0.07673
2597.41984 -0.07486
2595.37140 -0.07453
2593.32296 -0.07538
2591.27452 -0.07464
2589.22608 -0.07253
2587.17765 -0.07092
2585.12921 -0.06984
2583.08077 -0.06927
2581.03233 -0.06884
2578.98389 -0.06843
2576.93545 -0.06767
2574.88702 -0.06617
2572.83858 -0.06432
2570.79014 -0.06267
2568.74170 -0.06203
2566.69326 -0.06213
2564.64482 -0.06240
2562.59639 -0.06268
2560.54795 -0.06249
2558.49951 -0.06155
2556.45107 -0.06015
2554.40263 -0.05911
2552.35419 -0.05938
2550.30576 -0.06024
2548.25732 -0.05922
2546.20888 -0.05730
2544.16044 -0.05729
2542.11200 -0.05789
2540.06356 -0.05767
2538.01513 -0.05778
2535.96669 -0.05825
2533.91825 -0.05857
2531.86981 -0.05850
2529.82137 -0.05771
2527.77293 -0.05709
2525.72450 -0.05773
2523.67606 -0.05934
2521.62762 -0.06060
2519.57918 -0.06045
2517.53074 -0.05957
2515.48230 -0.05936
2513.43387 -0.06005
2511.38543 -0.06062
2509.33699 -0.06054
2507.28855 -0.06035
2505.24011 -0.06028
2503.19167 -0.06073
2501.14324 -0.06111
2499.09480 -0.06012
2497.04636 -0.05931
2494.99792 -0.05994
2492.94948 -0.06044
2490.90104 -0.06052
2488.85260 -0.06160
2486.80417 -0.06318
2484.75573 -0.06382
2482.70729 -0.06350
2480.65885 -0.06300
2478.61041 -0.06335
2476.56197 -0.06479
2474.51354 -0.06584
2472.46510 -0.06566
2470.41666 -0.06560
2468.36822 -0.06605
2466.31978 -0.06571
2464.27134 -0.06438
2462.22291 -0.06278
2460.17447 -0.06176
2458.12603 -0.06240
2456.07759 -0.06404
2454.02915 -0.06444
2451.98071 -0.06354
2449.93228 -0.06272
2447.88384 -0.06185
2445.83540 -0.05973
2443.78696 -0.05744
2441.73852 -0.05787
2439.69008 -0.05976
2437.64165 -0.06010
2435.59321 -0.05910
2433.54477 -0.05782
2431.49633 -0.05686
2429.44789 -0.05621
2427.39945 -0.05565
2425.35102 -0.05513
2423.30258 -0.05430
2421.25414 -0.05380
2419.20570 -0.05365
2417.15726 -0.05334
2415.10882 -0.05309
2413.06039 -0.05204
2411.01195 -0.05071
2408.96351 -0.05090
2406.91507 -0.05151
2404.86663 -0.05038
2402.81819 -0.04835
2400.76976 -0.04770
2398.72132 -0.04801
2396.67288 -0.04801
2394.62444 -0.04789
2392.57600 -0.04742
2390.52756 -0.04677
2388.47913 -0.04692
2386.43069 -0.04758
2384.38225 -0.04756
2382.33381 -0.04594
2380.28537 -0.04410
2378.23693 -0.04549
2376.18850 -0.05111
2374.14006 -0.05674
2372.09162 -0.05766
2370.04318 -0.05575
2367.99474 -0.05550
2365.94630 -0.05363
2363.89787 -0.05031
2361.84943 -0.05588
2359.80099 -0.06110
2357.75255 -0.05436
2355.70411 -0.05069
2353.65567 -0.05374
2351.60723 -0.05495
2349.55880 -0.05360
2347.51036 -0.05115
2345.46192 -0.04833
2343.41348 -0.04922
2341.36504 -0.05492
2339.31660 -0.05613
2337.26817 -0.05242
2335.21973 -0.05268
2333.17129 -0.05592
2331.12285 -0.05654
2329.07441 -0.05482
2327.02597 -0.05172
2324.97754 -0.04740
2322.92910 -0.04559
2320.88066 -0.04668
2318.83222 -0.04774
2316.78378 -0.04859
2314.73534 -0.04837
2312.68691 -0.04679
2310.63847 -0.04494
2308.59003 -0.04348
2306.54159 -0.04345
2304.49315 -0.04422
2302.44471 -0.04390
2300.39628 -0.04296
2298.34784 -0.04269
2296.29940 -0.04308
2294.25096 -0.04359
2292.20252 -0.04395
2290.15408 -0.04413
2288.10565 -0.04404
2286.05721 -0.04345
2284.00877 -0.04227
2281.96033 -0.04159
2279.91189 -0.04201
2277.86345 -0.04218
2275.81502 -0.04188
2273.76658 -0.04257
2271.71814 -0.04399
2269.66970 -0.04423
2267.62126 -0.04342
2265.57282 -0.04318
2263.52439 -0.04295
2261.47595 -0.04178
2259.42751 -0.04076
2257.37907 -0.04100
2255.33063 -0.04204
2253.28219 -0.04254
2251.23376 -0.04203
2249.18532 -0.04090
2247.13688 -0.03984
2245.08844 -0.03962
2243.04000 -0.03995
2240.99156 -0.04024
2238.94313 -0.04060
2236.89469 -0.04076
2234.84625 -0.04027
2232.79781 -0.03956
2230.74937 -0.03939
2228.70093 -0.03953
2226.65250 -0.03917
2224.60406 -0.03872
2222.55562 -0.03863
2220.50718 -0.03806
2218.45874 -0.03698
2216.41030 -0.03617
2214.36186 -0.03551
2212.31343 -0.03523
2210.26499 -0.03579
2208.21655 -0.03607
2206.16811 -0.03578
2204.11967 -0.03615
2202.07123 -0.03680
2200.02280 -0.03668
2197.97436 -0.03652
2195.92592 -0.03677
2193.87748 -0.03675
2191.82904 -0.03650
2189.78060 -0.03627
2187.73217 -0.03640
2185.68373 -0.03668
2183.63529 -0.03585
2181.58685 -0.03501
2179.53841 -0.03569
2177.48997 -0.03596
2175.44154 -0.03520
2173.39310 -0.03537
2171.34466 -0.03687
2169.29622 -0.03868
2167.24778 -0.03889
2165.19934 -0.03706
2163.15091 -0.03600
2161.10247 -0.03709
2159.05403 -0.03890
2157.00559 -0.04030
2154.95715 -0.04109
2152.90871 -0.04209
2150.86028 -0.04316
2148.81184 -0.04265
2146.76340 -0.04138
2144.71496 -0.04091
2142.66652 -0.04056
2140.61808 -0.04023
2138.56965 -0.04107
2136.52121 -0.04304
2134.47277 -0.04461
2132.42433 -0.04432
2130.37589 -0.04239
2128.32745 -0.04080
2126.27902 -0.04074
2124.23058 -0.04118
2122.18214 -0.04163
2120.13370 -0.04255
2118.08526 -0.04321
2116.03682 -0.04264
2113.98839 -0.04165
2111.93995 -0.04128
2109.89151 -0.04135
2107.84307 -0.04182
2105.79463 -0.04228
2103.74619 -0.04151
2101.69776 -0.03967
2099.64932 -0.03873
2097.60088 -0.03870
2095.55244 -0.03798
2093.50400 -0.03723
2091.45556 -0.03743
2089.40713 -0.03789
2087.35869 -0.03775
2085.31025 -0.03780
2083.26181 -0.03823
2081.21337 -0.03775
2079.16493 -0.03691
2077.11649 -0.03685
2075.06806 -0.03686
2073.01962 -0.03582
2070.97118 -0.03488
2068.92274 -0.03534
2066.87430 -0.03625
2064.82586 -0.03625
2062.77743 -0.03498
2060.72899 -0.03321
2058.68055 -0.03252
2056.63211 -0.03304
2054.58367 -0.03326
2052.53523 -0.03413
2050.48680 -0.03607
2048.43836 -0.03635
2046.38992 -0.03531
2044.34148 -0.03543
2042.29304 -0.03583
2040.24460 -0.03572
2038.19617 -0.03595
2036.14773 -0.03599
2034.09929 -0.03632
2032.05085 -0.03752
2030.00241 -0.03841
2027.95397 -0.03879
2025.90554 -0.03976
2023.85710 -0.04145
2021.80866 -0.04256
2019.76022 -0.04314
2017.71178 -0.04433
2015.66334 -0.04529
2013.61491 -0.04565
2011.56647 -0.04649
2009.51803 -0.04769
2007.46959 -0.04851
2005.42115 -0.04914
2003.37271 -0.05015
2001.32428 -0.05137
1999.27584 -0.05228
1997.22740 -0.05233
1995.17896 -0.05263
1993.13052 -0.05481
1991.08208 -0.05721
1989.03365 -0.05795
1986.98521 -0.05855
1984.93677 -0.06001
1982.88833 -0.06132
1980.83989 -0.06177
1978.79145 -0.06208
1976.74302 -0.06330
1974.69458 -0.06505
1972.64614 -0.06649
1970.59770 -0.06775
1968.54926 -0.06820
1966.50082 -0.06747
1964.45239 -0.06765
1962.40395 -0.06903
1960.35551 -0.07007
1958.30707 -0.07098
1956.25863 -0.07199
1954.21019 -0.07264
1952.16176 -0.07242
1950.11332 -0.07183
1948.06488 -0.07224
1946.01644 -0.07251
1943.96800 -0.07183
1941.91956 -0.07070
1939.87112 -0.06895
1937.82269 -0.06812
1935.77425 -0.06845
1933.72581 -0.06855
1931.67737 -0.06858
1929.62893 -0.06887
1927.58049 -0.06857
1925.53206 -0.06691
1923.48362 -0.06481
1921.43518 -0.06363
1919.38674 -0.06374
1917.33830 -0.06521
1915.28986 -0.06552
1913.24143 -0.06387
1911.19299 -0.06294
1909.14455 -0.06305
1907.09611 -0.06250
1905.04767 -0.06179
1902.99923 -0.06187
1900.95080 -0.06235
1898.90236 -0.06235
1896.85392 -0.06146
1894.80548 -0.05950
1892.75704 -0.05740
1890.70860 -0.05687
1888.66017 -0.05749
1886.61173 -0.05758
1884.56329 -0.05692
1882.51485 -0.05593
1880.46641 -0.05539
1878.41797 -0.05531
1876.36954 -0.05502
1874.32110 -0.05478
1872.27266 -0.05467
1870.22422 -0.05566
1868.17578 -0.05815
1866.12734 -0.05932
1864.07891 -0.05954
1862.03047 -0.05997
1859.98203 -0.06013
1857.93359 -0.06084
1855.88515 -0.06293
1853.83671 -0.06486
1851.78828 -0.06527
1849.73984 -0.06548
1847.69140 -0.06655
1845.64296 -0.06724
1843.59452 -0.06826
1841.54608 -0.07076
1839.49765 -0.07312
1837.44921 -0.07467
1835.40077 -0.07566
1833.35233 -0.07659
1831.30389 -0.07777
1829.25545 -0.07966
1827.20702 -0.08106
1825.15858 -0.08116
1823.11014 -0.08184
1821.06170 -0.08461
1819.01326 -0.08814
1816.96482 -0.09068
1814.91639 -0.09264
1812.86795 -0.09443
1810.81951 -0.09529
1808.77107 -0.09525
1806.72263 -0.09549
1804.67419 -0.09707
1802.62575 -0.10002
1800.57732 -0.10243
1798.52888 -0.10318
1796.48044 -0.10276
1794.43200 -0.10214
1792.38356 -0.10356
1790.33512 -0.10571
1788.28669 -0.10632
1786.23825 -0.10597
1784.18981 -0.10532
1782.14137 -0.10575
1780.09293 -0.10693
1778.04449 -0.10752
1775.99606 -0.10765
1773.94762 -0.10801
1771.89918 -0.10791
1769.85074 -0.10577
1767.80230 -0.10450
1765.75386 -0.10514
1763.70543 -0.10572
1761.65699 -0.10529
1759.60855 -0.10396
1757.56011 -0.10241
1755.51167 -0.10022
1753.46323 -0.09745
1751.41480 -0.09644
1749.36636 -0.09929
1747.31792 -0.10195
1745.26948 -0.10169
1743.22104 -0.10067
1741.17260 -0.09977
1739.12417 -0.09852
1737.07573 -0.09756
1735.02729 -0.09820
1732.97885 -0.09890
1730.93041 -0.09711
1728.88197 -0.09625
1726.83354 -0.09674
1724.78510 -0.09739
1722.73666 -0.09713
1720.68822 -0.09571
1718.63978 -0.09463
1716.59134 -0.09515
1714.54291 -0.09512
1712.49447 -0.09443
1710.44603 -0.09499
1708.39759 -0.09691
1706.34915 -0.09918
1704.30071 -0.10096
1702.25228 -0.10281
1700.20384 -0.10551
1698.15540 -0.10727
1696.10696 -0.10844
1694.05852 -0.10834
1692.01008 -0.10735
1689.96165 -0.10754
1687.91321 -0.10809
1685.86477 -0.10926
1683.81633 -0.11568
1681.76789 -0.11980
1679.71945 -0.11901
1677.67102 -0.11793
1675.62258 -0.11951
1673.57414 -0.12353
1671.52570 -0.12630
1669.47726 -0.12879
1667.42882 -0.13022
1665.38038 -0.13030
1663.33195 -0.13060
1661.28351 -0.13101
1659.23507 -0.13131
1657.18663 -0.13169
1655.13819 -0.13256
1653.08975 -0.13679
1651.04132 -0.13900
1648.99288 -0.13892
1646.94444 -0.14026
1644.89600 -0.13743
1642.84756 -0.13228
1640.79912 -0.12956
1638.75069 -0.12921
1636.70225 -0.13012
1634.65381 -0.13088
1632.60537 -0.12958
1630.55693 -0.12750
1628.50849 -0.12516
1626.46006 -0.12342
1624.41162 -0.12205
1622.36318 -0.11841
1620.31474 -0.11470
1618.26630 -0.11413
1616.21786 -0.11560
1614.16943 -0.11483
1612.12099 -0.11208
1610.07255 -0.10888
1608.02411 -0.10661
1605.97567 -0.10590
1603.92723 -0.10563
1601.87880 -0.10412
1599.83036 -0.10244
1597.78192 -0.10188
1595.73348 -0.10082
1593.68504 -0.09916
1591.63660 -0.09787
1589.58817 -0.09658
1587.53973 -0.09523
1585.49129 -0.09346
1583.44285 -0.09163
1581.39441 -0.09081
1579.34597 -0.09109
1577.29754 -0.09288
1575.24910 -0.09397
1573.20066 -0.09058
1571.15222 -0.08661
1569.10378 -0.08582
1567.05534 -0.08719
1565.00691 -0.08882
1562.95847 -0.09131
1560.91003 -0.09423
1558.86159 -0.09510
1556.81315 -0.09137
1554.76471 -0.09105
1552.71628 -0.09159
1550.66784 -0.09132
1548.61940 -0.09126
1546.57096 -0.09084
1544.52252 -0.08971
1542.47408 -0.08894
1540.42565 -0.08911
1538.37721 -0.08921
1536.32877 -0.08912
1534.28033 -0.08907
1532.23189 -0.08876
1530.18345 -0.08882
1528.13501 -0.09047
1526.08658 -0.09246
1524.03814 -0.09183
1521.98970 -0.09013
1519.94126 -0.09020
1517.89282 -0.09149
1515.84438 -0.09165
1513.79595 -0.09078
1511.74751 -0.09119
1509.69907 -0.09251
1507.65063 -0.09333
1505.60219 -0.09289
1503.55375 -0.09188
1501.50532 -0.09146
1499.45688 -0.09188
1497.40844 -0.09237
1495.36000 -0.09125
1493.31156 -0.08910
1491.26312 -0.08752
1489.21469 -0.08716
1487.16625 -0.08802
1485.11781 -0.08846
1483.06937 -0.08739
1481.02093 -0.08650
1478.97249 -0.08709
1476.92406 -0.08822
1474.87562 -0.08921
1472.82718 -0.09020
1470.77874 -0.09155
1468.73030 -0.09244
1466.68186 -0.09306
1464.63343 -0.09392
1462.58499 -0.09376
1460.53655 -0.09160
1458.48811 -0.08987
1456.43967 -0.09302
1454.39123 -0.09421
1452.34280 -0.09265
1450.29436 -0.09093
1448.24592 -0.09015
1446.19748 -0.09096
1444.14904 -0.09203
1442.10060 -0.09275
1440.05217 -0.09325
1438.00373 -0.09357
1435.95529 -0.09339
1433.90685 -0.09257
1431.85841 -0.09175
1429.80997 -0.09113
1427.76154 -0.09102
1425.71310 -0.09182
1423.66466 -0.09265
1421.61622 -0.09239
1419.56778 -0.09307
1417.51934 -0.09545
1415.47091 -0.09574
1413.42247 -0.09488
1411.37403 -0.09478
1409.32559 -0.09523
1407.27715 -0.09576
1405.22871 -0.09679
1403.18028 -0.09775
1401.13184 -0.09868
1399.08340 -0.10032
1397.03496 -0.10221
1394.98652 -0.10366
1392.93808 -0.10323
1390.88965 -0.10158
1388.84121 -0.10079
1386.79277 -0.10132
1384.74433 -0.10196
1382.69589 -0.10239
1380.64745 -0.10248
1378.59901 -0.10233
1376.55058 -0.10237
1374.50214 -0.10306
1372.45370 -0.10453
1370.40526 -0.10499
1368.35682 -0.10337
1366.30838 -0.10144
1364.25995 -0.10178
1362.21151 -0.10317
1360.16307 -0.10255
1358.11463 -0.10105
1356.06619 -0.09972
1354.01775 -0.09895
1351.96932 -0.09882
1349.92088 -0.09834
1347.87244 -0.09720
1345.82400 -0.09645
1343.77556 -0.09688
1341.72712 -0.09803
1339.67869 -0.09832
1337.63025 -0.09656
1335.58181 -0.09495
1333.53337 -0.09496
1331.48493 -0.09523
1329.43649 -0.09453
1327.38806 -0.09343
1325.33962 -0.09348
1323.29118 -0.09505
1321.24274 -0.09629
1319.19430 -0.09615
1317.14586 -0.09644
1315.09743 -0.09787
1313.04899 -0.09909
1311.00055 -0.09992
1308.95211 -0.10084
1306.90367 -0.10154
1304.85523 -0.10203
1302.80680 -0.10340
1300.75836 -0.10567
1298.70992 -0.10685
1296.66148 -0.10660
1294.61304 -0.10694
1292.56460 -0.10757
1290.51617 -0.10797
1288.46773 -0.10937
1286.41929 -0.11097
1284.37085 -0.11206
1282.32241 -0.11266
1280.27397 -0.11265
1278.22554 -0.11366
1276.17710 -0.11555
1274.12866 -0.11661
1272.08022 -0.11726
1270.03178 -0.11711
1267.98334 -0.11548
1265.93491 -0.11388
1263.88647 -0.11303
1261.83803 -0.11342
1259.78959 -0.11506
1257.74115 -0.11518
1255.69271 -0.11251
1253.64428 -0.10949
1251.59584 -0.10790
1249.54740 -0.10707
1247.49896 -0.10584
1245.45052 -0.10380
1243.40208 -0.10183
1241.35364 -0.10078
1239.30521 -0.09996
1237.25677 -0.09794
1235.20833 -0.09544
1233.15989 -0.09409
1231.11145 -0.09358
1229.06301 -0.09300
1227.01458 -0.09177
1224.96614 -0.09031
1222.91770 -0.08937
1220.86926 -0.08823
1218.82082 -0.08661
1216.77238 -0.08590
1214.72395 -0.08661
1212.67551 -0.08774
1210.62707 -0.08806
1208.57863 -0.08739
1206.53019 -0.08670
1204.48175 -0.08606
1202.43332 -0.08576
1200.38488 -0.08666
1198.33644 -0.08748
1196.28800 -0.08748
1194.23956 -0.08768
1192.19112 -0.08800
1190.14269 -0.08857
1188.09425 -0.09058
1186.04581 -0.09332
1183.99737 -0.09502
1181.94893 -0.09679
1179.90049 -0.09952
1177.85206 -0.10161
1175.80362 -0.10407
1173.75518 -0.10826
1171.70674 -0.11159
1169.65830 -0.11268
1167.60986 -0.11380
1165.56143 -0.11686
1163.51299 -0.12135
1161.46455 -0.12459
1159.41611 -0.12644
1157.36767 -0.12979
1155.31923 -0.13315
1153.27080 -0.13436
1151.22236 -0.13587
1149.17392 -0.13952
1147.12548 -0.14323
1145.07704 -0.14431
1143.02860 -0.14422
1140.98017 -0.14590
1138.93173 -0.14843
1136.88329 -0.15002
1134.83485 -0.15164
1132.78641 -0.15322
1130.73797 -0.15351
1128.68954 -0.15420
1126.64110 -0.15627
1124.59266 -0.15778
1122.54422 -0.15799
1120.49578 -0.15676
1118.44734 -0.15475
1116.39891 -0.15431
1114.35047 -0.15523
1112.30203 -0.15585
1110.25359 -0.15567
1108.20515 -0.15498
1106.15671 -0.15360
1104.10827 -0.15157
1102.05984 -0.15043
1100.01140 -0.14958
1097.96296 -0.14690
1095.91452 -0.14397
1093.86608 -0.14432
1091.81764 -0.14641
1089.76921 -0.14558
1087.72077 -0.14261
1085.67233 -0.14177
1083.62389 -0.14358
1081.57545 -0.14513
1079.52701 -0.14495
1077.47858 -0.14377
1075.43014 -0.14369
1073.38170 -0.14553
1071.33326 -0.14665
1069.28482 -0.14626
1067.23638 -0.14597
1065.18795 -0.14595
1063.13951 -0.14705
1061.09107 -0.14878
1059.04263 -0.14953
1056.99419 -0.15071
1054.94575 -0.15280
1052.89732 -0.15495
1050.84888 -0.15634
1048.80044 -0.15619
1046.75200 -0.15763
1044.70356 -0.16152
1042.65512 -0.16475
1040.60669 -0.16788
1038.55825 -0.17089
1036.50981 -0.17216
1034.46137 -0.17223
1032.41293 -0.17160
1030.36449 -0.17198
1028.31606 -0.17505
1026.26762 -0.17783
1024.21918 -0.17770
1022.17074 -0.17775
1020.12230 -0.18029
1018.07386 -0.18361
1016.02543 -0.18553
1013.97699 -0.18634
1011.92855 -0.18704
1009.88011 -0.18696
1007.83167 -0.18626
1005.78323 -0.18469
1003.73480 -0.18335
1001.68636 -0.18387
999.63792 -0.18456
997.58948 -0.18373
995.54104 -0.18215
993.49260 -0.18287
991.44417 -0.18532
989.39573 -0.18569
987.34729 -0.18302
985.29885 -0.17946
983.25041 -0.18026
981.20197 -0.18370
979.15354 -0.18269
977.10510 -0.17992
975.05666 -0.17924
973.00822 -0.17949
970.95978 -0.18050
968.91134 -0.18005
966.86290 -0.17748
964.81447 -0.17556
962.76603 -0.17398
960.71759 -0.17299
958.66915 -0.17309
956.62071 -0.17269
954.57227 -0.17333
952.52384 -0.17625
950.47540 -0.17816
948.42696 -0.17754
946.37852 -0.17887
944.33008 -0.18448
942.28164 -0.19150
940.23321 -0.19838
938.18477 -0.20481
936.13633 -0.21219
934.08789 -0.22145
932.03945 -0.23100
929.99101 -0.24047
927.94258 -0.24897
925.89414 -0.25574
923.84570 -0.26226
921.79726 -0.26805
919.74882 -0.27135
917.70038 -0.27108
915.65195 -0.26803
913.60351 -0.26521
911.55507 -0.26360
909.50663 -0.26100
907.45819 -0.25555
905.40975 -0.24826
903.36132 -0.24040
901.31288 -0.23271
899.26444 -0.22635
897.21600 -0.22025
895.16756 -0.21280
893.11912 -0.20330
891.07069 -0.19190
889.02225 -0.18162
886.97381 -0.17398
884.92537 -0.16685
882.87693 -0.16054
880.82849 -0.15626
878.78006 -0.15209
876.73162 -0.14656
874.68318 -0.14009
872.63474 -0.13310
870.58630 -0.12802
868.53786 -0.12638
866.48943 -0.12564
864.44099 -0.12623
862.39255 -0.12921
860.34411 -0.13115
858.29567 -0.12971
856.24723 -0.12718
854.19880 -0.12572
852.15036 -0.12609
850.10192 -0.13107
848.05348 -0.13990
846.00504 -0.14905
843.95660 -0.15848
841.90817 -0.16939
839.85973 -0.18339
837.81129 -0.19836
835.76285 -0.20945
833.71441 -0.21823
831.66597 -0.22815
829.61753 -0.23840
827.56910 -0.24705
825.52066 -0.25236
823.47222 -0.25539
821.42378 -0.25879
819.37534 -0.26204
817.32690 -0.26343
815.27847 -0.26340
813.23003 -0.26406
811.18159 -0.26564
809.13315 -0.26557
807.08471 -0.26414
805.03627 -0.26373
802.98784 -0.26322
800.93940 -0.26204
798.89096 -0.26155
796.84252 -0.26148
794.79408 -0.26049
792.74564 -0.25787
790.69721 -0.25412
788.64877 -0.25091
786.60033 -0.24915
784.55189 -0.24728
782.50345 -0.24492
780.45501 -0.24386
778.40658 -0.24304
776.35814 -0.24008
774.30970 -0.23673
772.26126 -0.23498
770.21282 -0.23336
768.16438 -0.23255
766.11595 -0.23337
764.06751 -0.23241
762.01907 -0.22709
759.97063 -0.21938
757.92219 -0.21570
755.87375 -0.21840
753.82532 -0.22126
751.77688 -0.21968
749.72844 -0.21572
747.68000 -0.21230
745.63156 -0.20856
743.58312 -0.20339
741.53469 -0.19827
739.48625 -0.19623
737.43781 -0.19572
735.38937 -0.19146
733.34093 -0.18717
731.29249 -0.18780
729.24406 -0.18727
727.19562 -0.18512
725.14718 -0.18808
723.09874 -0.18835
721.05030 -0.17851
719.00186 -0.16872
716.95343 -0.16433
714.90499 -0.16033
712.85655 -0.15948
710.80811 -0.16394
708.75967 -0.16810
706.71123 -0.16997
704.66280 -0.16737
702.61436 -0.16052
700.56592 -0.15758
698.51748 -0.15979
696.46904 -0.16281
694.42060 -0.16795
692.37216 -0.17429
690.32373 -0.18141
688.27529 -0.18662
686.22685 -0.17457
684.17841 -0.15272
682.12997 -0.14085
680.08153 -0.13431
678.03310 -0.12569
675.98466 -0.11818
673.93622 -0.11657
671.88778 -0.11893
669.83934 -0.11605
667.79090 -0.09476
665.74247 -0.07612
663.69403 -0.07592
661.64559 -0.08947
659.59715 -0.11861
657.54871 -0.15844
655.50027 -0.19339
653.45184 -0.22309
651.40340 -0.24950
649.35496 -0.26585
647.30652 -0.27136
645.25808 -0.26902
643.20964 -0.26386
641.16121 -0.26261
639.11277 -0.27260
637.06433 -0.28695
635.01589 -0.28822
632.96745 -0.28416
630.91901 -0.29892
628.87058 -0.32959
626.82214 -0.34128
624.77370 -0.32052
622.72526 -0.29529
620.67682 -0.28037
618.62838 -0.26987
616.57995 -0.24497
614.53151 -0.20675
612.48307 -0.17718
610.43463 -0.17454
608.38619 -0.20638
606.33775 -0.22982
604.28932 -0.20999
602.24088 -0.19364
600.19244 -0.19507
598.14400 -0.18685
