3996.50324 -0.29130
3994.45480 -0.29108
3992.40636 -0.29078
3990.35792 -0.29011
3988.30948 -0.28963
3986.26104 -0.28976
3984.21261 -0.29056
3982.16417 -0.29185
3980.11573 -0.29211
3978.06729 -0.29052
3976.01885 -0.28890
3973.97041 -0.28871
3971.92198 -0.28935
3969.87354 -0.29049
3967.82510 -0.29094
3965.77666 -0.28964
3963.72822 -0.28844
3961.67978 -0.28876
3959.63135 -0.28889
3957.58291 -0.28823
3955.53447 -0.28874
3953.48603 -0.29034
3951.43759 -0.29153
3949.38915 -0.29191
3947.34072 -0.29157
3945.29228 -0.28986
3943.24384 -0.28803
3941.19540 -0.28809
3939.14696 -0.28913
3937.09852 -0.29023
3935.05009 -0.29018
3933.00165 -0.28890
3930.95321 -0.28851
3928.90477 -0.28891
3926.85633 -0.28823
3924.80789 -0.28742
3922.75946 -0.28811
3920.71102 -0.28803
3918.66258 -0.28662
3916.61414 -0.28674
3914.56570 -0.28803
3912.51726 -0.28783
3910.46883 -0.28649
3908.42039 -0.28389
3906.37195 -0.27967
3904.32351 -0.27796
3902.27507 -0.28155
3900.22663 -0.28494
3898.17820 -0.28626
3896.12976 -0.28543
3894.08132 -0.28283
3892.03288 -0.28313
3889.98444 -0.28704
3887.93600 -0.28700
3885.88756 -0.28444
3883.83913 -0.28324
3881.79069 -0.28264
3879.74225 -0.28496
3877.69381 -0.28675
3875.64537 -0.28534
3873.59693 -0.28560
3871.54850 -0.28799
3869.50006 -0.28911
3867.45162 -0.28854
3865.40318 -0.28803
3863.35474 -0.28836
3861.30630 -0.28725
3859.25787 -0.28539
3857.20943 -0.28341
3855.16099 -0.28103
3853.11255 -0.28574
3851.06411 -0.29357
3849.01567 -0.29339
3846.96724 -0.29044
3844.91880 -0.28793
3842.87036 -0.28715
3840.82192 -0.28743
3838.77348 -0.28978
3836.72504 -0.29393
3834.67661 -0.29420
3832.62817 -0.29303
3830.57973 -0.29318
3828.53129 -0.29272
3826.48285 -0.29194
3824.43441 -0.29096
3822.38598 -0.28915
3820.33754 -0.29081
3818.28910 -0.29204
3816.24066 -0.29191
3814.19222 -0.29453
3812.14378 -0.29542
3810.09535 -0.29411
3808.04691 -0.29324
3805.99847 -0.29399
3803.95003 -0.29257
3801.90159 -0.29156
3799.85315 -0.29467
3797.80472 -0.29531
3795.75628 -0.29553
3793.70784 -0.29646
3791.65940 -0.29656
3789.61096 -0.29645
3787.56252 -0.29582
3785.51409 -0.29527
3783.46565 -0.29538
3781.41721 -0.29531
3779.36877 -0.29750
3777.32033 -0.30037
3775.27189 -0.29960
3773.22346 -0.29763
3771.17502 -0.29715
3769.12658 -0.29950
3767.07814 -0.30246
3765.02970 -0.30409
3762.98126 -0.30450
3760.93283 -0.30402
3758.88439 -0.30416
3756.83595 -0.30427
3754.78751 -0.30272
3752.73907 -0.30081
3750.69063 -0.30294
3748.64219 -0.30604
3746.59376 -0.30514
3744.54532 -0.30581
3742.49688 -0.30845
3740.44844 -0.30833
3738.40000 -0.30656
3736.35156 -0.30491
3734.30313 -0.30590
3732.25469 -0.31057
3730.20625 -0.31392
3728.15781 -0.31379
3726.10937 -0.31339
3724.06093 -0.31556
3722.01250 -0.31753
3719.96406 -0.31727
3717.91562 -0.31569
3715.86718 -0.31412
3713.81874 -0.31205
3711.77030 -0.31161
3709.72187 -0.31840
3707.67343 -0.32374
3705.62499 -0.32391
3703.57655 -0.32235
3701.52811 -0.32343
3699.47967 -0.32652
3697.43124 -0.32740
3695.38280 -0.32677
3693.33436 -0.32588
3691.28592 -0.32466
3689.23748 -0.32633
3687.18904 -0.33013
3685.14061 -0.33103
3683.09217 -0.33089
3681.04373 -0.33100
3678.99529 -0.33108
3676.94685 -0.33200
3674.89841 -0.33645
3672.84998 -0.33906
3670.80154 -0.33945
3668.75310 -0.34271
3666.70466 -0.34465
3664.65622 -0.34491
3662.60778 -0.34635
3660.55935 -0.34823
3658.51091 -0.34932
3656.46247 -0.35101
3654.41403 -0.35302
3652.36559 -0.35259
3650.31715 -0.35138
3648.26872 -0.35737
3646.22028 -0.36385
3644.17184 -0.36563
3642.12340 -0.36704
3640.07496 -0.36938
3638.02652 -0.37079
3635.97809 -0.37166
3633.92965 -0.37410
3631.88121 -0.37568
3629.83277 -0.37582
3627.78433 -0.38062
3625.73589 -0.38484
3623.68746 -0.38531
3621.63902 -0.38450
3619.59058 -0.38493
3617.54214 -0.38803
3615.49370 -0.39247
3613.44526 -0.39774
3611.39682 -0.40048
3609.34839 -0.40055
3607.29995 -0.40250
3605.25151 -0.40575
3603.20307 -0.40807
3601.15463 -0.41000
3599.10619 -0.41118
3597.05776 -0.41146
3595.00932 -0.41229
3592.96088 -0.41407
3590.91244 -0.41585
3588.86400 -0.41787
3586.81556 -0.42086
3584.76713 -0.42392
3582.71869 -0.42687
3580.67025 -0.43023
3578.62181 -0.43393
3576.57337 -0.43776
3574.52493 -0.44003
3572.47650 -0.43965
3570.42806 -0.43884
3568.37962 -0.43995
3566.33118 -0.44413
3564.28274 -0.44760
3562.23430 -0.44822
3560.18587 -0.44806
3558.13743 -0.44932
3556.08899 -0.45184
3554.04055 -0.45362
3551.99211 -0.45419
3549.94367 -0.45451
3547.89524 -0.45437
3545.84680 -0.45478
3543.79836 -0.45818
3541.74992 -0.46087
3539.70148 -0.46019
3537.65304 -0.45913
3535.60461 -0.46007
3533.55617 -0.46234
3531.50773 -0.46432
3529.45929 -0.46511
3527.41085 -0.46610
3525.36241 -0.46795
3523.31398 -0.46799
3521.26554 -0.46800
3519.21710 -0.47099
3517.16866 -0.47356
3515.12022 -0.47362
3513.07178 -0.47340
3511.02335 -0.47335
3508.97491 -0.47401
3506.92647 -0.47687
3504.87803 -0.47963
3502.82959 -0.48060
3500.78115 -0.48069
3498.73272 -0.47925
3496.68428 -0.47643
3494.63584 -0.47427
3492.58740 -0.47333
3490.53896 -0.47302
3488.49052 -0.47401
3486.44209 -0.47631
3484.39365 -0.47735
3482.34521 -0.47650
3480.29677 -0.47571
3478.24833 -0.47579
3476.19989 -0.47729
3474.15146 -0.48074
3472.10302 -0.48377
3470.05458 -0.48399
3468.00614 -0.48193
3465.95770 -0.47861
3463.90926 -0.47700
3461.86082 -0.47944
3459.81239 -0.48093
3457.76395 -0.47918
3455.71551 -0.47872
3453.66707 -0.47909
3451.61863 -0.47889
3449.57019 -0.47944
3447.52176 -0.48071
3445.47332 -0.48148
3443.42488 -0.48073
3441.37644 -0.47963
3439.32800 -0.47857
3437.27956 -0.47773
3435.23113 -0.47890
3433.18269 -0.48188
3431.13425 -0.48361
3429.08581 -0.48325
3427.03737 -0.48244
3424.98893 -0.48165
3422.94050 -0.48027
3420.89206 -0.47842
3418.84362 -0.47868
3416.79518 -0.48060
3414.74674 -0.48156
3412.69830 -0.48209
3410.64987 -0.48327
3408.60143 -0.48364
3406.55299 -0.48201
3404.50455 -0.48071
3402.45611 -0.48074
3400.40767 -0.47978
3398.35924 -0.47880
3396.31080 -0.48129
3394.26236 -0.48553
3392.21392 -0.48803
3390.16548 -0.48896
3388.11704 -0.48826
3386.06861 -0.48636
3384.02017 -0.48600
3381.97173 -0.48621
3379.92329 -0.48447
3377.87485 -0.48271
3375.82641 -0.48243
3373.77798 -0.48322
3371.72954 -0.48476
3369.68110 -0.48540
3367.63266 -0.48501
3365.58422 -0.48582
3363.53578 -0.48692
3361.48735 -0.48689
3359.43891 -0.48665
3357.39047 -0.48576
3355.34203 -0.48414
3353.29359 -0.48373
3351.24515 -0.48423
3349.19672 -0.48352
3347.14828 -0.48336
3345.09984 -0.48474
3343.05140 -0.48548
3341.00296 -0.48626
3338.95452 -0.48742
3336.90609 -0.48751
3334.85765 -0.48633
3332.80921 -0.48499
3330.76077 -0.48484
3328.71233 -0.48638
3326.66389 -0.48880
3324.61545 -0.49011
3322.56702 -0.49017
3320.51858 -0.49002
3318.47014 -0.48904
3316.42170 -0.48819
3314.37326 -0.48960
3312.32482 -0.49117
3310.27639 -0.49011
3308.22795 -0.48869
3306.17951 -0.48892
3304.13107 -0.48880
3302.08263 -0.48784
3300.03419 -0.48906
3297.98576 -0.49293
3295.93732 -0.49496
3293.88888 -0.49346
3291.84044 -0.49274
3289.79200 -0.49395
3287.74356 -0.49386
3285.69513 -0.49300
3283.64669 -0.49169
3281.59825 -0.48960
3279.54981 -0.49005
3277.50137 -0.49270
3275.45293 -0.49379
3273.40450 -0.49366
3271.35606 -0.49441
3269.30762 -0.49522
3267.25918 -0.49464
3265.21074 -0.49403
3263.16230 -0.49500
3261.11387 -0.49575
3259.06543 -0.49459
3257.01699 -0.49299
3254.96855 -0.49342
3252.92011 -0.49626
3250.87167 -0.49801
3248.82324 -0.49735
3246.77480 -0.49667
3244.72636 -0.49721
3242.67792 -0.49844
3240.62948 -0.49847
3238.58104 -0.49668
3236.53261 -0.49575
3234.48417 -0.49686
3232.43573 -0.49791
3230.38729 -0.49807
3228.33885 -0.49790
3226.29041 -0.49802
3224.24198 -0.49844
3222.19354 -0.49873
3220.14510 -0.49908
3218.09666 -0.49874
3216.04822 -0.49753
3213.99978 -0.49774
3211.95135 -0.50049
3209.90291 -0.50371
3207.85447 -0.50483
3205.80603 -0.50336
3203.75759 -0.50172
3201.70915 -0.50189
3199.66072 -0.50288
3197.61228 -0.50349
3195.56384 -0.50299
3193.51540 -0.50171
3191.46696 -0.50193
3189.41852 -0.50365
3187.37008 -0.50467
3185.32165 -0.50561
3183.27321 -0.50729
3181.22477 -0.50780
3179.17633 -0.50624
3177.12789 -0.50453
3175.07945 -0.50459
3173.03102 -0.50608
3170.98258 -0.50831
3168.93414 -0.51005
3166.88570 -0.50967
3164.83726 -0.50811
3162.78882 -0.50690
3160.74039 -0.50595
3158.69195 -0.50607
3156.64351 -0.50774
3154.59507 -0.50938
3152.54663 -0.50883
3150.49819 -0.50634
3148.44976 -0.50553
3146.40132 -0.50730
3144.35288 -0.50860
3142.30444 -0.50852
3140.25600 -0.50871
3138.20756 -0.50893
3136.15913 -0.50830
3134.11069 -0.50785
3132.06225 -0.50883
3130.01381 -0.51030
3127.96537 -0.50997
3125.91693 -0.50880
3123.86850 -0.50809
3121.82006 -0.50723
3119.77162 -0.50644
3117.72318 -0.50631
3115.67474 -0.50691
3113.62630 -0.50762
3111.57787 -0.50831
3109.52943 -0.50874
3107.48099 -0.50798
3105.43255 -0.50645
3103.38411 -0.50596
3101.33567 -0.50713
3099.28724 -0.50871
3097.23880 -0.50891
3095.19036 -0.50810
3093.14192 -0.50753
3091.09348 -0.50652
3089.04504 -0.50566
3086.99661 -0.50559
3084.94817 -0.50522
3082.89973 -0.50411
3080.85129 -0.50380
3078.80285 -0.50507
3076.75441 -0.50590
3074.70598 -0.50492
3072.65754 -0.50290
3070.60910 -0.50192
3068.56066 -0.50284
3066.51222 -0.50349
3064.46378 -0.50184
3062.41535 -0.49935
3060.36691 -0.49776
3058.31847 -0.49676
3056.27003 -0.49585
3054.22159 -0.49492
3052.17315 -0.49463
3050.12471 -0.49557
3048.07628 -0.49673
3046.02784 -0.49611
3043.97940 -0.49432
3041.93096 -0.49376
3039.88252 -0.49372
3037.83408 -0.49221
3035.78565 -0.49062
3033.73721 -0.49059
3031.68877 -0.49080
3029.64033 -0.49048
3027.59189 -0.49090
3025.54345 -0.49136
3023.49502 -0.49034
3021.44658 -0.48952
3019.39814 -0.48962
3017.34970 -0.48925
3015.30126 -0.48792
3013.25282 -0.48622
3011.20439 -0.48586
3009.15595 -0.48635
3007.10751 -0.48471
3005.05907 -0.48204
3003.01063 -0.48194
3000.96219 -0.48426
2998.91376 -0.48715
2996.86532 -0.48802
2994.81688 -0.48550
2992.76844 -0.48235
2990.72000 -0.48036
2988.67156 -0.47963
2986.62313 -0.48064
2984.57469 -0.48198
2982.52625 -0.48211
2980.47781 -0.48160
2978.42937 -0.48133
2976.38093 -0.48126
2974.33250 -0.48008
2972.28406 -0.47813
2970.23562 -0.47777
2968.18718 -0.47891
2966.13874 -0.47943
2964.09030 -0.47859
2962.04187 -0.47813
2959.99343 -0.47962
2957.94499 -0.48099
2955.89655 -0.48002
2953.84811 -0.47835
2951.79967 -0.47807
2949.75124 -0.47909
2947.70280 -0.47941
2945.65436 -0.47815
2943.60592 -0.47727
2941.55748 -0.47777
2939.50904 -0.47911
2937.46061 -0.48055
2935.41217 -0.48122
2933.36373 -0.48056
2931.31529 -0.47907
2929.26685 -0.47859
2927.21841 -0.47962
2925.16998 -0.48173
2923.12154 -0.48369
2921.07310 -0.48337
2919.02466 -0.48197
2916.97622 -0.48154
2914.92778 -0.48181
2912.87934 -0.48197
2910.83091 -0.48180
2908.78247 -0.48190
2906.73403 -0.48222
2904.68559 -0.48266
2902.63715 -0.48342
2900.58871 -0.48326
2898.54028 -0.48244
2896.49184 -0.48264
2894.44340 -0.48255
2892.39496 -0.48083
2890.34652 -0.48006
2888.29808 -0.48163
2886.24965 -0.48285
2884.20121 -0.48266
2882.15277 -0.48264
2880.10433 -0.48236
2878.05589 -0.48160
2876.00745 -0.48189
2873.95902 -0.48306
2871.91058 -0.48343
2869.86214 -0.48311
2867.81370 -0.48309
2865.76526 -0.48292
2863.71682 -0.48276
2861.66839 -0.48319
2859.61995 -0.48346
2857.57151 -0.48371
2855.52307 -0.48443
2853.47463 -0.48495
2851.42619 -0.48504
2849.37776 -0.48470
2847.32932 -0.48379
2845.28088 -0.48252
2843.23244 -0.48209
2841.18400 -0.48320
2839.13556 -0.48415
2837.08713 -0.48376
2835.03869 -0.48272
2832.99025 -0.48195
2830.94181 -0.48152
2828.89337 -0.48115
2826.84493 -0.48128
2824.79650 -0.48217
2822.74806 -0.48323
2820.69962 -0.48373
2818.65118 -0.48324
2816.60274 -0.48195
2814.55430 -0.48073
2812.50587 -0.48018
2810.45743 -0.48021
2808.40899 -0.48084
2806.36055 -0.48180
2804.31211 -0.48191
2802.26367 -0.48071
2800.21524 -0.47967
2798.16680 -0.47998
2796.11836 -0.48084
2794.06992 -0.48092
2792.02148 -0.48030
2789.97304 -0.48023
2787.92461 -0.48164
2785.87617 -0.48339
2783.82773 -0.48404
2781.77929 -0.48401
2779.73085 -0.48292
2777.68241 -0.48036
2775.63397 -0.47839
2773.58554 -0.47849
2771.53710 -0.48001
2769.48866 -0.48194
2767.44022 -0.48293
2765.39178 -0.48302
2763.34334 -0.48292
2761.29491 -0.48243
2759.24647 -0.48224
2757.19803 -0.48213
2755.14959 -0.48169
2753.10115 -0.48194
2751.05271 -0.48256
2749.00428 -0.48299
2746.95584 -0.48409
2744.90740 -0.48550
2742.85896 -0.48581
2740.81052 -0.48522
2738.76208 -0.48480
2736.71365 -0.48474
2734.66521 -0.48460
2732.61677 -0.48444
2730.56833 -0.48480
2728.51989 -0.48540
2726.47145 -0.48613
2724.42302 -0.48685
2722.37458 -0.48699
2720.32614 -0.48714
2718.27770 -0.48737
2716.22926 -0.48722
2714.18082 -0.48673
2712.13239 -0.48624
2710.08395 -0.48582
2708.03551 -0.48521
2705.98707 -0.48513
2703.93863 -0.48569
2701.89019 -0.48637
2699.84176 -0.48640
2697.79332 -0.48561
2695.74488 -0.48507
2693.69644 -0.48442
2691.64800 -0.48314
2689.59956 -0.48212
2687.55113 -0.48216
2685.50269 -0.48305
2683.45425 -0.48368
2681.40581 -0.48270
2679.35737 -0.48103
2677.30893 -0.48085
2675.26050 -0.48180
2673.21206 -0.48251
2671.16362 -0.48226
2669.11518 -0.48092
2667.06674 -0.47970
2665.01830 -0.47898
2662.96987 -0.47785
2660.92143 -0.47737
2658.87299 -0.47819
2656.82455 -0.47773
2654.77611 -0.47510
2652.72767 -0.47331
2650.67924 -0.47425
2648.63080 -0.47510
2646.58236 -0.47319
2644.53392 -0.47062
2642.48548 -0.46994
2640.43704 -0.47042
2638.38860 -0.46988
2636.34017 -0.46797
2634.29173 -0.46669
2632.24329 -0.46695
2630.19485 -0.46765
2628.14641 -0.46749
2626.09797 -0.46562
2624.04954 -0.46300
2622.00110 -0.46152
2619.95266 -0.46093
2617.90422 -0.45995
2615.85578 -0.45925
2613.80734 -0.45957
2611.75891 -0.45973
2609.71047 -0.45856
2607.66203 -0.45666
2605.61359 -0.45573
2603.56515 -0.45561
2601.51671 -0.45510
2599.46828 -0.45404
2597.41984 -0.45260
2595.37140 -0.45168
2593.32296 -0.45161
2591.27452 -0.45074
2589.22608 -0.44884
2587.17765 -0.44709
2585.12921 -0.44583
2583.08077 -0.44542
2581.03233 -0.44546
2578.98389 -0.44516
2576.93545 -0.44426
2574.88702 -0.44276
2572.83858 -0.44115
2570.79014 -0.43998
2568.74170 -0.43938
2566.69326 -0.43907
2564.64482 -0.43912
2562.59639 -0.43922
2560.54795 -0.43902
2558.49951 -0.43860
2556.45107 -0.43759
2554.40263 -0.43660
2552.35419 -0.43645
2550.30576 -0.43599
2548.25732 -0.43427
2546.20888 -0.43256
2544.16044 -0.43233
2542.11200 -0.43311
2540.06356 -0.43351
2538.01513 -0.43320
2535.96669 -0.43308
2533.91825 -0.43349
2531.86981 -0.43369
2529.82137 -0.43359
2527.77293 -0.43391
2525.72450 -0.43458
2523.67606 -0.43497
2521.62762 -0.43478
2519.57918 -0.43434
2517.53074 -0.43405
2515.48230 -0.43400
2513.43387 -0.43432
2511.38543 -0.43470
2509.33699 -0.43469
2507.28855 -0.43464
2505.24011 -0.43476
2503.19167 -0.43502
2501.14324 -0.43482
2499.09480 -0.43368
2497.04636 -0.43303
2494.99792 -0.43375
2492.94948 -0.43448
2490.90104 -0.43518
2488.85260 -0.43671
2486.80417 -0.43820
2484.75573 -0.43855
2482.70729 -0.43779
2480.65885 -0.43676
2478.61041 -0.43664
2476.56197 -0.43769
2474.51354 -0.43850
2472.46510 -0.43827
2470.41666 -0.43810
2468.36822 -0.43834
2466.31978 -0.43789
2464.27134 -0.43674
2462.22291 -0.43536
2460.17447 -0.43413
2458.12603 -0.43446
2456.07759 -0.43604
2454.02915 -0.43634
2451.98071 -0.43482
2449.93228 -0.43356
2447.88384 -0.43330
2445.83540 -0.43248
2443.78696 -0.43092
2441.73852 -0.43085
2439.69008 -0.43193
2437.64165 -0.43180
2435.59321 -0.43093
2433.54477 -0.43039
2431.49633 -0.43022
2429.44789 -0.43020
2427.39945 -0.42950
2425.35102 -0.42799
2423.30258 -0.42666
2421.25414 -0.42621
2419.20570 -0.42644
2417.15726 -0.42696
2415.10882 -0.42729
2413.06039 -0.42676
2411.01195 -0.42604
2408.96351 -0.42663
2406.91507 -0.42747
2404.86663 -0.42653
2402.81819 -0.42454
2400.76976 -0.42353
2398.72132 -0.42408
2396.67288 -0.42533
2394.62444 -0.42631
2392.57600 -0.42665
2390.52756 -0.42689
2388.47913 -0.42729
2386.43069 -0.42755
2384.38225 -0.42779
2382.33381 -0.42820
2380.28537 -0.42883
2378.23693 -0.43062
2376.18850 -0.43475
2374.14006 -0.43986
2372.09162 -0.44257
2370.04318 -0.44280
2367.99474 -0.44181
2365.94630 -0.44048
2363.89787 -0.44352
2361.84943 -0.45131
2359.80099 -0.45678
2357.75255 -0.45178
2355.70411 -0.44223
2353.65567 -0.44099
2351.60723 -0.44299
2349.55880 -0.44256
2347.51036 -0.44168
2345.46192 -0.44118
2343.41348 -0.44316
2341.36504 -0.44962
2339.31660 -0.45291
2337.26817 -0.44924
2335.21973 -0.44487
2333.17129 -0.44491
2331.12285 -0.44737
2329.07441 -0.44742
2327.02597 -0.44528
2324.97754 -0.44307
2322.92910 -0.44226
2320.88066 -0.44343
2318.83222 -0.44490
2316.78378 -0.44522
2314.73534 -0.44429
2312.68691 -0.44289
2310.63847 -0.44098
2308.59003 -0.43933
2306.54159 -0.43968
2304.49315 -0.44071
2302.44471 -0.44082
2300.39628 -0.44050
2298.34784 -0.44020
2296.29940 -0.44027
2294.25096 -0.44065
2292.20252 -0.44066
2290.15408 -0.44055
2288.10565 -0.44105
2286.05721 -0.44172
2284.00877 -0.44170
2281.96033 -0.44146
2279.91189 -0.44175
2277.86345 -0.44225
2275.81502 -0.44247
2273.76658 -0.44272
2271.71814 -0.44344
2269.66970 -0.44384
2267.62126 -0.44341
2265.57282 -0.44341
2263.52439 -0.44403
2261.47595 -0.44399
2259.42751 -0.44341
2257.37907 -0.44321
2255.33063 -0.44330
2253.28219 -0.44326
2251.23376 -0.44302
2249.18532 -0.44245
2247.13688 -0.44159
2245.08844 -0.44104
2243.04000 -0.44082
2240.99156 -0.44059
2238.94313 -0.44049
2236.89469 -0.44072
2234.84625 -0.44096
2232.79781 -0.44059
2230.74937 -0.44015
2228.70093 -0.44027
2226.65250 -0.44032
2224.60406 -0.44010
2222.55562 -0.43986
2220.50718 -0.43931
2218.45874 -0.43843
2216.41030 -0.43747
2214.36186 -0.43648
2212.31343 -0.43591
2210.26499 -0.43621
2208.21655 -0.43680
2206.16811 -0.43738
2204.11967 -0.43816
2202.07123 -0.43833
2200.02280 -0.43719
2197.97436 -0.43617
2195.92592 -0.43617
2193.87748 -0.43601
2191.82904 -0.43537
2189.78060 -0.43494
2187.73217 -0.43488
2185.68373 -0.43488
2183.63529 -0.43436
2181.58685 -0.43382
2179.53841 -0.43404
2177.48997 -0.43399
2175.44154 -0.43309
2173.39310 -0.43276
2171.34466 -0.43356
2169.29622 -0.43422
2167.24778 -0.43328
2165.19934 -0.43111
2163.15091 -0.42987
2161.10247 -0.43041
2159.05403 -0.43175
2157.00559 -0.43278
2154.95715 -0.43282
2152.90871 -0.43258
2150.86028 -0.43267
2148.81184 -0.43209
2146.76340 -0.43116
2144.71496 -0.43073
2142.66652 -0.43012
2140.61808 -0.42931
2138.56965 -0.42933
2136.52121 -0.43007
2134.47277 -0.43022
2132.42433 -0.42952
2130.37589 -0.42845
2128.32745 -0.42728
2126.27902 -0.42635
2124.23058 -0.42541
2122.18214 -0.42462
2120.13370 -0.42470
2118.08526 -0.42427
2116.03682 -0.42231
2113.98839 -0.42016
2111.93995 -0.41864
2109.89151 -0.41803
2107.84307 -0.41823
2105.79463 -0.41814
2103.74619 -0.41671
2101.69776 -0.41395
2099.64932 -0.41150
2097.60088 -0.41032
2095.55244 -0.40930
2093.50400 -0.40769
2091.45556 -0.40622
2089.40713 -0.40511
2087.35869 -0.40370
2085.31025 -0.40249
2083.26181 -0.40158
2081.21337 -0.39986
2079.16493 -0.39812
2077.11649 -0.39813
2075.06806 -0.39854
2073.01962 -0.39718
2070.97118 -0.39516
2068.92274 -0.39423
2066.87430 -0.39406
2064.82586 -0.39341
2062.77743 -0.39153
2060.72899 -0.38919
2058.68055 -0.38777
2056.63211 -0.38722
2054.58367 -0.38722
2052.53523 -0.38839
2050.48680 -0.38935
2048.43836 -0.38797
2046.38992 -0.38571
2044.34148 -0.38478
2042.29304 -0.38435
2040.24460 -0.38362
2038.19617 -0.38348
2036.14773 -0.38368
2034.09929 -0.38346
2032.05085 -0.38317
2030.00241 -0.38315
2027.95397 -0.38327
2025.90554 -0.38380
2023.85710 -0.38496
2021.80866 -0.38573
2019.76022 -0.38600
2017.71178 -0.38651
2015.66334 -0.38667
2013.61491 -0.38696
2011.56647 -0.38824
2009.51803 -0.38956
2007.46959 -0.39009
2005.42115 -0.39046
2003.37271 -0.39172
2001.32428 -0.39325
1999.27584 -0.39409
1997.22740 -0.39431
1995.17896 -0.39452
1993.13052 -0.39550
1991.08208 -0.39703
1989.03365 -0.39845
1986.98521 -0.39986
1984.93677 -0.40100
1982.88833 -0.40171
1980.83989 -0.40240
1978.79145 -0.40327
1976.74302 -0.40465
1974.69458 -0.40623
1972.64614 -0.40710
1970.59770 -0.40774
1968.54926 -0.40880
1966.50082 -0.40972
1964.45239 -0.41060
1962.40395 -0.41184
1960.35551 -0.41287
1958.30707 -0.41365
1956.25863 -0.41450
1954.21019 -0.41551
1952.16176 -0.41642
1950.11332 -0.41714
1948.06488 -0.41832
1946.01644 -0.41937
1943.96800 -0.42003
1941.91956 -0.42050
1939.87112 -0.41995
1937.82269 -0.41987
1935.77425 -0.42111
1933.72581 -0.42219
1931.67737 -0.42295
1929.62893 -0.42397
1927.58049 -0.42458
1925.53206 -0.42407
1923.48362 -0.42353
1921.43518 -0.42399
1919.38674 -0.42490
1917.33830 -0.42631
1915.28986 -0.42720
1913.24143 -0.42631
1911.19299 -0.42537
1909.14455 -0.42650
1907.09611 -0.42830
1905.04767 -0.42895
1902.99923 -0.42952
1900.95080 -0.43048
1898.90236 -0.43082
1896.85392 -0.43069
1894.80548 -0.43024
1892.75704 -0.42938
1890.70860 -0.42911
1888.66017 -0.43016
1886.61173 -0.43150
1884.56329 -0.43199
1882.51485 -0.43158
1880.46641 -0.43141
1878.41797 -0.43244
1876.36954 -0.43392
1874.32110 -0.43494
1872.27266 -0.43505
1870.22422 -0.43526
1868.17578 -0.43743
1866.12734 -0.44018
1864.07891 -0.44179
1862.03047 -0.44220
1859.98203 -0.44197
1857.93359 -0.44299
1855.88515 -0.44586
1853.83671 -0.44892
1851.78828 -0.45063
1849.73984 -0.45122
1847.69140 -0.45192
1845.64296 -0.45265
1843.59452 -0.45419
1841.54608 -0.45669
1839.49765 -0.45845
1837.44921 -0.45990
1835.40077 -0.46159
1833.35233 -0.46291
1831.30389 -0.46358
1829.25545 -0.46451
1827.20702 -0.46508
1825.15858 -0.46500
1823.11014 -0.46649
1821.06170 -0.46963
1819.01326 -0.47254
1816.96482 -0.47410
1814.91639 -0.47517
1812.86795 -0.47606
1810.81951 -0.47650
1808.77107 -0.47684
1806.72263 -0.47698
1804.67419 -0.47730
1802.62575 -0.47856
1800.57732 -0.48066
1798.52888 -0.48267
1796.48044 -0.48291
1794.43200 -0.48165
1792.38356 -0.48228
1790.33512 -0.48514
1788.28669 -0.48635
1786.23825 -0.48551
1784.18981 -0.48397
1782.14137 -0.48337
1780.09293 -0.48418
1778.04449 -0.48563
1775.99606 -0.48611
1773.94762 -0.48459
1771.89918 -0.48234
1769.85074 -0.48158
1767.80230 -0.48181
1765.75386 -0.48230
1763.70543 -0.48233
1761.65699 -0.48186
1759.60855 -0.48048
1757.56011 -0.47853
1755.51167 -0.47700
1753.46323 -0.47485
1751.41480 -0.47193
1749.36636 -0.47106
1747.31792 -0.47210
1745.26948 -0.47272
1743.22104 -0.47268
1741.17260 -0.47124
1739.12417 -0.46937
1737.07573 -0.46822
1735.02729 -0.46819
1732.97885 -0.47001
1730.93041 -0.47003
1728.88197 -0.46933
1726.83354 -0.46897
1724.78510 -0.46815
1722.73666 -0.46675
1720.68822 -0.46447
1718.63978 -0.46156
1716.59134 -0.46043
1714.54291 -0.46078
1712.49447 -0.46060
1710.44603 -0.46135
1708.39759 -0.46236
1706.34915 -0.46208
1704.30071 -0.46144
1702.25228 -0.46160
1700.20384 -0.46251
1698.15540 -0.46304
1696.10696 -0.46382
1694.05852 -0.46477
1692.01008 -0.46392
1689.96165 -0.46263
1687.91321 -0.46214
1685.86477 -0.46258
1683.81633 -0.46550
1681.76789 -0.46677
1679.71945 -0.46554
1677.67102 -0.46432
1675.62258 -0.46492
1673.57414 -0.46684
1671.52570 -0.46656
1669.47726 -0.46624
1667.42882 -0.46754
1665.38038 -0.46757
1663.33195 -0.46717
1661.28351 -0.46780
1659.23507 -0.46806
1657.18663 -0.46696
1655.13819 -0.46530
1653.08975 -0.46716
1651.04132 -0.46917
1648.99288 -0.46767
1646.94444 -0.46809
1644.89600 -0.46825
1642.84756 -0.46523
1640.79912 -0.46267
1638.75069 -0.46076
1636.70225 -0.45855
1634.65381 -0.45850
1632.60537 -0.45826
1630.55693 -0.45577
1628.50849 -0.45187
1626.46006 -0.44896
1624.41162 -0.44746
1622.36318 -0.44483
1620.31474 -0.44196
1618.26630 -0.44036
1616.21786 -0.44046
1614.16943 -0.44026
1612.12099 -0.43791
1610.07255 -0.43455
1608.02411 -0.43251
1605.97567 -0.43203
1603.92723 -0.43114
1601.87880 -0.42957
1599.83036 -0.42825
1597.78192 -0.42662
1595.73348 -0.42423
1593.68504 -0.42282
1591.63660 -0.42222
1589.58817 -0.42115
1587.53973 -0.42016
1585.49129 -0.41876
1583.44285 -0.41687
1581.39441 -0.41564
1579.34597 -0.41495
1577.29754 -0.41456
1575.24910 -0.41442
1573.20066 -0.41259
1571.15222 -0.40956
1569.10378 -0.40818
1567.05534 -0.40877
1565.00691 -0.40954
1562.95847 -0.41013
1560.91003 -0.40958
1558.86159 -0.40967
1556.81315 -0.41065
1554.76471 -0.41042
1552.71628 -0.41063
1550.66784 -0.41096
1548.61940 -0.41115
1546.57096 -0.41009
1544.52252 -0.40774
1542.47408 -0.40572
1540.42565 -0.40557
1538.37721 -0.40805
1536.32877 -0.40843
1534.28033 -0.40745
1532.23189 -0.40806
1530.18345 -0.40906
1528.13501 -0.40952
1526.08658 -0.41059
1524.03814 -0.41049
1521.98970 -0.40949
1519.94126 -0.41049
1517.89282 -0.41154
1515.84438 -0.41166
1513.79595 -0.41110
1511.74751 -0.41030
1509.69907 -0.40842
1507.65063 -0.40625
1505.60219 -0.41081
1503.55375 -0.41318
1501.50532 -0.41298
1499.45688 -0.41314
1497.40844 -0.41466
1495.36000 -0.41545
1493.31156 -0.41384
1491.26312 -0.41153
1489.21469 -0.41189
1487.16625 -0.41569
1485.11781 -0.41796
1483.06937 -0.41767
1481.02093 -0.41677
1478.97249 -0.41707
1476.92406 -0.41819
1474.87562 -0.41886
1472.82718 -0.42010
1470.77874 -0.42323
1468.73030 -0.42495
1466.68186 -0.42574
1464.63343 -0.42753
1462.58499 -0.42852
1460.53655 -0.42637
1458.48811 -0.42346
1456.43967 -0.42812
1454.39123 -0.43298
1452.34280 -0.43328
1450.29436 -0.43265
1448.24592 -0.43306
1446.19748 -0.43509
1444.14904 -0.43671
1442.10060 -0.43740
1440.05217 -0.43764
1438.00373 -0.43776
1435.95529 -0.43904
1433.90685 -0.44036
1431.85841 -0.44037
1429.80997 -0.43990
1427.76154 -0.44006
1425.71310 -0.44116
1423.66466 -0.44257
1421.61622 -0.44288
1419.56778 -0.44376
1417.51934 -0.44749
1415.47091 -0.44948
1413.42247 -0.44959
1411.37403 -0.45043
1409.32559 -0.45230
1407.27715 -0.45401
1405.22871 -0.45544
1403.18028 -0.45636
1401.13184 -0.45620
1399.08340 -0.45543
1397.03496 -0.45524
1394.98652 -0.45641
1392.93808 -0.45681
1390.88965 -0.45580
1388.84121 -0.45569
1386.79277 -0.45761
1384.74433 -0.45940
1382.69589 -0.45993
1380.64745 -0.46014
1378.59901 -0.46044
1376.55058 -0.46017
1374.50214 -0.46023
1372.45370 -0.46191
1370.40526 -0.46287
1368.35682 -0.46192
1366.30838 -0.46031
1364.25995 -0.45989
1362.21151 -0.46103
1360.16307 -0.46126
1358.11463 -0.45992
1356.06619 -0.45824
1354.01775 -0.45722
1351.96932 -0.45696
1349.92088 -0.45667
1347.87244 -0.45610
1345.82400 -0.45534
1343.77556 -0.45480
1341.72712 -0.45459
1339.67869 -0.45422
1337.63025 -0.45342
1335.58181 -0.45293
1333.53337 -0.45333
1331.48493 -0.45409
1329.43649 -0.45398
1327.38806 -0.45261
1325.33962 -0.45175
1323.29118 -0.45233
1321.24274 -0.45279
1319.19430 -0.45294
1317.14586 -0.45370
1315.09743 -0.45433
1313.04899 -0.45459
1311.00055 -0.45561
1308.95211 -0.45721
1306.90367 -0.45827
1304.85523 -0.45881
1302.80680 -0.45960
1300.75836 -0.46062
1298.70992 -0.46146
1296.66148 -0.46228
1294.61304 -0.46327
1292.56460 -0.46351
1290.51617 -0.46350
1288.46773 -0.46479
1286.41929 -0.46652
1284.37085 -0.46757
1282.32241 -0.46767
1280.27397 -0.46720
1278.22554 -0.46725
1276.17710 -0.46756
1274.12866 -0.46742
1272.08022 -0.46707
1270.03178 -0.46588
1267.98334 -0.46304
1265.93491 -0.45999
1263.88647 -0.45796
1261.83803 -0.45715
1259.78959 -0.45729
1257.74115 -0.45647
1255.69271 -0.45379
1253.64428 -0.45056
1251.59584 -0.44756
1249.54740 -0.44499
1247.49896 -0.44269
1245.45052 -0.44034
1243.40208 -0.43808
1241.35364 -0.43633
1239.30521 -0.43478
1237.25677 -0.43185
1235.20833 -0.42773
1233.15989 -0.42451
1231.11145 -0.42262
1229.06301 -0.42097
1227.01458 -0.41875
1224.96614 -0.41607
1222.91770 -0.41311
1220.86926 -0.40976
1218.82082 -0.40636
1216.77238 -0.40387
1214.72395 -0.40223
1212.67551 -0.40047
1210.62707 -0.39854
1208.57863 -0.39651
1206.53019 -0.39445
1204.48175 -0.39257
1202.43332 -0.39068
1200.38488 -0.38887
1198.33644 -0.38711
1196.28800 -0.38551
1194.23956 -0.38413
1192.19112 -0.38236
1190.14269 -0.38086
1188.09425 -0.38074
1186.04581 -0.38139
1183.99737 -0.38161
1181.94893 -0.38163
1179.90049 -0.38188
1177.85206 -0.38184
1175.80362 -0.38209
1173.75518 -0.38387
1171.70674 -0.38607
1169.65830 -0.38669
1167.60986 -0.38586
1165.56143 -0.38495
1163.51299 -0.38531
1161.46455 -0.38687
1159.41611 -0.38899
1157.36767 -0.39152
1155.31923 -0.39284
1153.27080 -0.39232
1151.22236 -0.39165
1149.17392 -0.39264
1147.12548 -0.39488
1145.07704 -0.39518
1143.02860 -0.39357
1140.98017 -0.39311
1138.93173 -0.39393
1136.88329 -0.39476
1134.83485 -0.39524
1132.78641 -0.39468
1130.73797 -0.39303
1128.68954 -0.39225
1126.64110 -0.39310
1124.59266 -0.39345
1122.54422 -0.39266
1120.49578 -0.39088
1118.44734 -0.38800
1116.39891 -0.38604
1114.35047 -0.38573
1112.30203 -0.38541
1110.25359 -0.38418
1108.20515 -0.38326
1106.15671 -0.38275
1104.10827 -0.38061
1102.05984 -0.37780
1100.01140 -0.37531
1097.96296 -0.37161
1095.91452 -0.36848
1093.86608 -0.36870
1091.81764 -0.36977
1089.76921 -0.36748
1087.72077 -0.36330
1085.67233 -0.36172
1083.62389 -0.36270
1081.57545 -0.36317
1079.52701 -0.36275
1077.47858 -0.36216
1075.43014 -0.36104
1073.38170 -0.36057
1071.33326 -0.36131
1069.28482 -0.36172
1067.23638 -0.36103
1065.18795 -0.35988
1063.13951 -0.36010
1061.09107 -0.36128
1059.04263 -0.36099
1056.99419 -0.36053
1054.94575 -0.36199
1052.89732 -0.36447
1050.84888 -0.36620
1048.80044 -0.36586
1046.75200 -0.36627
1044.70356 -0.36987
1042.65512 -0.37283
1040.60669 -0.37388
1038.55825 -0.37442
1036.50981 -0.37376
1034.46137 -0.37277
1032.41293 -0.37270
1030.36449 -0.37333
1028.31606 -0.37421
1026.26762 -0.37398
1024.21918 -0.37127
1022.17074 -0.36979
1020.12230 -0.37305
1018.07386 -0.37670
1016.02543 -0.37637
1013.97699 -0.37460
1011.92855 -0.37350
1009.88011 -0.37188
1007.83167 -0.36951
1005.78323 -0.36691
1003.73480 -0.36588
1001.68636 -0.36657
999.63792 -0.36617
997.58948 -0.36297
995.54104 -0.35828
993.49260 -0.35567
991.44417 -0.35522
989.39573 -0.35539
987.34729 -0.35534
985.29885 -0.35409
983.25041 -0.35420
981.20197 -0.35565
979.15354 -0.35386
977.10510 -0.34919
975.05666 -0.34497
973.00822 -0.34234
970.95978 -0.34162
968.91134 -0.33963
966.86290 -0.33546
964.81447 -0.33415
962.76603 -0.33482
960.71759 -0.33423
958.66915 -0.33148
956.62071 -0.32641
954.57227 -0.32447
952.52384 -0.32583
950.47540 -0.32464
948.42696 -0.32264
946.37852 -0.32505
944.33008 -0.33259
942.28164 -0.34336
940.23321 -0.35529
938.18477 -0.36670
936.13633 -0.37794
934.08789 -0.38982
932.03945 -0.40198
929.99101 -0.41332
927.94258 -0.42200
925.89414 -0.42734
923.84570 -0.43162
921.79726 -0.43593
919.74882 -0.43787
917.70038 -0.43558
915.65195 -0.43093
913.60351 -0.42690
911.55507 -0.42450
909.50663 -0.42266
907.45819 -0.41910
905.40975 -0.41380
903.36132 -0.40816
901.31288 -0.40357
899.26444 -0.40116
897.21600 -0.39965
895.16756 -0.39699
893.11912 -0.39165
891.07069 -0.38457
889.02225 -0.37922
886.97381 -0.37621
884.92537 -0.37343
882.87693 -0.37088
880.82849 -0.36920
878.78006 -0.36678
876.73162 -0.36277
874.68318 -0.35809
872.63474 -0.35362
870.58630 -0.35119
868.53786 -0.35064
866.48943 -0.34956
864.44099 -0.34996
862.39255 -0.35391
860.34411 -0.35712
858.29567 -0.35573
856.24723 -0.35317
854.19880 -0.35239
852.15036 -0.35300
850.10192 -0.35588
848.05348 -0.35953
846.00504 -0.36154
843.95660 -0.36206
841.90817 -0.36307
839.85973 -0.36621
837.81129 -0.36985
835.76285 -0.37104
833.71441 -0.37068
831.66597 -0.37160
829.61753 -0.37291
827.56910 -0.37330
825.52066 -0.37290
823.47222 -0.37157
821.42378 -0.37002
819.37534 -0.36830
817.32690 -0.36543
815.27847 -0.36196
813.23003 -0.35968
811.18159 -0.35904
809.13315 -0.35735
807.08471 -0.35412
805.03627 -0.35237
802.98784 -0.35157
800.93940 -0.35041
798.89096 -0.34998
796.84252 -0.35042
794.79408 -0.35055
792.74564 -0.34893
790.69721 -0.34586
788.64877 -0.34343
786.60033 -0.34253
784.55189 -0.34178
782.50345 -0.34034
780.45501 -0.33940
778.40658 -0.33925
776.35814 -0.33825
774.30970 -0.33651
772.26126 -0.33559
770.21282 -0.33542
768.16438 -0.33676
766.11595 -0.33790
764.06751 -0.33388
762.01907 -0.32610
759.97063 -0.32126
757.92219 -0.32210
755.87375 -0.32578
753.82532 -0.32732
751.77688 -0.32545
749.72844 -0.32474
747.68000 -0.32572
745.63156 -0.32233
743.58312 -0.31591
741.53469 -0.31244
739.48625 -0.31108
737.43781 -0.30828
735.38937 -0.30260
733.34093 -0.29860
731.29249 -0.29928
729.24406 -0.30025
727.19562 -0.30266
725.14718 -0.30695
723.09874 -0.30521
721.05030 -0.29682
719.00186 -0.28996
716.95343 -0.28723
714.90499 -0.28295
712.85655 -0.27989
710.80811 -0.28341
708.75967 -0.28717
706.71123 -0.28829
704.66280 -0.28788
702.61436 -0.28403
700.56592 -0.27974
698.51748 -0.27776
696.46904 -0.27656
694.42060 -0.27957
692.37216 -0.28736
690.32373 -0.30135
688.27529 -0.32478
686.22685 -0.33500
684.17841 -0.31836
682.12997 -0.29515
680.08153 -0.28378
678.03310 -0.28344
675.98466 -0.28969
673.93622 -0.30611
671.88778 -0.32182
669.83934 -0.32278
667.79090 -0.31051
665.74247 -0.30064
663.69403 -0.29853
661.64559 -0.30537
659.59715 -0.31735
657.54871 -0.32593
655.50027 -0.33453
653.45184 -0.35177
651.40340 -0.36914
649.35496 -0.37845
647.30652 -0.38456
645.25808 -0.37889
643.20964 -0.35662
641.16121 -0.33870
639.11277 -0.34386
637.06433 -0.36192
635.01589 -0.36282
632.96745 -0.34812
630.91901 -0.35281
628.87058 -0.38075
626.82214 -0.39636
624.77370 -0.37893
622.72526 -0.35409
620.67682 -0.34604
618.62838 -0.33443
616.57995 -0.28809
614.53151 -0.24120
612.48307 -0.22582
610.43463 -0.22587
608.38619 -0.24161
606.33775 -0.26502
604.28932 -0.26134
602.24088 -0.24785
600.19244 -0.24190
598.14400 -0.22641
