3996.50324 0.28592
3994.45480 0.28538
3992.40636 0.28342
3990.35792 0.28163
3988.30948 0.28191
3986.26104 0.28282
3984.21261 0.28206
3982.16417 0.27979
3980.11573 0.27902
3978.06729 0.28200
3976.01885 0.28483
3973.97041 0.28325
3971.92198 0.27932
3969.87354 0.27670
3967.82510 0.27611
3965.77666 0.27731
3963.72822 0.27968
3961.67978 0.28096
3959.63135 0.28002
3957.58291 0.27852
3955.53447 0.27910
3953.48603 0.28093
3951.43759 0.28091
3949.38915 0.27939
3947.34072 0.27752
3945.29228 0.27617
3943.24384 0.27676
3941.19540 0.27933
3939.14696 0.28175
3937.09852 0.28277
3935.05009 0.28277
3933.00165 0.28197
3930.95321 0.28168
3928.90477 0.28175
3926.85633 0.28115
3924.80789 0.28046
3922.75946 0.28000
3920.71102 0.28041
3918.66258 0.28241
3916.61414 0.28423
3914.56570 0.28396
3912.51726 0.28364
3910.46883 0.28299
3908.42039 0.28268
3906.37195 0.28642
3904.32351 0.29220
3902.27507 0.29345
3900.22663 0.29228
3898.17820 0.29059
3896.12976 0.28862
3894.08132 0.28714
3892.03288 0.28375
3889.98444 0.28008
3887.93600 0.28011
3885.88756 0.28112
3883.83913 0.28174
3881.79069 0.28238
3879.74225 0.28249
3877.69381 0.28403
3875.64537 0.28619
3873.59693 0.28512
3871.54850 0.28060
3869.50006 0.27865
3867.45162 0.28305
3865.40318 0.28865
3863.35474 0.29008
3861.30630 0.28772
3859.25787 0.28661
3857.20943 0.28791
3855.16099 0.28801
3853.11255 0.28160
3851.06411 0.27899
3849.01567 0.28156
3846.96724 0.28351
3844.91880 0.28384
3842.87036 0.28479
3840.82192 0.28738
3838.77348 0.28696
3836.72504 0.28321
3834.67661 0.28181
3832.62817 0.28264
3830.57973 0.28372
3828.53129 0.28346
3826.48285 0.28182
3824.43441 0.28168
3822.38598 0.28614
3820.33754 0.29043
3818.28910 0.28815
3816.24066 0.28311
3814.19222 0.28032
3812.14378 0.28260
3810.09535 0.28493
3808.04691 0.28377
3805.99847 0.28057
3803.95003 0.27946
3801.90159 0.28032
3799.85315 0.28338
3797.80472 0.28674
3795.75628 0.28509
3793.70784 0.28210
3791.65940 0.28383
3789.61096 0.28668
3787.56252 0.28615
3785.51409 0.28525
3783.46565 0.28690
3781.41721 0.28802
3779.36877 0.28565
3777.32033 0.28320
3775.27189 0.28385
3773.22346 0.28461
3771.17502 0.28516
3769.12658 0.28601
3767.07814 0.28690
3765.02970 0.28808
3762.98126 0.28821
3760.93283 0.28816
3758.88439 0.28851
3756.83595 0.28820
3754.78751 0.28700
3752.73907 0.28651
3750.69063 0.29115
3748.64219 0.29414
3746.59376 0.29049
3744.54532 0.28709
3742.49688 0.28694
3740.44844 0.28762
3738.40000 0.28933
3736.35156 0.29315
3734.30313 0.29618
3732.25469 0.29414
3730.20625 0.29100
3728.15781 0.28945
3726.10937 0.29081
3724.06093 0.29396
3722.01250 0.29530
3719.96406 0.29568
3717.91562 0.29523
3715.86718 0.29193
3713.81874 0.28843
3711.77030 0.28826
3709.72187 0.28652
3707.67343 0.28366
3705.62499 0.28383
3703.57655 0.28577
3701.52811 0.28787
3699.47967 0.28924
3697.43124 0.29080
3695.38280 0.29147
3693.33436 0.28885
3691.28592 0.28314
3689.23748 0.27786
3687.18904 0.27904
3685.14061 0.28268
3683.09217 0.28422
3681.04373 0.28497
3678.99529 0.28703
3676.94685 0.28790
3674.89841 0.28422
3672.84998 0.28120
3670.80154 0.27921
3668.75310 0.27527
3666.70466 0.27283
3664.65622 0.27154
3662.60778 0.27050
3660.55935 0.27067
3658.51091 0.26986
3656.46247 0.26755
3654.41403 0.26874
3652.36559 0.27272
3650.31715 0.27351
3648.26872 0.26506
3646.22028 0.25884
3644.17184 0.25598
3642.12340 0.25354
3640.07496 0.25198
3638.02652 0.25127
3635.97809 0.25144
3633.92965 0.25064
3631.88121 0.24765
3629.83277 0.24502
3627.78433 0.24315
3625.73589 0.24013
3623.68746 0.23945
3621.63902 0.24171
3619.59058 0.24171
3617.54214 0.23749
3615.49370 0.23287
3613.44526 0.22568
3611.39682 0.21682
3609.34839 0.21212
3607.29995 0.21358
3605.25151 0.21741
3603.20307 0.21916
3601.15463 0.21745
3599.10619 0.21371
3597.05776 0.20903
3595.00932 0.20253
3592.96088 0.19706
3590.91244 0.19456
3588.86400 0.19270
3586.81556 0.19150
3584.76713 0.19056
3582.71869 0.18812
3580.67025 0.18585
3578.62181 0.18329
3576.57337 0.17861
3574.52493 0.17535
3572.47650 0.17640
3570.42806 0.17757
3568.37962 0.17448
3566.33118 0.17032
3564.28274 0.16910
3562.23430 0.16755
3560.18587 0.16668
3558.13743 0.16671
3556.08899 0.16458
3554.04055 0.16005
3551.99211 0.15652
3549.94367 0.15591
3547.89524 0.15651
3545.84680 0.15430
3543.79836 0.14967
3541.74992 0.14901
3539.70148 0.15104
3537.65304 0.15152
3535.60461 0.14996
3533.55617 0.14726
3531.50773 0.14430
3529.45929 0.14291
3527.41085 0.14066
3525.36241 0.13534
3523.31398 0.13371
3521.26554 0.13457
3519.21710 0.13089
3517.16866 0.12818
3515.12022 0.13148
3513.07178 0.13448
3511.02335 0.13335
3508.97491 0.12965
3506.92647 0.12551
3504.87803 0.12359
3502.82959 0.12327
3500.78115 0.12248
3498.73272 0.12225
3496.68428 0.12380
3494.63584 0.12605
3492.58740 0.12624
3490.53896 0.12500
3488.49052 0.12530
3486.44209 0.12517
3484.39365 0.12272
3482.34521 0.12217
3480.29677 0.12512
3478.24833 0.12634
3476.19989 0.12398
3474.15146 0.12101
3472.10302 0.11873
3470.05458 0.11578
3468.00614 0.11323
3465.95770 0.11485
3463.90926 0.11638
3461.86082 0.11347
3459.81239 0.11318
3457.76395 0.11668
3455.71551 0.11763
3453.66707 0.11685
3451.61863 0.11770
3449.57019 0.11855
3447.52176 0.11657
3445.47332 0.11374
3443.42488 0.11331
3441.37644 0.11383
3439.32800 0.11374
3437.27956 0.11316
3435.23113 0.11115
3433.18269 0.10834
3431.13425 0.10819
3429.08581 0.10932
3427.03737 0.10817
3424.98893 0.10625
3422.94050 0.10608
3420.89206 0.10800
3418.84362 0.10916
3416.79518 0.10810
3414.74674 0.10607
3412.69830 0.10439
3410.64987 0.10497
3408.60143 0.10739
3406.55299 0.10979
3404.50455 0.11050
3402.45611 0.10910
3400.40767 0.10870
3398.35924 0.10920
3396.31080 0.10625
3394.26236 0.10002
3392.21392 0.09471
3390.16548 0.09299
3388.11704 0.09468
3386.06861 0.09762
3384.02017 0.09892
3381.97173 0.09883
3379.92329 0.09932
3377.87485 0.10006
3375.82641 0.10047
3373.77798 0.09980
3371.72954 0.09877
3369.68110 0.09967
3367.63266 0.10046
3365.58422 0.09834
3363.53578 0.09558
3361.48735 0.09350
3359.43891 0.09121
3357.39047 0.09193
3355.34203 0.09793
3353.29359 0.10159
3351.24515 0.09836
3349.19672 0.09543
3347.14828 0.09417
3345.09984 0.09298
3343.05140 0.09357
3341.00296 0.09221
3338.95452 0.08821
3336.90609 0.08682
3334.85765 0.08931
3332.80921 0.09256
3330.76077 0.09532
3328.71233 0.09502
3326.66389 0.08978
3324.61545 0.08613
3322.56702 0.08630
3320.51858 0.08626
3318.47014 0.08731
3316.42170 0.08983
3314.37326 0.08907
3312.32482 0.08511
3310.27639 0.08389
3308.22795 0.08512
3306.17951 0.08501
3304.13107 0.08540
3302.08263 0.08670
3300.03419 0.08485
3297.98576 0.07978
3295.93732 0.07813
3293.88888 0.08229
3291.84044 0.08481
3289.79200 0.08301
3287.74356 0.08230
3285.69513 0.08340
3283.64669 0.08589
3281.59825 0.08853
3279.54981 0.08637
3277.50137 0.08250
3275.45293 0.08224
3273.40450 0.08328
3271.35606 0.08322
3269.30762 0.08235
3267.25918 0.08116
3265.21074 0.08041
3263.16230 0.08166
3261.11387 0.08346
3259.06543 0.08328
3257.01699 0.08303
3254.96855 0.08363
3252.92011 0.08332
3250.87167 0.08135
3248.82324 0.07814
3246.77480 0.07640
3244.72636 0.07702
3242.67792 0.07740
3240.62948 0.07719
3238.58104 0.07790
3236.53261 0.07879
3234.48417 0.07744
3232.43573 0.07524
3230.38729 0.07481
3228.33885 0.07484
3226.29041 0.07472
3224.24198 0.07586
3222.19354 0.07719
3220.14510 0.07751
3218.09666 0.07950
3216.04822 0.08251
3213.99978 0.08153
3211.95135 0.07577
3209.90291 0.07033
3207.85447 0.07056
3205.80603 0.07483
3203.75759 0.07720
3201.70915 0.07577
3199.66072 0.07347
3197.61228 0.07264
3195.56384 0.07384
3193.51540 0.07691
3191.46696 0.07904
3189.41852 0.07687
3187.37008 0.07306
3185.32165 0.07178
3183.27321 0.07153
3181.22477 0.07159
3179.17633 0.07380
3177.12789 0.07578
3175.07945 0.07413
3173.03102 0.07106
3170.98258 0.06996
3168.93414 0.07149
3166.88570 0.07376
3164.83726 0.07405
3162.78882 0.07387
3160.74039 0.07513
3158.69195 0.07519
3156.64351 0.07339
3154.59507 0.07309
3152.54663 0.07574
3150.49819 0.07844
3148.44976 0.07796
3146.40132 0.07523
3144.35288 0.07383
3142.30444 0.07598
3140.25600 0.07897
3138.20756 0.08022
3136.15913 0.08029
3134.11069 0.07827
3132.06225 0.07498
3130.01381 0.07391
3127.96537 0.07641
3125.91693 0.07953
3123.86850 0.08003
3121.82006 0.07838
3119.77162 0.07724
3117.72318 0.07812
3115.67474 0.08023
3113.62630 0.08229
3111.57787 0.08194
3109.52943 0.07960
3107.48099 0.07893
3105.43255 0.08010
3103.38411 0.08000
3101.33567 0.07798
3099.28724 0.07728
3097.23880 0.07877
3095.19036 0.07911
3093.14192 0.07775
3091.09348 0.07780
3089.04504 0.07992
3086.99661 0.08152
3084.94817 0.08101
3082.89973 0.08133
3080.85129 0.08410
3078.80285 0.08561
3076.75441 0.08450
3074.70598 0.08360
3072.65754 0.08472
3070.60910 0.08591
3068.56066 0.08533
3066.51222 0.08495
3064.46378 0.08648
3062.41535 0.08856
3060.36691 0.08979
3058.31847 0.09027
3056.27003 0.09135
3054.22159 0.09381
3052.17315 0.09524
3050.12471 0.09344
3048.07628 0.08997
3046.02784 0.08850
3043.97940 0.09017
3041.93096 0.09236
3039.88252 0.09420
3037.83408 0.09680
3035.78565 0.09760
3033.73721 0.09524
3031.68877 0.09281
3029.64033 0.09201
3027.59189 0.09166
3025.54345 0.09139
3023.49502 0.09225
3021.44658 0.09272
3019.39814 0.09189
3017.34970 0.09216
3015.30126 0.09380
3013.25282 0.09538
3011.20439 0.09633
3009.15595 0.09650
3007.10751 0.09752
3005.05907 0.09948
3003.01063 0.09987
3000.96219 0.09857
2998.91376 0.09655
2996.86532 0.09494
2994.81688 0.09484
2992.76844 0.09553
2990.72000 0.09695
2988.67156 0.09859
2986.62313 0.09886
2984.57469 0.09822
2982.52625 0.09780
2980.47781 0.09782
2978.42937 0.09826
2976.38093 0.09835
2974.33250 0.09837
2972.28406 0.09952
2970.23562 0.10082
2968.18718 0.10099
2966.13874 0.10102
2964.09030 0.10206
2962.04187 0.10212
2959.99343 0.09954
2957.94499 0.09740
2955.89655 0.09833
2953.84811 0.10060
2951.79967 0.10210
2949.75124 0.10265
2947.70280 0.10406
2945.65436 0.10648
2943.60592 0.10595
2941.55748 0.10268
2939.50904 0.10080
2937.46061 0.10071
2935.41217 0.10172
2933.36373 0.10333
2931.31529 0.10479
2929.26685 0.10585
2927.21841 0.10600
2925.16998 0.10422
2923.12154 0.10187
2921.07310 0.10160
2919.02466 0.10247
2916.97622 0.10314
2914.92778 0.10393
2912.87934 0.10494
2910.83091 0.10457
2908.78247 0.10175
2906.73403 0.09976
2904.68559 0.10024
2902.63715 0.10105
2900.58871 0.10189
2898.54028 0.10339
2896.49184 0.10466
2894.44340 0.10514
2892.39496 0.10553
2890.34652 0.10583
2888.29808 0.10574
2886.24965 0.10638
2884.20121 0.10692
2882.15277 0.10619
2880.10433 0.10711
2878.05589 0.11038
2876.00745 0.11283
2873.95902 0.11255
2871.91058 0.11048
2869.86214 0.10948
2867.81370 0.11091
2865.76526 0.11369
2863.71682 0.11482
2861.66839 0.11332
2859.61995 0.11204
2857.57151 0.11187
2855.52307 0.11195
2853.47463 0.11207
2851.42619 0.11183
2849.37776 0.11167
2847.32932 0.11282
2845.28088 0.11488
2843.23244 0.11637
2841.18400 0.11737
2839.13556 0.11786
2837.08713 0.11824
2835.03869 0.12010
2832.99025 0.12218
2830.94181 0.12235
2828.89337 0.12214
2826.84493 0.12341
2824.79650 0.12477
2822.74806 0.12455
2820.69962 0.12366
2818.65118 0.12360
2816.60274 0.12469
2814.55430 0.12668
2812.50587 0.12848
2810.45743 0.12865
2808.40899 0.12863
2806.36055 0.12990
2804.31211 0.13085
2802.26367 0.13162
2800.21524 0.13296
2798.16680 0.13351
2796.11836 0.13271
2794.06992 0.13136
2792.02148 0.13068
2789.97304 0.13118
2787.92461 0.13177
2785.87617 0.13179
2783.82773 0.13147
2781.77929 0.13044
2779.73085 0.13034
2777.68241 0.13271
2775.63397 0.13502
2773.58554 0.13578
2771.53710 0.13543
2769.48866 0.13406
2767.44022 0.13360
2765.39178 0.13419
2763.34334 0.13422
2761.29491 0.13482
2759.24647 0.13580
2757.19803 0.13615
2755.14959 0.13647
2753.10115 0.13609
2751.05271 0.13550
2749.00428 0.13631
2746.95584 0.13722
2744.90740 0.13631
2742.85896 0.13447
2740.81052 0.13369
2738.76208 0.13436
2736.71365 0.13551
2734.66521 0.13654
2732.61677 0.13689
2730.56833 0.13708
2728.51989 0.13786
2726.47145 0.13757
2724.42302 0.13664
2722.37458 0.13645
2720.32614 0.13595
2718.27770 0.13614
2716.22926 0.13702
2714.18082 0.13679
2712.13239 0.13669
2710.08395 0.13780
2708.03551 0.13860
2705.98707 0.13770
2703.93863 0.13665
2701.89019 0.13698
2699.84176 0.13761
2697.79332 0.13818
2695.74488 0.13902
2693.69644 0.13978
2691.64800 0.14027
2689.59956 0.14070
2687.55113 0.14066
2685.50269 0.14008
2683.45425 0.13933
2681.40581 0.13926
2679.35737 0.13956
2677.30893 0.13941
2675.26050 0.14002
2673.21206 0.14065
2671.16362 0.14036
2669.11518 0.14097
2667.06674 0.14272
2665.01830 0.14367
2662.96987 0.14333
2660.92143 0.14228
2658.87299 0.14156
2656.82455 0.14334
2654.77611 0.14717
2652.72767 0.14905
2650.67924 0.14731
2648.63080 0.14593
2646.58236 0.14771
2644.53392 0.14938
2642.48548 0.14918
2640.43704 0.14961
2638.38860 0.15093
2636.34017 0.15181
2634.29173 0.15125
2632.24329 0.14947
2630.19485 0.14897
2628.14641 0.14993
2626.09797 0.15100
2624.04954 0.15202
2622.00110 0.15250
2619.95266 0.15301
2617.90422 0.15461
2615.85578 0.15560
2613.80734 0.15454
2611.75891 0.15340
2609.71047 0.15425
2607.66203 0.15568
2605.61359 0.15499
2603.56515 0.15326
2601.51671 0.15320
2599.46828 0.15499
2597.41984 0.15707
2595.37140 0.15717
2593.32296 0.15524
2591.27452 0.15536
2589.22608 0.15873
2587.17765 0.16119
2585.12921 0.16094
2583.08077 0.15991
2581.03233 0.15964
2578.98389 0.16001
2576.93545 0.16098
2574.88702 0.16204
2572.83858 0.16226
2570.79014 0.16261
2568.74170 0.16344
2566.69326 0.16335
2564.64482 0.16177
2562.59639 0.15986
2560.54795 0.15878
2558.49951 0.15940
2556.45107 0.16159
2554.40263 0.16293
2552.35419 0.16260
2550.30576 0.16320
2548.25732 0.16497
2546.20888 0.16540
2544.16044 0.16415
2542.11200 0.16256
2540.06356 0.16204
2538.01513 0.16227
2535.96669 0.16196
2533.91825 0.16152
2531.86981 0.16124
2529.82137 0.16138
2527.77293 0.16235
2525.72450 0.16296
2523.67606 0.16245
2521.62762 0.16173
2519.57918 0.16104
2517.53074 0.16006
2515.48230 0.16000
2513.43387 0.16103
2511.38543 0.16163
2509.33699 0.16173
2507.28855 0.16183
2505.24011 0.16182
2503.19167 0.16112
2501.14324 0.15973
2499.09480 0.15867
2497.04636 0.15846
2494.99792 0.15875
2492.94948 0.15886
2490.90104 0.15856
2488.85260 0.15771
2486.80417 0.15615
2484.75573 0.15519
2482.70729 0.15570
2480.65885 0.15628
2478.61041 0.15658
2476.56197 0.15692
2474.51354 0.15685
2472.46510 0.15603
2470.41666 0.15502
2468.36822 0.15601
2466.31978 0.15819
2464.27134 0.15917
2462.22291 0.16046
2460.17447 0.16273
2458.12603 0.16281
2456.07759 0.15993
2454.02915 0.15815
2451.98071 0.15899
2449.93228 0.16002
2447.88384 0.16093
2445.83540 0.16295
2443.78696 0.16524
2441.73852 0.16551
2439.69008 0.16412
2437.64165 0.16408
2435.59321 0.16538
2433.54477 0.16590
2431.49633 0.16555
2429.44789 0.16600
2427.39945 0.16803
2425.35102 0.16998
2423.30258 0.17057
2421.25414 0.17045
2419.20570 0.17069
2417.15726 0.17096
2415.10882 0.17081
2413.06039 0.17126
2411.01195 0.17253
2408.96351 0.17285
2406.91507 0.17221
2404.86663 0.17262
2402.81819 0.17408
2400.76976 0.17512
2398.72132 0.17505
2396.67288 0.17462
2394.62444 0.17419
2392.57600 0.17341
2390.52756 0.17326
2388.47913 0.17459
2386.43069 0.17578
2384.38225 0.17538
2382.33381 0.17426
2380.28537 0.17340
2378.23693 0.17272
2376.18850 0.17051
2374.14006 0.16689
2372.09162 0.16503
2370.04318 0.16508
2367.99474 0.16823
2365.94630 0.17372
2363.89787 0.17356
2361.84943 0.17169
2359.80099 0.17579
2357.75255 0.18314
2355.70411 0.18782
2353.65567 0.18417
2351.60723 0.17878
2349.55880 0.17659
2347.51036 0.17471
2345.46192 0.17220
2343.41348 0.17105
2341.36504 0.16963
2339.31660 0.16664
2337.26817 0.16677
2335.21973 0.17027
2333.17129 0.17185
2331.12285 0.17171
2329.07441 0.17549
2327.02597 0.18062
2324.97754 0.18164
2322.92910 0.17927
2320.88066 0.17646
2318.83222 0.17322
2316.78378 0.16980
2314.73534 0.16937
2312.68691 0.17183
2310.63847 0.17458
2308.59003 0.17625
2306.54159 0.17645
2304.49315 0.17533
2302.44471 0.17431
2300.39628 0.17431
2298.34784 0.17372
2296.29940 0.17235
2294.25096 0.17196
2292.20252 0.17272
2290.15408 0.17293
2288.10565 0.17159
2286.05721 0.17074
2284.00877 0.17172
2281.96033 0.17284
2279.91189 0.17326
2277.86345 0.17309
2275.81502 0.17277
2273.76658 0.17305
2271.71814 0.17279
2269.66970 0.17147
2267.62126 0.17052
2265.57282 0.17049
2263.52439 0.17078
2261.47595 0.17083
2259.42751 0.17055
2257.37907 0.17030
2255.33063 0.17018
2253.28219 0.17072
2251.23376 0.17171
2249.18532 0.17241
2247.13688 0.17387
2245.08844 0.17602
2243.04000 0.17775
2240.99156 0.17866
2238.94313 0.17876
2236.89469 0.17866
2234.84625 0.17867
2232.79781 0.17863
2230.74937 0.17789
2228.70093 0.17637
2226.65250 0.17565
2224.60406 0.17672
2222.55562 0.17804
2220.50718 0.17822
2218.45874 0.17827
2216.41030 0.17934
2214.36186 0.18068
2212.31343 0.18101
2210.26499 0.18064
2208.21655 0.18054
2206.16811 0.18049
2204.11967 0.17970
2202.07123 0.17880
2200.02280 0.17875
2197.97436 0.17868
2195.92592 0.17765
2193.87748 0.17653
2191.82904 0.17687
2189.78060 0.17793
2187.73217 0.17742
2185.68373 0.17546
2183.63529 0.17403
2181.58685 0.17375
2179.53841 0.17359
2177.48997 0.17326
2175.44154 0.17381
2173.39310 0.17434
2171.34466 0.17349
2169.29622 0.17231
2167.24778 0.17190
2165.19934 0.17226
2163.15091 0.17244
2161.10247 0.17128
2159.05403 0.16887
2157.00559 0.16683
2154.95715 0.16612
2152.90871 0.16514
2150.86028 0.16299
2148.81184 0.16190
2146.76340 0.16232
2144.71496 0.16260
2142.66652 0.16253
2140.61808 0.16306
2138.56965 0.16376
2136.52121 0.16300
2134.47277 0.16100
2132.42433 0.15903
2130.37589 0.15781
2128.32745 0.15760
2126.27902 0.15795
2124.23058 0.15827
2122.18214 0.15772
2120.13370 0.15653
2118.08526 0.15641
2116.03682 0.15786
2113.98839 0.15930
2111.93995 0.15974
2109.89151 0.15904
2107.84307 0.15708
2105.79463 0.15601
2103.74619 0.15763
2101.69776 0.15923
2099.64932 0.15882
2097.60088 0.15903
2095.55244 0.16091
2093.50400 0.16209
2091.45556 0.16163
2089.40713 0.16144
2087.35869 0.16307
2085.31025 0.16459
2083.26181 0.16472
2081.21337 0.16489
2079.16493 0.16493
2077.11649 0.16397
2075.06806 0.16348
2073.01962 0.16474
2070.97118 0.16603
2068.92274 0.16576
2066.87430 0.16488
2064.82586 0.16485
2062.77743 0.16606
2060.72899 0.16821
2058.68055 0.16979
2056.63211 0.16904
2054.58367 0.16655
2052.53523 0.16411
2050.48680 0.16348
2048.43836 0.16505
2046.38992 0.16681
2044.34148 0.16743
2042.29304 0.16755
2040.24460 0.16780
2038.19617 0.16803
2036.14773 0.16795
2034.09929 0.16690
2032.05085 0.16564
2030.00241 0.16562
2027.95397 0.16622
2025.90554 0.16629
2023.85710 0.16544
2021.80866 0.16424
2019.76022 0.16326
2017.71178 0.16206
2015.66334 0.16059
2013.61491 0.15922
2011.56647 0.15841
2009.51803 0.15804
2007.46959 0.15722
2005.42115 0.15615
2003.37271 0.15488
2001.32428 0.15356
1999.27584 0.15329
1997.22740 0.15309
1995.17896 0.15123
1993.13052 0.14811
1991.08208 0.14554
1989.03365 0.14404
1986.98521 0.14241
1984.93677 0.14086
1982.88833 0.14002
1980.83989 0.13991
1978.79145 0.13982
1976.74302 0.13864
1974.69458 0.13684
1972.64614 0.13540
1970.59770 0.13424
1968.54926 0.13254
1966.50082 0.13117
1964.45239 0.13134
1962.40395 0.13108
1960.35551 0.12975
1958.30707 0.12877
1956.25863 0.12874
1954.21019 0.12893
1952.16176 0.12876
1950.11332 0.12937
1948.06488 0.13054
1946.01644 0.13097
1943.96800 0.13048
1941.91956 0.13085
1939.87112 0.13248
1937.82269 0.13274
1935.77425 0.13232
1933.72581 0.13261
1931.67737 0.13276
1929.62893 0.13294
1927.58049 0.13349
1925.53206 0.13454
1923.48362 0.13575
1921.43518 0.13604
1919.38674 0.13633
1917.33830 0.13744
1915.28986 0.13820
1913.24143 0.13865
1911.19299 0.13890
1909.14455 0.13869
1907.09611 0.13898
1905.04767 0.14035
1902.99923 0.14174
1900.95080 0.14234
1898.90236 0.14304
1896.85392 0.14365
1894.80548 0.14400
1892.75704 0.14521
1890.70860 0.14673
1888.66017 0.14739
1886.61173 0.14718
1884.56329 0.14709
1882.51485 0.14819
1880.46641 0.14962
1878.41797 0.15005
1876.36954 0.14991
1874.32110 0.14965
1872.27266 0.14941
1870.22422 0.14878
1868.17578 0.14813
1866.12734 0.14832
1864.07891 0.14720
1862.03047 0.14515
1859.98203 0.14500
1857.93359 0.14559
1855.88515 0.14424
1853.83671 0.14221
1851.78828 0.14087
1849.73984 0.13913
1847.69140 0.13655
1845.64296 0.13515
1843.59452 0.13534
1841.54608 0.13402
1839.49765 0.13188
1837.44921 0.13086
1835.40077 0.13066
1833.35233 0.12972
1831.30389 0.12780
1829.25545 0.12499
1827.20702 0.12260
1825.15858 0.12165
1823.11014 0.12024
1821.06170 0.11645
1819.01326 0.11187
1816.96482 0.10951
1814.91639 0.10926
1812.86795 0.10888
1810.81951 0.10835
1808.77107 0.10842
1806.72263 0.10829
1804.67419 0.10714
1802.62575 0.10480
1800.57732 0.10268
1798.52888 0.10212
1796.48044 0.10227
1794.43200 0.10261
1792.38356 0.10280
1790.33512 0.10147
1788.28669 0.09955
1786.23825 0.09960
1784.18981 0.10115
1782.14137 0.10102
1780.09293 0.09875
1778.04449 0.09616
1775.99606 0.09487
1773.94762 0.09674
1771.89918 0.10156
1769.85074 0.10434
1767.80230 0.10433
1765.75386 0.10280
1763.70543 0.10127
1761.65699 0.10204
1759.60855 0.10526
1757.56011 0.10779
1755.51167 0.10822
1753.46323 0.10850
1751.41480 0.11042
1749.36636 0.11303
1747.31792 0.11384
1745.26948 0.11265
1743.22104 0.11068
1741.17260 0.11008
1739.12417 0.11142
1737.07573 0.11265
1735.02729 0.11264
1732.97885 0.11278
1730.93041 0.11429
1728.88197 0.11505
1726.83354 0.11467
1724.78510 0.11411
1722.73666 0.11444
1720.68822 0.11518
1718.63978 0.11542
1716.59134 0.11610
1714.54291 0.11672
1712.49447 0.11582
1710.44603 0.11352
1708.39759 0.11131
1706.34915 0.11098
1704.30071 0.11086
1702.25228 0.10801
1700.20384 0.10453
1698.15540 0.10553
1696.10696 0.10703
1694.05852 0.10585
1692.01008 0.10425
1689.96165 0.10301
1687.91321 0.10228
1685.86477 0.10189
1683.81633 0.10138
1681.76789 0.09882
1679.71945 0.09527
1677.67102 0.09190
1675.62258 0.08781
1673.57414 0.08473
1671.52570 0.08474
1669.47726 0.08567
1667.42882 0.08544
1665.38038 0.08451
1663.33195 0.08404
1661.28351 0.08343
1659.23507 0.08211
1657.18663 0.08099
1655.13819 0.07951
1653.08975 0.07694
1651.04132 0.07660
1648.99288 0.07800
1646.94444 0.07945
1644.89600 0.08086
1642.84756 0.08328
1640.79912 0.08509
1638.75069 0.08625
1636.70225 0.08852
1634.65381 0.08966
1632.60537 0.08894
1630.55693 0.08903
1628.50849 0.09021
1626.46006 0.09231
1624.41162 0.09564
1622.36318 0.09939
1620.31474 0.10048
1618.26630 0.10022
1616.21786 0.10191
1614.16943 0.10487
1612.12099 0.10795
1610.07255 0.11119
1608.02411 0.11252
1605.97567 0.11138
1603.92723 0.11090
1601.87880 0.11364
1599.83036 0.11684
1597.78192 0.11892
1595.73348 0.12069
1593.68504 0.12102
1591.63660 0.12115
1589.58817 0.12250
1587.53973 0.12393
1585.49129 0.12516
1583.44285 0.12589
1581.39441 0.12600
1579.34597 0.12737
1577.29754 0.13040
1575.24910 0.13171
1573.20066 0.13160
1571.15222 0.13240
1569.10378 0.13282
1567.05534 0.13279
1565.00691 0.13296
1562.95847 0.13214
1560.91003 0.13051
1558.86159 0.13098
1556.81315 0.13229
1554.76471 0.12936
1552.71628 0.12675
1550.66784 0.12640
1548.61940 0.12662
1546.57096 0.12764
1544.52252 0.13148
1542.47408 0.13873
1540.42565 0.14281
1538.37721 0.13611
1536.32877 0.13213
1534.28033 0.13288
1532.23189 0.13471
1530.18345 0.13367
1528.13501 0.13163
1526.08658 0.13054
1524.03814 0.13158
1521.98970 0.13474
1519.94126 0.13639
1517.89282 0.13394
1515.84438 0.13027
1513.79595 0.12943
1511.74751 0.13024
1509.69907 0.13045
1507.65063 0.13285
1505.60219 0.13366
1503.55375 0.13039
1501.50532 0.12920
1499.45688 0.12952
1497.40844 0.12935
1495.36000 0.12974
1493.31156 0.13210
1491.26312 0.13534
1489.21469 0.13639
1487.16625 0.13409
1485.11781 0.13279
1483.06937 0.13275
1481.02093 0.13299
1478.97249 0.13296
1476.92406 0.13302
1474.87562 0.13480
1472.82718 0.13535
1470.77874 0.13116
1468.73030 0.12863
1466.68186 0.12779
1464.63343 0.12620
1462.58499 0.12519
1460.53655 0.12632
1458.48811 0.12767
1456.43967 0.12574
1454.39123 0.12445
1452.34280 0.12480
1450.29436 0.12602
1448.24592 0.12761
1446.19748 0.12683
1444.14904 0.12477
1442.10060 0.12368
1440.05217 0.12305
1438.00373 0.12292
1435.95529 0.12385
1433.90685 0.12404
1431.85841 0.12378
1429.80997 0.12427
1427.76154 0.12406
1425.71310 0.12241
1423.66466 0.12185
1421.61622 0.12337
1419.56778 0.12262
1417.51934 0.11860
1415.47091 0.11733
1413.42247 0.11777
1411.37403 0.11734
1409.32559 0.11574
1407.27715 0.11370
1405.22871 0.11252
1403.18028 0.11279
1401.13184 0.11237
1399.08340 0.11085
1397.03496 0.10940
1394.98652 0.10857
1392.93808 0.11011
1390.88965 0.11222
1388.84121 0.11194
1386.79277 0.10963
1384.74433 0.10839
1382.69589 0.10813
1380.64745 0.10641
1378.59901 0.10312
1376.55058 0.10118
1374.50214 0.10130
1372.45370 0.10105
1370.40526 0.10028
1368.35682 0.10064
1366.30838 0.10172
1364.25995 0.10172
1362.21151 0.10027
1360.16307 0.09967
1358.11463 0.10073
1356.06619 0.10173
1354.01775 0.10140
1351.96932 0.10034
1349.92088 0.09979
1347.87244 0.09975
1345.82400 0.10026
1343.77556 0.10102
1341.72712 0.10086
1339.67869 0.10049
1337.63025 0.10171
1335.58181 0.10278
1333.53337 0.10200
1331.48493 0.10078
1329.43649 0.10075
1327.38806 0.10174
1325.33962 0.10160
1323.29118 0.09920
1321.24274 0.09711
1319.19430 0.09710
1317.14586 0.09765
1315.09743 0.09809
1313.04899 0.09819
1311.00055 0.09655
1308.95211 0.09384
1306.90367 0.09163
1304.85523 0.09032
1302.80680 0.08942
1300.75836 0.08852
1298.70992 0.08752
1296.66148 0.08560
1294.61304 0.08285
1292.56460 0.08140
1290.51617 0.08135
1288.46773 0.08028
1286.41929 0.07793
1284.37085 0.07577
1282.32241 0.07515
1280.27397 0.07609
1278.22554 0.07695
1276.17710 0.07697
1274.12866 0.07629
1272.08022 0.07543
1270.03178 0.07494
1267.98334 0.07486
1265.93491 0.07504
1263.88647 0.07522
1261.83803 0.07500
1259.78959 0.07420
1257.74115 0.07403
1255.69271 0.07616
1253.64428 0.07946
1251.59584 0.08153
1249.54740 0.08237
1247.49896 0.08241
1245.45052 0.08187
1243.40208 0.08239
1241.35364 0.08414
1239.30521 0.08503
1237.25677 0.08607
1235.20833 0.08866
1233.15989 0.08987
1231.11145 0.08800
1229.06301 0.08584
1227.01458 0.08569
1224.96614 0.08699
1222.91770 0.08891
1220.86926 0.09040
1218.82082 0.09100
1216.77238 0.09105
1214.72395 0.09119
1212.67551 0.09186
1210.62707 0.09164
1208.57863 0.09030
1206.53019 0.08895
1204.48175 0.08766
1202.43332 0.08742
1200.38488 0.08870
1198.33644 0.08898
1196.28800 0.08676
1194.23956 0.08401
1192.19112 0.08220
1190.14269 0.08098
1188.09425 0.07969
1186.04581 0.07711
1183.99737 0.07409
1181.94893 0.07223
1179.90049 0.06957
1177.85206 0.06557
1175.80362 0.06175
1173.75518 0.05794
1171.70674 0.05404
1169.65830 0.05094
1167.60986 0.04857
1165.56143 0.04564
1163.51299 0.04138
1161.46455 0.03725
1159.41611 0.03427
1157.36767 0.03083
1155.31923 0.02845
1153.27080 0.02867
1151.22236 0.02782
1149.17392 0.02399
1147.12548 0.02037
1145.07704 0.01981
1143.02860 0.01972
1140.98017 0.01732
1138.93173 0.01478
1136.88329 0.01384
1134.83485 0.01368
1132.78641 0.01402
1130.73797 0.01441
1128.68954 0.01363
1126.64110 0.01217
1124.59266 0.01118
1122.54422 0.01052
1120.49578 0.01138
1118.44734 0.01333
1116.39891 0.01292
1114.35047 0.01135
1112.30203 0.01149
1110.25359 0.01217
1108.20515 0.01222
1106.15671 0.01327
1104.10827 0.01593
1102.05984 0.01818
1100.01140 0.02013
1097.96296 0.02320
1095.91452 0.02540
1093.86608 0.02439
1091.81764 0.02304
1089.76921 0.02530
1087.72077 0.02812
1085.67233 0.02752
1083.62389 0.02604
1081.57545 0.02571
1079.52701 0.02513
1077.47858 0.02482
1075.43014 0.02587
1073.38170 0.02597
1071.33326 0.02435
1069.28482 0.02347
1067.23638 0.02397
1065.18795 0.02477
1063.13951 0.02514
1061.09107 0.02458
1059.04263 0.02339
1056.99419 0.02254
1054.94575 0.02102
1052.89732 0.01870
1050.84888 0.01843
1048.80044 0.01981
1046.75200 0.01713
1044.70356 0.01049
1042.65512 0.00645
1040.60669 0.00472
1038.55825 0.00405
1036.50981 0.00591
1034.46137 0.00739
1032.41293 0.00601
1030.36449 0.00262
1028.31606 -0.00141
1026.26762 -0.00400
1024.21918 -0.00247
1022.17074 -0.00068
1020.12230 -0.00423
1018.07386 -0.00726
1016.02543 -0.00469
1013.97699 -0.00406
1011.92855 -0.00707
1009.88011 -0.00827
1007.83167 -0.00798
1005.78323 -0.00752
1003.73480 -0.00718
1001.68636 -0.00714
999.63792 -0.00783
997.58948 -0.00917
995.54104 -0.00951
993.49260 -0.00945
991.44417 -0.00993
989.39573 -0.01021
987.34729 -0.00914
985.29885 -0.00664
983.25041 -0.00725
981.20197 -0.01192
979.15354 -0.01319
977.10510 -0.01022
975.05666 -0.00758
973.00822 -0.00598
970.95978 -0.00659
968.91134 -0.00703
966.86290 -0.00533
964.81447 -0.00483
962.76603 -0.00386
960.71759 -0.00151
958.66915 0.00027
956.62071 0.00305
954.57227 0.00494
952.52384 0.00391
950.47540 0.00461
948.42696 0.00811
946.37852 0.00730
944.33008 0.00182
942.28164 -0.00210
940.23321 -0.00247
938.18477 -0.00276
936.13633 -0.00908
934.08789 -0.01854
932.03945 -0.02383
929.99101 -0.02759
927.94258 -0.03354
925.89414 -0.04017
923.84570 -0.04799
921.79726 -0.05628
919.74882 -0.06075
917.70038 -0.06140
915.65195 -0.06270
913.60351 -0.06501
911.55507 -0.06747
909.50663 -0.07162
907.45819 -0.07497
905.40975 -0.07513
903.36132 -0.07363
901.31288 -0.07307
899.26444 -0.07559
897.21600 -0.07968
895.16756 -0.08214
893.11912 -0.08105
891.07069 -0.07662
889.02225 -0.07352
886.97381 -0.07504
884.92537 -0.07760
882.87693 -0.07875
880.82849 -0.08044
878.78006 -0.08067
876.73162 -0.07734
874.68318 -0.07316
872.63474 -0.06840
870.58630 -0.06333
868.53786 -0.06050
866.48943 -0.05887
864.44099 -0.05686
862.39255 -0.05539
860.34411 -0.05401
858.29567 -0.05112
856.24723 -0.04661
854.19880 -0.03966
852.15036 -0.03230
850.10192 -0.02857
848.05348 -0.02568
846.00504 -0.01940
843.95660 -0.01028
841.90817 -0.00297
839.85973 -0.00087
837.81129 0.00105
835.76285 0.00568
833.71441 0.00682
831.66597 0.00296
829.61753 -0.00162
827.56910 -0.00603
825.52066 -0.00970
823.47222 -0.01307
821.42378 -0.01838
819.37534 -0.02426
817.32690 -0.02812
815.27847 -0.03041
813.23003 -0.03443
811.18159 -0.04059
809.13315 -0.04543
807.08471 -0.04921
805.03627 -0.05384
802.98784 -0.05854
800.93940 -0.06345
798.89096 -0.06917
796.84252 -0.07492
794.79408 -0.07995
792.74564 -0.08297
790.69721 -0.08389
788.64877 -0.08588
786.60033 -0.09059
784.55189 -0.09525
782.50345 -0.09810
780.45501 -0.10031
778.40658 -0.10203
776.35814 -0.10163
774.30970 -0.10108
772.26126 -0.10319
770.21282 -0.10453
768.16438 -0.10500
766.11595 -0.10767
764.06751 -0.10886
762.01907 -0.10425
759.97063 -0.09757
757.92219 -0.09781
755.87375 -0.10617
753.82532 -0.11378
751.77688 -0.11390
749.72844 -0.11017
747.68000 -0.10660
745.63156 -0.10172
743.58312 -0.09857
741.53469 -0.09861
739.48625 -0.10000
737.43781 -0.10313
735.38937 -0.10317
733.34093 -0.09833
731.29249 -0.09486
729.24406 -0.09496
727.19562 -0.09989
725.14718 -0.10544
723.09874 -0.10193
721.05030 -0.09324
719.00186 -0.08800
716.95343 -0.08442
714.90499 -0.07894
712.85655 -0.07648
710.80811 -0.08051
708.75967 -0.08390
706.71123 -0.08457
704.66280 -0.08730
702.61436 -0.08769
700.56592 -0.08254
698.51748 -0.07713
696.46904 -0.07259
694.42060 -0.07200
692.37216 -0.07322
690.32373 -0.07048
688.27529 -0.06995
686.22685 -0.06692
684.17841 -0.05477
682.12997 -0.03916
680.08153 -0.02921
678.03310 -0.03593
675.98466 -0.04725
673.93622 -0.05195
671.88778 -0.05277
669.83934 -0.03566
667.79090 -0.00284
665.74247 0.00108
663.69403 0.00014
661.64559 0.00420
659.59715 0.00127
657.54871 -0.00538
655.50027 -0.00614
653.45184 -0.00748
651.40340 -0.01825
649.35496 -0.02415
647.30652 -0.01516
645.25808 -0.00802
643.20964 -0.00980
641.16121 -0.01098
639.11277 -0.01357
637.06433 -0.02656
635.01589 -0.03624
632.96745 -0.02296
630.91901 -0.01318
628.87058 -0.03869
626.82214 -0.06822
624.77370 -0.07841
622.72526 -0.08023
620.67682 -0.06143
618.62838 -0.02191
616.57995 0.02685
614.53151 0.06452
612.48307 0.07208
610.43463 0.05058
608.38619 0.01395
606.33775 0.00562
604.28932 0.04254
602.24088 0.05733
600.19244 0.00842
598.14400 -0.05092
