3996.50324 0.22917
3994.45480 0.22889
3992.40636 0.23105
3990.35792 0.23421
3988.30948 0.23512
3986.26104 0.23350
3984.21261 0.23190
3982.16417 0.23095
3980.11573 0.22999
3978.06729 0.22974
3976.01885 0.23045
3973.97041 0.23019
3971.92198 0.22850
3969.87354 0.22727
3967.82510 0.22816
3965.77666 0.23090
3963.72822 0.23206
3961.67978 0.23086
3959.63135 0.23055
3957.58291 0.23002
3955.53447 0.22836
3953.48603 0.22851
3951.43759 0.23027
3949.38915 0.23098
3947.34072 0.23046
3945.29228 0.23051
3943.24384 0.23083
3941.19540 0.23052
3939.14696 0.22958
3937.09852 0.22872
3935.05009 0.22857
3933.00165 0.22754
3930.95321 0.22575
3928.90477 0.22649
3926.85633 0.22902
3924.80789 0.22984
3922.75946 0.22879
3920.71102 0.22863
3918.66258 0.22915
3916.61414 0.23000
3914.56570 0.23235
3912.51726 0.23525
3910.46883 0.23672
3908.42039 0.23842
3906.37195 0.24121
3904.32351 0.24038
3902.27507 0.23644
3900.22663 0.23470
3898.17820 0.23286
3896.12976 0.23165
3894.08132 0.23265
3892.03288 0.23378
3889.98444 0.23439
3887.93600 0.23467
3885.88756 0.23159
3883.83913 0.22876
3881.79069 0.23036
3879.74225 0.23110
3877.69381 0.23014
3875.64537 0.22913
3873.59693 0.22752
3871.54850 0.22707
3869.50006 0.22851
3867.45162 0.23048
3865.40318 0.23215
3863.35474 0.23296
3861.30630 0.23176
3859.25787 0.22986
3857.20943 0.23115
3855.16099 0.23666
3853.11255 0.23474
3851.06411 0.22604
3849.01567 0.22660
3846.96724 0.23001
3844.91880 0.23060
3842.87036 0.22882
3840.82192 0.22849
3838.77348 0.22953
3836.72504 0.22980
3834.67661 0.22938
3832.62817 0.22688
3830.57973 0.22276
3828.53129 0.22067
3826.48285 0.22031
3824.43441 0.22187
3822.38598 0.22553
3820.33754 0.22652
3818.28910 0.22813
3816.24066 0.22920
3814.19222 0.22496
3812.14378 0.22252
3810.09535 0.22320
3808.04691 0.22440
3805.99847 0.22372
3803.95003 0.22418
3801.90159 0.22507
3799.85315 0.22255
3797.80472 0.22003
3795.75628 0.21652
3793.70784 0.21392
3791.65940 0.21321
3789.61096 0.21346
3787.56252 0.21447
3785.51409 0.21357
3783.46565 0.21226
3781.41721 0.21336
3779.36877 0.21329
3777.32033 0.21245
3775.27189 0.21381
3773.22346 0.21562
3771.17502 0.21579
3769.12658 0.21383
3767.07814 0.21184
3765.02970 0.20918
3762.98126 0.20655
3760.93283 0.20589
3758.88439 0.20638
3756.83595 0.20606
3754.78751 0.20418
3752.73907 0.20006
3750.69063 0.19451
3748.64219 0.19648
3746.59376 0.20133
3744.54532 0.20272
3742.49688 0.20248
3740.44844 0.20247
3738.40000 0.20129
3736.35156 0.19818
3734.30313 0.19490
3732.25469 0.19341
3730.20625 0.19363
3728.15781 0.19423
3726.10937 0.19261
3724.06093 0.18850
3722.01250 0.18589
3719.96406 0.18763
3717.91562 0.19129
3715.86718 0.19315
3713.81874 0.19262
3711.77030 0.18813
3709.72187 0.18027
3707.67343 0.17693
3705.62499 0.17866
3703.57655 0.18178
3701.52811 0.18066
3699.47967 0.17610
3697.43124 0.17397
3695.38280 0.17404
3693.33436 0.17458
3691.28592 0.17465
3689.23748 0.17175
3687.18904 0.16836
3685.14061 0.16760
3683.09217 0.16774
3681.04373 0.16828
3678.99529 0.16766
3676.94685 0.16428
3674.89841 0.16056
3672.84998 0.16026
3670.80154 0.15921
3668.75310 0.15493
3666.70466 0.15306
3664.65622 0.15188
3662.60778 0.14758
3660.55935 0.14279
3658.51091 0.14144
3656.46247 0.14056
3654.41403 0.13774
3652.36559 0.13744
3650.31715 0.14011
3648.26872 0.13684
3646.22028 0.12885
3644.17184 0.12285
3642.12340 0.11745
3640.07496 0.11485
3638.02652 0.11566
3635.97809 0.11459
3633.92965 0.11115
3631.88121 0.11059
3629.83277 0.11064
3627.78433 0.10578
3625.73589 0.10180
3623.68746 0.09914
3621.63902 0.09624
3619.59058 0.09396
3617.54214 0.09282
3615.49370 0.09020
3613.44526 0.08541
3611.39682 0.08119
3609.34839 0.07838
3607.29995 0.07535
3605.25151 0.07252
3603.20307 0.07090
3601.15463 0.07091
3599.10619 0.07062
3597.05776 0.06717
3595.00932 0.06226
3592.96088 0.05886
3590.91244 0.05750
3588.86400 0.05549
3586.81556 0.05035
3584.76713 0.04602
3582.71869 0.04436
3580.67025 0.04299
3578.62181 0.03942
3576.57337 0.03336
3574.52493 0.02829
3572.47650 0.02729
3570.42806 0.02728
3568.37962 0.02483
3566.33118 0.02152
3564.28274 0.01971
3562.23430 0.01799
3560.18587 0.01603
3558.13743 0.01402
3556.08899 0.01247
3554.04055 0.01129
3551.99211 0.00966
3549.94367 0.00859
3547.89524 0.00902
3545.84680 0.00836
3543.79836 0.00339
3541.74992 -0.00049
3539.70148 0.00078
3537.65304 0.00307
3535.60461 0.00112
3533.55617 -0.00395
3531.50773 -0.00780
3529.45929 -0.00969
3527.41085 -0.01149
3525.36241 -0.01255
3523.31398 -0.01207
3521.26554 -0.01474
3519.21710 -0.02059
3517.16866 -0.02402
3515.12022 -0.02413
3513.07178 -0.02437
3511.02335 -0.02537
3508.97491 -0.02581
3506.92647 -0.02690
3504.87803 -0.02911
3502.82959 -0.03097
3500.78115 -0.03058
3498.73272 -0.02917
3496.68428 -0.02908
3494.63584 -0.02894
3492.58740 -0.02713
3490.53896 -0.02606
3488.49052 -0.02848
3486.44209 -0.03234
3484.39365 -0.03354
3482.34521 -0.03234
3480.29677 -0.03241
3478.24833 -0.03367
3476.19989 -0.03514
3474.15146 -0.03923
3472.10302 -0.04434
3470.05458 -0.04526
3468.00614 -0.04085
3465.95770 -0.03452
3463.90926 -0.03217
3461.86082 -0.03608
3459.81239 -0.03953
3457.76395 -0.03900
3455.71551 -0.03885
3453.66707 -0.03986
3451.61863 -0.04150
3449.57019 -0.04396
3447.52176 -0.04522
3445.47332 -0.04453
3443.42488 -0.04333
3441.37644 -0.04220
3439.32800 -0.04166
3437.27956 -0.04220
3435.23113 -0.04351
3433.18269 -0.04537
3431.13425 -0.04619
3429.08581 -0.04650
3427.03737 -0.04891
3424.98893 -0.05196
3422.94050 -0.05264
3420.89206 -0.05079
3418.84362 -0.04932
3416.79518 -0.04960
3414.74674 -0.05015
3412.69830 -0.05142
3410.64987 -0.05374
3408.60143 -0.05456
3406.55299 -0.05326
3404.50455 -0.05238
3402.45611 -0.05277
3400.40767 -0.05342
3398.35924 -0.05420
3396.31080 -0.05568
3394.26236 -0.05810
3392.21392 -0.06117
3390.16548 -0.06314
3388.11704 -0.06242
3386.06861 -0.06108
3384.02017 -0.06276
3381.97173 -0.06437
3379.92329 -0.06126
3377.87485 -0.05736
3375.82641 -0.05728
3373.77798 -0.05939
3371.72954 -0.06081
3369.68110 -0.06089
3367.63266 -0.06111
3365.58422 -0.06300
3363.53578 -0.06485
3361.48735 -0.06531
3359.43891 -0.06498
3357.39047 -0.06382
3355.34203 -0.06298
3353.29359 -0.06418
3351.24515 -0.06649
3349.19672 -0.06692
3347.14828 -0.06652
3345.09984 -0.06729
3343.05140 -0.06765
3341.00296 -0.06821
3338.95452 -0.06939
3336.90609 -0.06840
3334.85765 -0.06458
3332.80921 -0.06217
3330.76077 -0.06347
3328.71233 -0.06732
3326.66389 -0.07216
3324.61545 -0.07452
3322.56702 -0.07416
3320.51858 -0.07321
3318.47014 -0.07133
3316.42170 -0.07094
3314.37326 -0.07539
3312.32482 -0.07946
3310.27639 -0.07674
3308.22795 -0.07283
3306.17951 -0.07310
3304.13107 -0.07346
3302.08263 -0.07205
3300.03419 -0.07297
3297.98576 -0.07747
3295.93732 -0.07998
3293.88888 -0.07838
3291.84044 -0.07788
3289.79200 -0.07856
3287.74356 -0.07697
3285.69513 -0.07652
3283.64669 -0.07730
3281.59825 -0.07550
3279.54981 -0.07393
3277.50137 -0.07457
3275.45293 -0.07569
3273.40450 -0.07636
3271.35606 -0.07659
3269.30762 -0.07733
3267.25918 -0.07789
3265.21074 -0.07764
3263.16230 -0.07800
3261.11387 -0.07840
3259.06543 -0.07842
3257.01699 -0.07899
3254.96855 -0.07991
3252.92011 -0.08083
3250.87167 -0.08145
3248.82324 -0.08177
3246.77480 -0.08081
3244.72636 -0.07876
3242.67792 -0.07788
3240.62948 -0.07743
3238.58104 -0.07736
3236.53261 -0.07957
3234.48417 -0.08215
3232.43573 -0.08238
3230.38729 -0.08036
3228.33885 -0.07787
3226.29041 -0.07782
3224.24198 -0.07964
3222.19354 -0.08164
3220.14510 -0.08391
3218.09666 -0.08315
3216.04822 -0.07987
3213.99978 -0.08017
3211.95135 -0.08310
3209.90291 -0.08458
3207.85447 -0.08436
3205.80603 -0.08324
3203.75759 -0.08255
3201.70915 -0.08233
3199.66072 -0.08154
3197.61228 -0.08060
3195.56384 -0.07881
3193.51540 -0.07556
3191.46696 -0.07529
3189.41852 -0.07984
3187.37008 -0.08280
3185.32165 -0.08230
3183.27321 -0.08322
3181.22477 -0.08492
3179.17633 -0.08349
3177.12789 -0.08012
3175.07945 -0.07932
3173.03102 -0.08125
3170.98258 -0.08314
3168.93414 -0.08431
3166.88570 -0.08378
3164.83726 -0.08136
3162.78882 -0.07811
3160.74039 -0.07522
3158.69195 -0.07542
3156.64351 -0.07831
3154.59507 -0.08007
3152.54663 -0.07870
3150.49819 -0.07495
3148.44976 -0.07270
3146.40132 -0.07412
3144.35288 -0.07553
3142.30444 -0.07493
3140.25600 -0.07471
3138.20756 -0.07442
3136.15913 -0.07311
3134.11069 -0.07315
3132.06225 -0.07483
3130.01381 -0.07511
3127.96537 -0.07294
3125.91693 -0.07059
3123.86850 -0.06939
3121.82006 -0.06938
3119.77162 -0.06968
3117.72318 -0.06954
3115.67474 -0.06979
3113.62630 -0.06987
3111.57787 -0.06931
3109.52943 -0.06903
3107.48099 -0.06855
3105.43255 -0.06682
3103.38411 -0.06567
3101.33567 -0.06674
3099.28724 -0.06807
3097.23880 -0.06875
3095.19036 -0.06940
3093.14192 -0.06939
3091.09348 -0.06882
3089.04504 -0.06813
3086.99661 -0.06738
3084.94817 -0.06748
3082.89973 -0.06723
3080.85129 -0.06620
3078.80285 -0.06611
3076.75441 -0.06645
3074.70598 -0.06607
3072.65754 -0.06446
3070.60910 -0.06286
3068.56066 -0.06270
3066.51222 -0.06231
3064.46378 -0.06077
3062.41535 -0.05944
3060.36691 -0.05859
3058.31847 -0.05837
3056.27003 -0.05827
3054.22159 -0.05708
3052.17315 -0.05647
3050.12471 -0.05761
3048.07628 -0.05832
3046.02784 -0.05682
3043.97940 -0.05451
3041.93096 -0.05417
3039.88252 -0.05522
3037.83408 -0.05498
3035.78565 -0.05382
3033.73721 -0.05315
3031.68877 -0.05297
3029.64033 -0.05347
3027.59189 -0.05494
3025.54345 -0.05586
3023.49502 -0.05441
3021.44658 -0.05301
3019.39814 -0.05341
3017.34970 -0.05352
3015.30126 -0.05233
3013.25282 -0.05048
3011.20439 -0.04943
3009.15595 -0.04943
3007.10751 -0.04834
3005.05907 -0.04627
3003.01063 -0.04614
3000.96219 -0.04784
2998.91376 -0.04985
2996.86532 -0.05041
2994.81688 -0.04798
2992.76844 -0.04555
2990.72000 -0.04512
2988.67156 -0.04536
2986.62313 -0.04606
2984.57469 -0.04638
2982.52625 -0.04496
2980.47781 -0.04339
2978.42937 -0.04329
2976.38093 -0.04379
2974.33250 -0.04347
2972.28406 -0.04182
2970.23562 -0.04052
2968.18718 -0.04145
2966.13874 -0.04264
2964.09030 -0.04189
2962.04187 -0.04124
2959.99343 -0.04242
2957.94499 -0.04343
2955.89655 -0.04238
2953.84811 -0.04034
2951.79967 -0.03891
2949.75124 -0.03836
2947.70280 -0.03840
2945.65436 -0.03849
2943.60592 -0.03906
2941.55748 -0.04035
2939.50904 -0.04139
2937.46061 -0.04116
2935.41217 -0.03931
2933.36373 -0.03696
2931.31529 -0.03560
2929.26685 -0.03603
2927.21841 -0.03759
2925.16998 -0.04008
2923.12154 -0.04256
2921.07310 -0.04148
2919.02466 -0.03827
2916.97622 -0.03711
2914.92778 -0.03765
2912.87934 -0.03857
2910.83091 -0.03905
2908.78247 -0.03861
2906.73403 -0.03785
2904.68559 -0.03671
2902.63715 -0.03474
2900.58871 -0.03261
2898.54028 -0.03171
2896.49184 -0.03228
2894.44340 -0.03224
2892.39496 -0.03100
2890.34652 -0.03063
2888.29808 -0.03166
2886.24965 -0.03240
2884.20121 -0.03220
2882.15277 -0.03176
2880.10433 -0.03088
2878.05589 -0.03007
2876.00745 -0.02953
2873.95902 -0.02829
2871.91058 -0.02696
2869.86214 -0.02656
2867.81370 -0.02684
2865.76526 -0.02691
2863.71682 -0.02660
2861.66839 -0.02652
2859.61995 -0.02614
2857.57151 -0.02507
2855.52307 -0.02425
2853.47463 -0.02371
2851.42619 -0.02305
2849.37776 -0.02197
2847.32932 -0.02054
2845.28088 -0.01953
2843.23244 -0.01967
2841.18400 -0.02094
2839.13556 -0.02163
2837.08713 -0.02129
2835.03869 -0.02078
2832.99025 -0.01990
2830.94181 -0.01820
2828.89337 -0.01625
2826.84493 -0.01504
2824.79650 -0.01519
2822.74806 -0.01638
2820.69962 -0.01698
2818.65118 -0.01577
2816.60274 -0.01281
2814.55430 -0.00995
2812.50587 -0.00915
2810.45743 -0.00924
2808.40899 -0.00827
2806.36055 -0.00704
2804.31211 -0.00692
2802.26367 -0.00703
2800.21524 -0.00598
2798.16680 -0.00467
2796.11836 -0.00462
2794.06992 -0.00526
2792.02148 -0.00544
2789.97304 -0.00557
2787.92461 -0.00669
2785.87617 -0.00760
2783.82773 -0.00698
2781.77929 -0.00587
2779.73085 -0.00432
2777.68241 -0.00172
2775.63397 0.00016
2773.58554 -0.00024
2771.53710 -0.00193
2769.48866 -0.00349
2767.44022 -0.00355
2765.39178 -0.00256
2763.34334 -0.00204
2761.29491 -0.00114
2759.24647 0.00011
2757.19803 0.00070
2755.14959 0.00076
2753.10115 0.00084
2751.05271 0.00111
2749.00428 0.00091
2746.95584 0.00009
2744.90740 -0.00069
2742.85896 -0.00062
2740.81052 0.00028
2738.76208 0.00110
2736.71365 0.00151
2734.66521 0.00170
2732.61677 0.00179
2730.56833 0.00186
2728.51989 0.00268
2726.47145 0.00357
2724.42302 0.00303
2722.37458 0.00170
2720.32614 0.00069
2718.27770 0.00062
2716.22926 0.00082
2714.18082 0.00064
2712.13239 0.00081
2710.08395 0.00192
2708.03551 0.00285
2705.98707 0.00216
2703.93863 0.00147
2701.89019 0.00178
2699.84176 0.00216
2697.79332 0.00237
2695.74488 0.00259
2693.69644 0.00350
2691.64800 0.00463
2689.59956 0.00510
2687.55113 0.00512
2685.50269 0.00446
2683.45425 0.00348
2681.40581 0.00413
2679.35737 0.00620
2677.30893 0.00703
2675.26050 0.00628
2673.21206 0.00579
2671.16362 0.00643
2669.11518 0.00711
2667.06674 0.00694
2665.01830 0.00712
2662.96987 0.00897
2660.92143 0.01083
2658.87299 0.01061
2656.82455 0.00974
2654.77611 0.01084
2652.72767 0.01312
2650.67924 0.01312
2648.63080 0.01147
2646.58236 0.01156
2644.53392 0.01345
2642.48548 0.01544
2640.43704 0.01619
2638.38860 0.01608
2636.34017 0.01668
2634.29173 0.01762
2632.24329 0.01811
2630.19485 0.01804
2628.14641 0.01837
2626.09797 0.02067
2624.04954 0.02325
2622.00110 0.02409
2619.95266 0.02396
2617.90422 0.02361
2615.85578 0.02305
2613.80734 0.02176
2611.75891 0.02085
2609.71047 0.02235
2607.66203 0.02518
2605.61359 0.02678
2603.56515 0.02727
2601.51671 0.02796
2599.46828 0.02878
2597.41984 0.02924
2595.37140 0.02929
2593.32296 0.02934
2591.27452 0.03072
2589.22608 0.03344
2587.17765 0.03521
2585.12921 0.03570
2583.08077 0.03644
2581.03233 0.03774
2578.98389 0.03873
2576.93545 0.03918
2574.88702 0.03887
2572.83858 0.03812
2570.79014 0.03873
2568.74170 0.04027
2566.69326 0.04109
2564.64482 0.04084
2562.59639 0.04045
2560.54795 0.04108
2558.49951 0.04225
2556.45107 0.04305
2554.40263 0.04277
2552.35419 0.04219
2550.30576 0.04289
2548.25732 0.04434
2546.20888 0.04504
2544.16044 0.04505
2542.11200 0.04511
2540.06356 0.04496
2538.01513 0.04460
2535.96669 0.04468
2533.91825 0.04461
2531.86981 0.04434
2529.82137 0.04494
2527.77293 0.04497
2525.72450 0.04395
2523.67606 0.04377
2521.62762 0.04390
2519.57918 0.04357
2517.53074 0.04358
2515.48230 0.04337
2513.43387 0.04207
2511.38543 0.04037
2509.33699 0.03977
2507.28855 0.04111
2505.24011 0.04295
2503.19167 0.04338
2501.14324 0.04305
2499.09480 0.04336
2497.04636 0.04361
2494.99792 0.04284
2492.94948 0.04191
2490.90104 0.04143
2488.85260 0.04010
2486.80417 0.03801
2484.75573 0.03760
2482.70729 0.03909
2480.65885 0.04010
2478.61041 0.03971
2476.56197 0.03829
2474.51354 0.03681
2472.46510 0.03695
2470.41666 0.03824
2468.36822 0.03884
2466.31978 0.03938
2464.27134 0.04064
2462.22291 0.04183
2460.17447 0.04311
2458.12603 0.04359
2456.07759 0.04168
2454.02915 0.03945
2451.98071 0.03974
2449.93228 0.04156
2447.88384 0.04286
2445.83540 0.04411
2443.78696 0.04581
2441.73852 0.04644
2439.69008 0.04618
2437.64165 0.04725
2435.59321 0.04934
2433.54477 0.04990
2431.49633 0.04895
2429.44789 0.04890
2427.39945 0.05069
2425.35102 0.05277
2423.30258 0.05406
2421.25414 0.05526
2419.20570 0.05671
2417.15726 0.05746
2415.10882 0.05760
2413.06039 0.05884
2411.01195 0.05997
2408.96351 0.05859
2406.91507 0.05701
2404.86663 0.05863
2402.81819 0.06203
2400.76976 0.06354
2398.72132 0.06338
2396.67288 0.06333
2394.62444 0.06306
2392.57600 0.06305
2390.52756 0.06408
2388.47913 0.06505
2386.43069 0.06530
2384.38225 0.06576
2382.33381 0.06629
2380.28537 0.06550
2378.23693 0.06297
2376.18850 0.05991
2374.14006 0.05831
2372.09162 0.05917
2370.04318 0.06046
2367.99474 0.06166
2365.94630 0.06673
2363.89787 0.07082
2361.84943 0.06370
2359.80099 0.05014
2357.75255 0.05023
2355.70411 0.06390
2353.65567 0.06985
2351.60723 0.06915
2349.55880 0.06914
2347.51036 0.06939
2345.46192 0.07057
2343.41348 0.07073
2341.36504 0.06529
2339.31660 0.05994
2337.26817 0.05902
2335.21973 0.05882
2333.17129 0.05822
2331.12285 0.05929
2329.07441 0.06296
2327.02597 0.06700
2324.97754 0.07038
2322.92910 0.07293
2320.88066 0.07212
2318.83222 0.06857
2316.78378 0.06685
2314.73534 0.06891
2312.68691 0.07191
2310.63847 0.07407
2308.59003 0.07549
2306.54159 0.07442
2304.49315 0.07161
2302.44471 0.07033
2300.39628 0.07119
2298.34784 0.07205
2296.29940 0.07157
2294.25096 0.07067
2292.20252 0.07056
2290.15408 0.07107
2288.10565 0.07157
2286.05721 0.07218
2284.00877 0.07266
2281.96033 0.07234
2279.91189 0.07206
2277.86345 0.07278
2275.81502 0.07397
2273.76658 0.07410
2271.71814 0.07252
2269.66970 0.07114
2267.62126 0.07109
2265.57282 0.07147
2263.52439 0.07224
2261.47595 0.07390
2259.42751 0.07513
2257.37907 0.07488
2255.33063 0.07476
2253.28219 0.07586
2251.23376 0.07705
2249.18532 0.07748
2247.13688 0.07775
2245.08844 0.07799
2243.04000 0.07777
2240.99156 0.07771
2238.94313 0.07866
2236.89469 0.07977
2234.84625 0.08001
2232.79781 0.07945
2230.74937 0.07840
2228.70093 0.07811
2226.65250 0.07906
2224.60406 0.07952
2222.55562 0.07929
2220.50718 0.07986
2218.45874 0.08087
2216.41030 0.08148
2214.36186 0.08224
2212.31343 0.08252
2210.26499 0.08222
2208.21655 0.08237
2206.16811 0.08215
2204.11967 0.08155
2202.07123 0.08188
2200.02280 0.08263
2197.97436 0.08190
2195.92592 0.08017
2193.87748 0.07934
2191.82904 0.07934
2189.78060 0.07958
2187.73217 0.07993
2185.68373 0.08006
2183.63529 0.08010
2181.58685 0.07984
2179.53841 0.07919
2177.48997 0.07925
2175.44154 0.07988
2173.39310 0.07956
2171.34466 0.07811
2169.29622 0.07665
2167.24778 0.07684
2165.19934 0.07815
2163.15091 0.07813
2161.10247 0.07681
2159.05403 0.07532
2157.00559 0.07340
2154.95715 0.07166
2152.90871 0.07083
2150.86028 0.07054
2148.81184 0.07072
2146.76340 0.07091
2144.71496 0.07097
2142.66652 0.07076
2140.61808 0.06973
2138.56965 0.06822
2136.52121 0.06673
2134.47277 0.06596
2132.42433 0.06641
2130.37589 0.06798
2128.32745 0.06988
2126.27902 0.07003
2124.23058 0.06821
2122.18214 0.06640
2120.13370 0.06557
2118.08526 0.06607
2116.03682 0.06692
2113.98839 0.06735
2111.93995 0.06763
2109.89151 0.06687
2107.84307 0.06499
2105.79463 0.06400
2103.74619 0.06584
2101.69776 0.06899
2099.64932 0.07004
2097.60088 0.06935
2095.55244 0.06960
2093.50400 0.07055
2091.45556 0.07024
2089.40713 0.06933
2087.35869 0.06963
2085.31025 0.07016
2083.26181 0.06989
2081.21337 0.07007
2079.16493 0.07065
2077.11649 0.07044
2075.06806 0.06991
2073.01962 0.07000
2070.97118 0.07057
2068.92274 0.07089
2066.87430 0.07031
2064.82586 0.06973
2062.77743 0.07087
2060.72899 0.07260
2058.68055 0.07247
2056.63211 0.07128
2054.58367 0.07065
2052.53523 0.06934
2050.48680 0.06759
2048.43836 0.06778
2046.38992 0.06937
2044.34148 0.07034
2042.29304 0.07060
2040.24460 0.07021
2038.19617 0.06861
2036.14773 0.06673
2034.09929 0.06582
2032.05085 0.06605
2030.00241 0.06670
2027.95397 0.06637
2025.90554 0.06439
2023.85710 0.06188
2021.80866 0.06078
2019.76022 0.06054
2017.71178 0.05932
2015.66334 0.05770
2013.61491 0.05672
2011.56647 0.05656
2009.51803 0.05619
2007.46959 0.05444
2005.42115 0.05283
2003.37271 0.05205
2001.32428 0.05070
1999.27584 0.04942
1997.22740 0.04917
1995.17896 0.04818
1993.13052 0.04563
1991.08208 0.04361
1989.03365 0.04270
1986.98521 0.04168
1984.93677 0.04069
1982.88833 0.04033
1980.83989 0.04079
1978.79145 0.04099
1976.74302 0.03928
1974.69458 0.03658
1972.64614 0.03468
1970.59770 0.03362
1968.54926 0.03305
1966.50082 0.03292
1964.45239 0.03233
1962.40395 0.03082
1960.35551 0.03005
1958.30707 0.03074
1956.25863 0.03163
1954.21019 0.03143
1952.16176 0.03070
1950.11332 0.03026
1948.06488 0.02889
1946.01644 0.02715
1943.96800 0.02664
1941.91956 0.02764
1939.87112 0.02966
1937.82269 0.03061
1935.77425 0.03047
1933.72581 0.03084
1931.67737 0.03139
1929.62893 0.03181
1927.58049 0.03294
1925.53206 0.03437
1923.48362 0.03492
1921.43518 0.03476
1919.38674 0.03486
1917.33830 0.03530
1915.28986 0.03620
1913.24143 0.03756
1911.19299 0.03826
1909.14455 0.03763
1907.09611 0.03713
1905.04767 0.03764
1902.99923 0.03848
1900.95080 0.03964
1898.90236 0.04112
1896.85392 0.04226
1894.80548 0.04349
1892.75704 0.04525
1890.70860 0.04630
1888.66017 0.04579
1886.61173 0.04493
1884.56329 0.04479
1882.51485 0.04555
1880.46641 0.04630
1878.41797 0.04623
1876.36954 0.04572
1874.32110 0.04530
1872.27266 0.04551
1870.22422 0.04542
1868.17578 0.04362
1866.12734 0.04180
1864.07891 0.04123
1862.03047 0.04134
1859.98203 0.04147
1857.93359 0.04066
1855.88515 0.03849
1853.83671 0.03612
1851.78828 0.03498
1849.73984 0.03480
1847.69140 0.03434
1845.64296 0.03393
1843.59452 0.03318
1841.54608 0.03085
1839.49765 0.02799
1837.44921 0.02457
1835.40077 0.02155
1833.35233 0.02097
1831.30389 0.02186
1829.25545 0.02103
1827.20702 0.01957
1825.15858 0.01945
1823.11014 0.01796
1821.06170 0.01409
1819.01326 0.01015
1816.96482 0.00793
1814.91639 0.00686
1812.86795 0.00593
1810.81951 0.00507
1808.77107 0.00473
1806.72263 0.00469
1804.67419 0.00360
1802.62575 0.00110
1800.57732 -0.00156
1798.52888 -0.00340
1796.48044 -0.00381
1794.43200 -0.00331
1792.38356 -0.00393
1790.33512 -0.00539
1788.28669 -0.00633
1786.23825 -0.00604
1784.18981 -0.00440
1782.14137 -0.00425
1780.09293 -0.00613
1778.04449 -0.00770
1775.99606 -0.00847
1773.94762 -0.00823
1771.89918 -0.00659
1769.85074 -0.00581
1767.80230 -0.00646
1765.75386 -0.00671
1763.70543 -0.00575
1761.65699 -0.00373
1759.60855 -0.00143
1757.56011 0.00031
1755.51167 0.00148
1753.46323 0.00293
1751.41480 0.00470
1749.36636 0.00529
1747.31792 0.00458
1745.26948 0.00373
1743.22104 0.00328
1741.17260 0.00418
1739.12417 0.00527
1737.07573 0.00474
1735.02729 0.00348
1732.97885 0.00293
1730.93041 0.00339
1728.88197 0.00429
1726.83354 0.00542
1724.78510 0.00593
1722.73666 0.00594
1720.68822 0.00619
1718.63978 0.00641
1716.59134 0.00702
1714.54291 0.00826
1712.49447 0.00835
1710.44603 0.00641
1708.39759 0.00350
1706.34915 0.00204
1704.30071 0.00213
1702.25228 0.00098
1700.20384 -0.00106
1698.15540 -0.00093
1696.10696 -0.00081
1694.05852 -0.00129
1692.01008 -0.00115
1689.96165 -0.00210
1687.91321 -0.00508
1685.86477 -0.00891
1683.81633 -0.01164
1681.76789 -0.01072
1679.71945 -0.00997
1677.67102 -0.01021
1675.62258 -0.01270
1673.57414 -0.01721
1671.52570 -0.01940
1669.47726 -0.02010
1667.42882 -0.02130
1665.38038 -0.02208
1663.33195 -0.02220
1661.28351 -0.02132
1659.23507 -0.02105
1657.18663 -0.02228
1655.13819 -0.02408
1653.08975 -0.02592
1651.04132 -0.02727
1648.99288 -0.02800
1646.94444 -0.02741
1644.89600 -0.02433
1642.84756 -0.02213
1640.79912 -0.02167
1638.75069 -0.02113
1636.70225 -0.01903
1634.65381 -0.01795
1632.60537 -0.01783
1630.55693 -0.01627
1628.50849 -0.01278
1626.46006 -0.00945
1624.41162 -0.00811
1622.36318 -0.00642
1620.31474 -0.00433
1618.26630 -0.00311
1616.21786 -0.00205
1614.16943 -0.00103
1612.12099 0.00064
1610.07255 0.00351
1608.02411 0.00574
1605.97567 0.00616
1603.92723 0.00639
1601.87880 0.00756
1599.83036 0.00877
1597.78192 0.00991
1595.73348 0.01212
1593.68504 0.01437
1591.63660 0.01531
1589.58817 0.01555
1587.53973 0.01629
1585.49129 0.01785
1583.44285 0.01901
1581.39441 0.01983
1579.34597 0.02152
1577.29754 0.02390
1575.24910 0.02489
1573.20066 0.02550
1571.15222 0.02735
1569.10378 0.02829
1567.05534 0.02747
1565.00691 0.02657
1562.95847 0.02529
1560.91003 0.02491
1558.86159 0.02809
1556.81315 0.02918
1554.76471 0.02701
1552.71628 0.02514
1550.66784 0.02373
1548.61940 0.02222
1546.57096 0.02176
1544.52252 0.02338
1542.47408 0.02745
1540.42565 0.03087
1538.37721 0.02721
1536.32877 0.02428
1534.28033 0.02328
1532.23189 0.02336
1530.18345 0.02364
1528.13501 0.02299
1526.08658 0.02188
1524.03814 0.02178
1521.98970 0.02149
1519.94126 0.02076
1517.89282 0.02137
1515.84438 0.02215
1513.79595 0.02167
1511.74751 0.02037
1509.69907 0.02077
1507.65063 0.02470
1505.60219 0.02330
1503.55375 0.02107
1501.50532 0.02114
1499.45688 0.02142
1497.40844 0.02173
1495.36000 0.02232
1493.31156 0.02329
1491.26312 0.02473
1489.21469 0.02524
1487.16625 0.02421
1485.11781 0.02402
1483.06937 0.02463
1481.02093 0.02458
1478.97249 0.02345
1476.92406 0.02292
1474.87562 0.02451
1472.82718 0.02572
1470.77874 0.02319
1468.73030 0.02101
1466.68186 0.01995
1464.63343 0.01834
1462.58499 0.01715
1460.53655 0.01804
1458.48811 0.02120
1456.43967 0.02327
1454.39123 0.02110
1452.34280 0.01926
1450.29436 0.01878
1448.24592 0.01950
1446.19748 0.01985
1444.14904 0.01936
1442.10060 0.01899
1440.05217 0.01928
1438.00373 0.01982
1435.95529 0.01876
1433.90685 0.01681
1431.85841 0.01671
1429.80997 0.01887
1427.76154 0.02095
1425.71310 0.02148
1423.66466 0.02105
1421.61622 0.02006
1419.56778 0.01804
1417.51934 0.01645
1415.47091 0.01699
1413.42247 0.01743
1411.37403 0.01712
1409.32559 0.01660
1407.27715 0.01530
1405.22871 0.01302
1403.18028 0.01158
1401.13184 0.01216
1399.08340 0.01479
1397.03496 0.01716
1394.98652 0.01704
1392.93808 0.01682
1390.88965 0.01722
1388.84121 0.01653
1386.79277 0.01385
1384.74433 0.01152
1382.69589 0.01116
1380.64745 0.01124
1378.59901 0.01121
1376.55058 0.01217
1374.50214 0.01242
1372.45370 0.01053
1370.40526 0.00974
1368.35682 0.01108
1366.30838 0.01280
1364.25995 0.01348
1362.21151 0.01343
1360.16307 0.01316
1358.11463 0.01285
1356.06619 0.01337
1354.01775 0.01442
1351.96932 0.01491
1349.92088 0.01495
1347.87244 0.01522
1345.82400 0.01638
1343.77556 0.01733
1341.72712 0.01708
1339.67869 0.01671
1337.63025 0.01733
1335.58181 0.01794
1333.53337 0.01769
1331.48493 0.01738
1329.43649 0.01788
1327.38806 0.01930
1325.33962 0.02000
1323.29118 0.01864
1321.24274 0.01661
1319.19430 0.01553
1317.14586 0.01529
1315.09743 0.01499
1313.04899 0.01424
1311.00055 0.01273
1308.95211 0.01086
1306.90367 0.00978
1304.85523 0.00995
1302.80680 0.00977
1300.75836 0.00782
1298.70992 0.00588
1296.66148 0.00548
1294.61304 0.00535
1292.56460 0.00465
1290.51617 0.00367
1288.46773 0.00210
1286.41929 0.00033
1284.37085 -0.00083
1282.32241 -0.00145
1280.27397 -0.00160
1278.22554 -0.00162
1276.17710 -0.00183
1274.12866 -0.00241
1272.08022 -0.00355
1270.03178 -0.00397
1267.98334 -0.00251
1265.93491 -0.00124
1263.88647 -0.00133
1261.83803 -0.00135
1259.78959 -0.00125
1257.74115 -0.00086
1255.69271 0.00065
1253.64428 0.00286
1251.59584 0.00520
1249.54740 0.00711
1247.49896 0.00879
1245.45052 0.01084
1243.40208 0.01221
1241.35364 0.01227
1239.30521 0.01272
1237.25677 0.01502
1235.20833 0.01788
1233.15989 0.01953
1231.11145 0.02071
1229.06301 0.02171
1227.01458 0.02219
1224.96614 0.02337
1222.91770 0.02522
1220.86926 0.02703
1218.82082 0.02923
1216.77238 0.03047
1214.72395 0.03024
1212.67551 0.02976
1210.62707 0.02933
1208.57863 0.02998
1206.53019 0.03129
1204.48175 0.03118
1202.43332 0.03005
1200.38488 0.02945
1198.33644 0.03052
1196.28800 0.03255
1194.23956 0.03303
1192.19112 0.03141
1190.14269 0.02907
1188.09425 0.02687
1186.04581 0.02470
1183.99737 0.02337
1181.94893 0.02347
1179.90049 0.02322
1177.85206 0.02143
1175.80362 0.01867
1173.75518 0.01489
1171.70674 0.01092
1169.65830 0.00878
1167.60986 0.00787
1165.56143 0.00614
1163.51299 0.00270
1161.46455 -0.00137
1159.41611 -0.00482
1157.36767 -0.00816
1155.31923 -0.01141
1153.27080 -0.01401
1151.22236 -0.01566
1149.17392 -0.01715
1147.12548 -0.01936
1145.07704 -0.02107
1143.02860 -0.02142
1140.98017 -0.02143
1138.93173 -0.02185
1136.88329 -0.02262
1134.83485 -0.02444
1132.78641 -0.02673
1130.73797 -0.02746
1128.68954 -0.02780
1126.64110 -0.02862
1124.59266 -0.02866
1122.54422 -0.02926
1120.49578 -0.02922
1118.44734 -0.02696
1116.39891 -0.02619
1114.35047 -0.02753
1112.30203 -0.02818
1110.25359 -0.02801
1108.20515 -0.02827
1106.15671 -0.02793
1104.10827 -0.02522
1102.05984 -0.02177
1100.01140 -0.02004
1097.96296 -0.01889
1095.91452 -0.01757
1093.86608 -0.01772
1091.81764 -0.01796
1089.76921 -0.01575
1087.72077 -0.01343
1085.67233 -0.01407
1083.62389 -0.01541
1081.57545 -0.01497
1079.52701 -0.01373
1077.47858 -0.01295
1075.43014 -0.01235
1073.38170 -0.01128
1071.33326 -0.00978
1069.28482 -0.00872
1067.23638 -0.00901
1065.18795 -0.00991
1063.13951 -0.01081
1061.09107 -0.01152
1059.04263 -0.01224
1056.99419 -0.01287
1054.94575 -0.01377
1052.89732 -0.01639
1050.84888 -0.01876
1048.80044 -0.01911
1046.75200 -0.02062
1044.70356 -0.02540
1042.65512 -0.02944
1040.60669 -0.03047
1038.55825 -0.03123
1036.50981 -0.03086
1034.46137 -0.02894
1032.41293 -0.02902
1030.36449 -0.03190
1028.31606 -0.03651
1026.26762 -0.03932
1024.21918 -0.03726
1022.17074 -0.03579
1020.12230 -0.03934
1018.07386 -0.04326
1016.02543 -0.04315
1013.97699 -0.04327
1011.92855 -0.04580
1009.88011 -0.04507
1007.83167 -0.04117
1005.78323 -0.03969
1003.73480 -0.04217
1001.68636 -0.04388
999.63792 -0.04205
997.58948 -0.03899
995.54104 -0.03664
993.49260 -0.03678
991.44417 -0.03843
989.39573 -0.03948
987.34729 -0.03831
985.29885 -0.03524
983.25041 -0.03603
981.20197 -0.03993
979.15354 -0.03855
977.10510 -0.03326
975.05666 -0.03131
973.00822 -0.03188
970.95978 -0.03123
968.91134 -0.02839
966.86290 -0.02450
964.81447 -0.02334
962.76603 -0.02607
960.71759 -0.02863
958.66915 -0.02659
956.62071 -0.02181
954.57227 -0.02184
952.52384 -0.02795
950.47540 -0.03272
948.42696 -0.03302
946.37852 -0.03594
944.33008 -0.04544
942.28164 -0.05822
940.23321 -0.07408
938.18477 -0.09169
936.13633 -0.10805
934.08789 -0.12442
932.03945 -0.14054
929.99101 -0.15378
927.94258 -0.16480
925.89414 -0.17612
923.84570 -0.18815
921.79726 -0.19988
919.74882 -0.21007
917.70038 -0.21674
915.65195 -0.22070
913.60351 -0.22521
911.55507 -0.23079
909.50663 -0.23538
907.45819 -0.23801
905.40975 -0.23951
903.36132 -0.23968
901.31288 -0.23933
899.26444 -0.24023
897.21600 -0.24087
895.16756 -0.23988
893.11912 -0.23662
891.07069 -0.23040
889.02225 -0.22419
886.97381 -0.21984
884.92537 -0.21519
882.87693 -0.21013
880.82849 -0.20558
878.78006 -0.20048
876.73162 -0.19441
874.68318 -0.18753
872.63474 -0.17959
870.58630 -0.17253
868.53786 -0.16775
866.48943 -0.16344
864.44099 -0.16076
862.39255 -0.16103
860.34411 -0.15926
858.29567 -0.15291
856.24723 -0.14630
854.19880 -0.14092
852.15036 -0.13651
850.10192 -0.13564
848.05348 -0.13656
846.00504 -0.13550
843.95660 -0.13335
841.90817 -0.13160
839.85973 -0.13220
837.81129 -0.13585
835.76285 -0.13776
833.71441 -0.13727
831.66597 -0.13739
829.61753 -0.13773
827.56910 -0.13872
825.52066 -0.14035
823.47222 -0.14192
821.42378 -0.14359
819.37534 -0.14448
817.32690 -0.14393
815.27847 -0.14316
813.23003 -0.14350
811.18159 -0.14433
809.13315 -0.14416
807.08471 -0.14367
805.03627 -0.14483
802.98784 -0.14716
800.93940 -0.14858
798.89096 -0.14856
796.84252 -0.14837
794.79408 -0.14924
792.74564 -0.15069
790.69721 -0.15096
788.64877 -0.15048
786.60033 -0.15126
784.55189 -0.15248
782.50345 -0.15276
780.45501 -0.15308
778.40658 -0.15450
776.35814 -0.15529
774.30970 -0.15522
772.26126 -0.15648
770.21282 -0.15731
768.16438 -0.15775
766.11595 -0.15924
764.06751 -0.15847
762.01907 -0.15503
759.97063 -0.15311
757.92219 -0.15597
755.87375 -0.16205
753.82532 -0.16541
751.77688 -0.16395
749.72844 -0.16207
747.68000 -0.16262
745.63156 -0.16285
743.58312 -0.15937
741.53469 -0.15342
739.48625 -0.15097
737.43781 -0.15200
735.38937 -0.14989
733.34093 -0.14688
731.29249 -0.14658
729.24406 -0.14812
727.19562 -0.15521
725.14718 -0.16450
723.09874 -0.16590
721.05030 -0.15707
719.00186 -0.14455
716.95343 -0.13721
714.90499 -0.13503
712.85655 -0.13723
710.80811 -0.14235
708.75967 -0.14501
706.71123 -0.14861
704.66280 -0.15362
702.61436 -0.15411
700.56592 -0.15409
698.51748 -0.15347
696.46904 -0.14494
694.42060 -0.13858
692.37216 -0.14391
690.32373 -0.15838
688.27529 -0.17610
686.22685 -0.18140
684.17841 -0.17318
682.12997 -0.15796
680.08153 -0.14220
678.03310 -0.13602
675.98466 -0.13838
673.93622 -0.14757
671.88778 -0.15218
669.83934 -0.13894
667.79090 -0.11928
665.74247 -0.11723
663.69403 -0.11976
661.64559 -0.11659
659.59715 -0.10718
657.54871 -0.09838
655.50027 -0.09311
653.45184 -0.09415
651.40340 -0.10012
649.35496 -0.10768
647.30652 -0.11136
645.25808 -0.10012
643.20964 -0.07639
641.16121 -0.05694
639.11277 -0.06011
637.06433 -0.07656
635.01589 -0.07916
632.96745 -0.06747
630.91901 -0.06751
628.87058 -0.09369
626.82214 -0.10756
624.77370 -0.07528
622.72526 -0.02736
620.67682 -0.00069
618.62838 0.00577
616.57995 0.02594
614.53151 0.06583
612.48307 0.08825
610.43463 0.07067
608.38619 0.04233
606.33775 0.02758
604.28932 0.02342
602.24088 0.02829
600.19244 0.01477
598.14400 -0.02361
