3996.50324 -0.01070
3994.45480 -0.01051
3992.40636 -0.01120
3990.35792 -0.01145
3988.30948 -0.01095
3986.26104 -0.01119
3984.21261 -0.01262
3982.16417 -0.01337
3980.11573 -0.01157
3978.06729 -0.00907
3976.01885 -0.00851
3973.97041 -0.00926
3971.92198 -0.00939
3969.87354 -0.00914
3967.82510 -0.00964
3965.77666 -0.00993
3963.72822 -0.01039
3961.67978 -0.01167
3959.63135 -0.01179
3957.58291 -0.01132
3955.53447 -0.01149
3953.48603 -0.01177
3951.43759 -0.01281
3949.38915 -0.01391
3947.34072 -0.01314
3945.29228 -0.01151
3943.24384 -0.01034
3941.19540 -0.00923
3939.14696 -0.00836
3937.09852 -0.00882
3935.05009 -0.01042
3933.00165 -0.01205
3930.95321 -0.01262
3928.90477 -0.01278
3926.85633 -0.01337
3924.80789 -0.01376
3922.75946 -0.01394
3920.71102 -0.01413
3918.66258 -0.01348
3916.61414 -0.01239
3914.56570 -0.01205
3912.51726 -0.01107
3910.46883 -0.00972
3908.42039 -0.00857
3906.37195 -0.00576
3904.32351 -0.00341
3902.27507 -0.00655
3900.22663 -0.00972
3898.17820 -0.00929
3896.12976 -0.00870
3894.08132 -0.00874
3892.03288 -0.00969
3889.98444 -0.01114
3887.93600 -0.01110
3885.88756 -0.00966
3883.83913 -0.00893
3881.79069 -0.00990
3879.74225 -0.01049
3877.69381 -0.01064
3875.64537 -0.01071
3873.59693 -0.01113
3871.54850 -0.01331
3869.50006 -0.01393
3867.45162 -0.01221
3865.40318 -0.01189
3863.35474 -0.01091
3861.30630 -0.00865
3859.25787 -0.00810
3857.20943 -0.00834
3855.16099 -0.00690
3853.11255 -0.00655
3851.06411 -0.00953
3849.01567 -0.00958
3846.96724 -0.00903
3844.91880 -0.00999
3842.87036 -0.01306
3840.82192 -0.01706
3838.77348 -0.01834
3836.72504 -0.01538
3834.67661 -0.01273
3832.62817 -0.01239
3830.57973 -0.01302
3828.53129 -0.01322
3826.48285 -0.01177
3824.43441 -0.00955
3822.38598 -0.00844
3820.33754 -0.00862
3818.28910 -0.00995
3816.24066 -0.01199
3814.19222 -0.01301
3812.14378 -0.01261
3810.09535 -0.01207
3808.04691 -0.01216
3805.99847 -0.01301
3803.95003 -0.01328
3801.90159 -0.01216
3799.85315 -0.01066
3797.80472 -0.01025
3795.75628 -0.01008
3793.70784 -0.00975
3791.65940 -0.00958
3789.61096 -0.00972
3787.56252 -0.01086
3785.51409 -0.01201
3783.46565 -0.01170
3781.41721 -0.01104
3779.36877 -0.01033
3777.32033 -0.00909
3775.27189 -0.00823
3773.22346 -0.00823
3771.17502 -0.00922
3769.12658 -0.01141
3767.07814 -0.01266
3765.02970 -0.01148
3762.98126 -0.01012
3760.93283 -0.01048
3758.88439 -0.01082
3756.83595 -0.01011
3754.78751 -0.01062
3752.73907 -0.01371
3750.69063 -0.01800
3748.64219 -0.01760
3746.59376 -0.01644
3744.54532 -0.01542
3742.49688 -0.01206
3740.44844 -0.01013
3738.40000 -0.01159
3736.35156 -0.01386
3734.30313 -0.01241
3732.25469 -0.01186
3730.20625 -0.01176
3728.15781 -0.00996
3726.10937 -0.00966
3724.06093 -0.01237
3722.01250 -0.01379
3719.96406 -0.01172
3717.91562 -0.00889
3715.86718 -0.00861
3713.81874 -0.00950
3711.77030 -0.00958
3709.72187 -0.01247
3707.67343 -0.01470
3705.62499 -0.01388
3703.57655 -0.01283
3701.52811 -0.01239
3699.47967 -0.01206
3697.43124 -0.01216
3695.38280 -0.01264
3693.33436 -0.01337
3691.28592 -0.01387
3689.23748 -0.01237
3687.18904 -0.01012
3685.14061 -0.00936
3683.09217 -0.00952
3681.04373 -0.00962
3678.99529 -0.00941
3676.94685 -0.00943
3674.89841 -0.01048
3672.84998 -0.01189
3670.80154 -0.01236
3668.75310 -0.01158
3666.70466 -0.00994
3664.65622 -0.00943
3662.60778 -0.01131
3660.55935 -0.01353
3658.51091 -0.01408
3656.46247 -0.01330
3654.41403 -0.01179
3652.36559 -0.01045
3650.31715 -0.01108
3648.26872 -0.01333
3646.22028 -0.01206
3644.17184 -0.01103
3642.12340 -0.01216
3640.07496 -0.01428
3638.02652 -0.01466
3635.97809 -0.01305
3633.92965 -0.01124
3631.88121 -0.00840
3629.83277 -0.00542
3627.78433 -0.00797
3625.73589 -0.01150
3623.68746 -0.01180
3621.63902 -0.00956
3619.59058 -0.00588
3617.54214 -0.00487
3615.49370 -0.00838
3613.44526 -0.01213
3611.39682 -0.01215
3609.34839 -0.01093
3607.29995 -0.00962
3605.25151 -0.00842
3603.20307 -0.00857
3601.15463 -0.00868
3599.10619 -0.00737
3597.05776 -0.00541
3595.00932 -0.00336
3592.96088 -0.00277
3590.91244 -0.00417
3588.86400 -0.00510
3586.81556 -0.00390
3584.76713 -0.00420
3582.71869 -0.00732
3580.67025 -0.01047
3578.62181 -0.01180
3576.57337 -0.01115
3574.52493 -0.00869
3572.47650 -0.00567
3570.42806 -0.00379
3568.37962 -0.00468
3566.33118 -0.00767
3564.28274 -0.00947
3562.23430 -0.00980
3560.18587 -0.00885
3558.13743 -0.00821
3556.08899 -0.00833
3554.04055 -0.00801
3551.99211 -0.00824
3549.94367 -0.00870
3547.89524 -0.00690
3545.84680 -0.00534
3543.79836 -0.00753
3541.74992 -0.00923
3539.70148 -0.00762
3537.65304 -0.00384
3535.60461 -0.00143
3533.55617 -0.00289
3531.50773 -0.00512
3529.45929 -0.00489
3527.41085 -0.00403
3525.36241 -0.00504
3523.31398 -0.00422
3521.26554 -0.00264
3519.21710 -0.00594
3517.16866 -0.00986
3515.12022 -0.00872
3513.07178 -0.00541
3511.02335 -0.00421
3508.97491 -0.00533
3506.92647 -0.00756
3504.87803 -0.01013
3502.82959 -0.01186
3500.78115 -0.01108
3498.73272 -0.00787
3496.68428 -0.00443
3494.63584 -0.00234
3492.58740 -0.00147
3490.53896 -0.00075
3488.49052 -0.00188
3486.44209 -0.00587
3484.39365 -0.00732
3482.34521 -0.00367
3480.29677 -0.00006
3478.24833 -0.00110
3476.19989 -0.00507
3474.15146 -0.00914
3472.10302 -0.01165
3470.05458 -0.01120
3468.00614 -0.00782
3465.95770 -0.00232
3463.90926 0.00060
3461.86082 -0.00306
3459.81239 -0.00628
3457.76395 -0.00470
3455.71551 -0.00301
3453.66707 -0.00229
3451.61863 -0.00256
3449.57019 -0.00437
3447.52176 -0.00563
3445.47332 -0.00536
3443.42488 -0.00455
3441.37644 -0.00351
3439.32800 -0.00242
3437.27956 -0.00190
3435.23113 -0.00336
3433.18269 -0.00680
3431.13425 -0.00831
3429.08581 -0.00720
3427.03737 -0.00704
3424.98893 -0.00828
3422.94050 -0.00766
3420.89206 -0.00389
3418.84362 -0.00116
3416.79518 -0.00095
3414.74674 -0.00212
3412.69830 -0.00445
3410.64987 -0.00532
3408.60143 -0.00380
3406.55299 -0.00151
3404.50455 -0.00041
3402.45611 -0.00158
3400.40767 -0.00299
3398.35924 -0.00379
3396.31080 -0.00542
3394.26236 -0.00731
3392.21392 -0.00855
3390.16548 -0.00877
3388.11704 -0.00762
3386.06861 -0.00682
3384.02017 -0.00790
3381.97173 -0.00852
3379.92329 -0.00697
3377.87485 -0.00517
3375.82641 -0.00475
3373.77798 -0.00543
3371.72954 -0.00629
3369.68110 -0.00688
3367.63266 -0.00734
3365.58422 -0.00826
3363.53578 -0.00831
3361.48735 -0.00628
3359.43891 -0.00456
3357.39047 -0.00392
3355.34203 -0.00319
3353.29359 -0.00365
3351.24515 -0.00506
3349.19672 -0.00418
3347.14828 -0.00235
3345.09984 -0.00218
3343.05140 -0.00328
3341.00296 -0.00591
3338.95452 -0.00743
3336.90609 -0.00591
3334.85765 -0.00449
3332.80921 -0.00388
3330.76077 -0.00321
3328.71233 -0.00481
3326.66389 -0.00911
3324.61545 -0.01155
3322.56702 -0.01024
3320.51858 -0.00870
3318.47014 -0.00752
3316.42170 -0.00664
3314.37326 -0.00829
3312.32482 -0.01003
3310.27639 -0.00926
3308.22795 -0.00809
3306.17951 -0.00694
3304.13107 -0.00442
3302.08263 -0.00250
3300.03419 -0.00401
3297.98576 -0.00781
3295.93732 -0.01041
3293.88888 -0.00989
3291.84044 -0.00738
3289.79200 -0.00496
3287.74356 -0.00378
3285.69513 -0.00366
3283.64669 -0.00217
3281.59825 0.00028
3279.54981 -0.00038
3277.50137 -0.00269
3275.45293 -0.00298
3273.40450 -0.00165
3271.35606 -0.00123
3269.30762 -0.00258
3267.25918 -0.00434
3265.21074 -0.00536
3263.16230 -0.00433
3261.11387 -0.00178
3259.06543 -0.00074
3257.01699 -0.00151
3254.96855 -0.00220
3252.92011 -0.00381
3250.87167 -0.00576
3248.82324 -0.00585
3246.77480 -0.00605
3244.72636 -0.00635
3242.67792 -0.00593
3240.62948 -0.00601
3238.58104 -0.00524
3236.53261 -0.00507
3234.48417 -0.00680
3232.43573 -0.00692
3230.38729 -0.00569
3228.33885 -0.00563
3226.29041 -0.00626
3224.24198 -0.00617
3222.19354 -0.00520
3220.14510 -0.00438
3218.09666 -0.00306
3216.04822 -0.00084
3213.99978 -0.00030
3211.95135 -0.00299
3209.90291 -0.00736
3207.85447 -0.01039
3205.80603 -0.00954
3203.75759 -0.00652
3201.70915 -0.00530
3199.66072 -0.00610
3197.61228 -0.00658
3195.56384 -0.00562
3193.51540 -0.00390
3191.46696 -0.00338
3189.41852 -0.00438
3187.37008 -0.00459
3185.32165 -0.00469
3183.27321 -0.00764
3181.22477 -0.01138
3179.17633 -0.01121
3177.12789 -0.00813
3175.07945 -0.00727
3173.03102 -0.00898
3170.98258 -0.01021
3168.93414 -0.00871
3166.88570 -0.00546
3164.83726 -0.00477
3162.78882 -0.00622
3160.74039 -0.00614
3158.69195 -0.00536
3156.64351 -0.00572
3154.59507 -0.00675
3152.54663 -0.00678
3150.49819 -0.00485
3148.44976 -0.00272
3146.40132 -0.00248
3144.35288 -0.00424
3142.30444 -0.00627
3140.25600 -0.00697
3138.20756 -0.00518
3136.15913 -0.00156
3134.11069 0.00014
3132.06225 -0.00159
3130.01381 -0.00431
3127.96537 -0.00512
3125.91693 -0.00426
3123.86850 -0.00403
3121.82006 -0.00433
3119.77162 -0.00387
3117.72318 -0.00327
3115.67474 -0.00371
3113.62630 -0.00422
3111.57787 -0.00510
3109.52943 -0.00710
3107.48099 -0.00717
3105.43255 -0.00496
3103.38411 -0.00346
3101.33567 -0.00305
3099.28724 -0.00343
3097.23880 -0.00458
3095.19036 -0.00577
3093.14192 -0.00624
3091.09348 -0.00571
3089.04504 -0.00491
3086.99661 -0.00551
3084.94817 -0.00783
3082.89973 -0.00796
3080.85129 -0.00543
3078.80285 -0.00532
3076.75441 -0.00728
3074.70598 -0.00753
3072.65754 -0.00606
3070.60910 -0.00518
3068.56066 -0.00631
3066.51222 -0.00749
3064.46378 -0.00605
3062.41535 -0.00401
3060.36691 -0.00314
3058.31847 -0.00289
3056.27003 -0.00349
3054.22159 -0.00341
3052.17315 -0.00301
3050.12471 -0.00528
3048.07628 -0.00769
3046.02784 -0.00619
3043.97940 -0.00383
3041.93096 -0.00413
3039.88252 -0.00501
3037.83408 -0.00375
3035.78565 -0.00219
3033.73721 -0.00334
3031.68877 -0.00455
3029.64033 -0.00351
3027.59189 -0.00371
3025.54345 -0.00569
3023.49502 -0.00580
3021.44658 -0.00466
3019.39814 -0.00508
3017.34970 -0.00635
3015.30126 -0.00667
3013.25282 -0.00618
3011.20439 -0.00609
3009.15595 -0.00561
3007.10751 -0.00350
3005.05907 -0.00211
3003.01063 -0.00326
3000.96219 -0.00586
2998.91376 -0.00875
2996.86532 -0.00995
2994.81688 -0.00828
2992.76844 -0.00598
2990.72000 -0.00471
2988.67156 -0.00458
2986.62313 -0.00608
2984.57469 -0.00791
2982.52625 -0.00855
2980.47781 -0.00789
2978.42937 -0.00598
2976.38093 -0.00356
2974.33250 -0.00130
2972.28406 -0.00034
2970.23562 -0.00159
2968.18718 -0.00345
2966.13874 -0.00398
2964.09030 -0.00368
2962.04187 -0.00449
2959.99343 -0.00618
2957.94499 -0.00684
2955.89655 -0.00542
2953.84811 -0.00356
2951.79967 -0.00448
2949.75124 -0.00739
2947.70280 -0.00824
2945.65436 -0.00627
2943.60592 -0.00414
2941.55748 -0.00329
2939.50904 -0.00429
2937.46061 -0.00637
2935.41217 -0.00699
2933.36373 -0.00573
2931.31529 -0.00433
2929.26685 -0.00439
2927.21841 -0.00559
2925.16998 -0.00731
2923.12154 -0.00880
2921.07310 -0.00769
2919.02466 -0.00547
2916.97622 -0.00514
2914.92778 -0.00581
2912.87934 -0.00623
2910.83091 -0.00669
2908.78247 -0.00727
2906.73403 -0.00668
2904.68559 -0.00536
2902.63715 -0.00535
2900.58871 -0.00592
2898.54028 -0.00559
2896.49184 -0.00528
2894.44340 -0.00504
2892.39496 -0.00366
2890.34652 -0.00318
2888.29808 -0.00528
2886.24965 -0.00631
2884.20121 -0.00569
2882.15277 -0.00642
2880.10433 -0.00764
2878.05589 -0.00784
2876.00745 -0.00733
2873.95902 -0.00730
2871.91058 -0.00775
2869.86214 -0.00807
2867.81370 -0.00865
2865.76526 -0.00870
2863.71682 -0.00815
2861.66839 -0.00819
2859.61995 -0.00833
2857.57151 -0.00822
2855.52307 -0.00845
2853.47463 -0.00851
2851.42619 -0.00838
2849.37776 -0.00825
2847.32932 -0.00750
2845.28088 -0.00640
2843.23244 -0.00654
2841.18400 -0.00793
2839.13556 -0.00850
2837.08713 -0.00840
2835.03869 -0.00870
2832.99025 -0.00896
2830.94181 -0.00826
2828.89337 -0.00657
2826.84493 -0.00591
2824.79650 -0.00731
2822.74806 -0.00900
2820.69962 -0.00924
2818.65118 -0.00848
2816.60274 -0.00807
2814.55430 -0.00775
2812.50587 -0.00720
2810.45743 -0.00689
2808.40899 -0.00681
2806.36055 -0.00689
2804.31211 -0.00711
2802.26367 -0.00707
2800.21524 -0.00679
2798.16680 -0.00628
2796.11836 -0.00559
2794.06992 -0.00547
2792.02148 -0.00556
2789.97304 -0.00631
2787.92461 -0.00929
2785.87617 -0.01205
2783.82773 -0.01212
2781.77929 -0.01117
2779.73085 -0.00947
2777.68241 -0.00564
2775.63397 -0.00249
2773.58554 -0.00236
2771.53710 -0.00372
2769.48866 -0.00613
2767.44022 -0.00775
2765.39178 -0.00717
2763.34334 -0.00613
2761.29491 -0.00510
2759.24647 -0.00551
2757.19803 -0.00763
2755.14959 -0.00884
2753.10115 -0.00887
2751.05271 -0.00807
2749.00428 -0.00717
2746.95584 -0.00790
2744.90740 -0.00841
2742.85896 -0.00683
2740.81052 -0.00572
2738.76208 -0.00639
2736.71365 -0.00660
2734.66521 -0.00551
2732.61677 -0.00493
2730.56833 -0.00586
2728.51989 -0.00690
2726.47145 -0.00773
2724.42302 -0.00877
2722.37458 -0.00914
2720.32614 -0.00908
2718.27770 -0.00936
2716.22926 -0.00943
2714.18082 -0.00876
2712.13239 -0.00767
2710.08395 -0.00690
2708.03551 -0.00726
2705.98707 -0.00896
2703.93863 -0.01010
2701.89019 -0.00941
2699.84176 -0.00821
2697.79332 -0.00814
2695.74488 -0.00912
2693.69644 -0.00889
2691.64800 -0.00690
2689.59956 -0.00521
2687.55113 -0.00506
2685.50269 -0.00656
2683.45425 -0.00844
2681.40581 -0.00848
2679.35737 -0.00713
2677.30893 -0.00770
2675.26050 -0.01052
2673.21206 -0.01172
2671.16362 -0.01011
2669.11518 -0.00854
2667.06674 -0.00851
2665.01830 -0.00836
2662.96987 -0.00703
2660.92143 -0.00665
2658.87299 -0.00811
2656.82455 -0.00878
2654.77611 -0.00753
2652.72767 -0.00725
2650.67924 -0.00965
2648.63080 -0.01171
2646.58236 -0.01099
2644.53392 -0.00841
2642.48548 -0.00628
2640.43704 -0.00638
2638.38860 -0.00716
2636.34017 -0.00664
2634.29173 -0.00615
2632.24329 -0.00675
2630.19485 -0.00754
2628.14641 -0.00796
2626.09797 -0.00746
2624.04954 -0.00640
2622.00110 -0.00627
2619.95266 -0.00657
2617.90422 -0.00636
2615.85578 -0.00695
2613.80734 -0.00882
2611.75891 -0.01037
2609.71047 -0.01035
2607.66203 -0.00941
2605.61359 -0.00965
2603.56515 -0.01094
2601.51671 -0.01129
2599.46828 -0.01055
2597.41984 -0.00924
2595.37140 -0.00852
2593.32296 -0.00947
2591.27452 -0.00982
2589.22608 -0.00837
2587.17765 -0.00735
2585.12921 -0.00746
2583.08077 -0.00786
2581.03233 -0.00825
2578.98389 -0.00841
2576.93545 -0.00786
2574.88702 -0.00724
2572.83858 -0.00769
2570.79014 -0.00822
2568.74170 -0.00812
2566.69326 -0.00847
2564.64482 -0.00928
2562.59639 -0.00948
2560.54795 -0.00904
2558.49951 -0.00863
2556.45107 -0.00834
2554.40263 -0.00863
2552.35419 -0.00948
2550.30576 -0.00941
2548.25732 -0.00824
2546.20888 -0.00741
2544.16044 -0.00713
2542.11200 -0.00679
2540.06356 -0.00667
2538.01513 -0.00726
2535.96669 -0.00774
2533.91825 -0.00764
2531.86981 -0.00783
2529.82137 -0.00792
2527.77293 -0.00744
2525.72450 -0.00721
2523.67606 -0.00779
2521.62762 -0.00892
2519.57918 -0.00962
2517.53074 -0.00941
2515.48230 -0.00916
2513.43387 -0.00970
2511.38543 -0.01012
2509.33699 -0.00999
2507.28855 -0.01006
2505.24011 -0.00987
2503.19167 -0.00970
2501.14324 -0.00972
2499.09480 -0.00833
2497.04636 -0.00692
2494.99792 -0.00725
2492.94948 -0.00742
2490.90104 -0.00749
2488.85260 -0.00947
2486.80417 -0.01189
2484.75573 -0.01203
2482.70729 -0.01044
2480.65885 -0.00948
2478.61041 -0.00935
2476.56197 -0.00954
2474.51354 -0.00982
2472.46510 -0.00923
2470.41666 -0.00863
2468.36822 -0.00881
2466.31978 -0.00846
2464.27134 -0.00745
2462.22291 -0.00682
2460.17447 -0.00682
2458.12603 -0.00743
2456.07759 -0.00865
2454.02915 -0.00982
2451.98071 -0.01008
2449.93228 -0.00967
2447.88384 -0.00913
2445.83540 -0.00776
2443.78696 -0.00615
2441.73852 -0.00699
2439.69008 -0.00939
2437.64165 -0.01010
2435.59321 -0.00948
2433.54477 -0.00933
2431.49633 -0.00997
2429.44789 -0.01004
2427.39945 -0.00872
2425.35102 -0.00782
2423.30258 -0.00862
2421.25414 -0.01004
2419.20570 -0.01061
2417.15726 -0.01026
2415.10882 -0.00989
2413.06039 -0.00968
2411.01195 -0.00977
2408.96351 -0.01068
2406.91507 -0.01139
2404.86663 -0.01014
2402.81819 -0.00779
2400.76976 -0.00689
2398.72132 -0.00806
2396.67288 -0.01006
2394.62444 -0.01110
2392.57600 -0.01052
2390.52756 -0.01001
2388.47913 -0.01048
2386.43069 -0.01107
2384.38225 -0.01114
2382.33381 -0.01081
2380.28537 -0.01136
2378.23693 -0.01333
2376.18850 -0.01541
2374.14006 -0.01765
2372.09162 -0.02167
2370.04318 -0.02846
2367.99474 -0.03331
2365.94630 -0.03074
2363.89787 -0.02967
2361.84943 -0.03557
2359.80099 -0.03438
2357.75255 -0.01901
2355.70411 -0.00973
2353.65567 -0.01530
2351.60723 -0.02102
2349.55880 -0.02317
2347.51036 -0.02457
2345.46192 -0.02374
2343.41348 -0.02131
2341.36504 -0.02444
2339.31660 -0.02842
2337.26817 -0.02543
2335.21973 -0.02152
2333.17129 -0.02309
2331.12285 -0.02618
2329.07441 -0.02635
2327.02597 -0.02444
2324.97754 -0.02146
2322.92910 -0.01911
2320.88066 -0.01933
2318.83222 -0.02111
2316.78378 -0.02140
2314.73534 -0.01966
2312.68691 -0.01775
2310.63847 -0.01585
2308.59003 -0.01398
2306.54159 -0.01350
2304.49315 -0.01378
2302.44471 -0.01323
2300.39628 -0.01248
2298.34784 -0.01227
2296.29940 -0.01198
2294.25096 -0.01154
2292.20252 -0.01107
2290.15408 -0.01041
2288.10565 -0.01037
2286.05721 -0.01062
2284.00877 -0.01010
2281.96033 -0.01007
2279.91189 -0.01085
2277.86345 -0.01043
2275.81502 -0.00901
2273.76658 -0.00863
2271.71814 -0.00922
2269.66970 -0.00924
2267.62126 -0.00853
2265.57282 -0.00903
2263.52439 -0.01056
2261.47595 -0.01076
2259.42751 -0.00988
2257.37907 -0.00961
2255.33063 -0.01031
2253.28219 -0.01104
2251.23376 -0.01094
2249.18532 -0.00995
2247.13688 -0.00908
2245.08844 -0.00961
2243.04000 -0.01006
2240.99156 -0.00929
2238.94313 -0.00910
2236.89469 -0.00957
2234.84625 -0.00910
2232.79781 -0.00852
2230.74937 -0.00931
2228.70093 -0.01057
2226.65250 -0.01086
2224.60406 -0.01085
2222.55562 -0.01133
2220.50718 -0.01111
2218.45874 -0.00973
2216.41030 -0.00818
2214.36186 -0.00734
2212.31343 -0.00732
2210.26499 -0.00792
2208.21655 -0.00906
2206.16811 -0.01030
2204.11967 -0.01094
2202.07123 -0.01067
2200.02280 -0.00946
2197.97436 -0.00888
2195.92592 -0.01000
2193.87748 -0.01056
2191.82904 -0.00999
2189.78060 -0.01023
2187.73217 -0.01123
2185.68373 -0.01145
2183.63529 -0.01040
2181.58685 -0.00951
2179.53841 -0.00974
2177.48997 -0.00965
2175.44154 -0.00846
2173.39310 -0.00785
2171.34466 -0.00891
2169.29622 -0.01025
2167.24778 -0.00976
2165.19934 -0.00794
2163.15091 -0.00723
2161.10247 -0.00796
2159.05403 -0.00919
2157.00559 -0.01065
2154.95715 -0.01156
2152.90871 -0.01183
2150.86028 -0.01158
2148.81184 -0.01036
2146.76340 -0.00906
2144.71496 -0.00848
2142.66652 -0.00841
2140.61808 -0.00886
2138.56965 -0.00978
2136.52121 -0.01120
2134.47277 -0.01243
2132.42433 -0.01269
2130.37589 -0.01222
2128.32745 -0.01095
2126.27902 -0.00901
2124.23058 -0.00746
2122.18214 -0.00788
2120.13370 -0.00988
2118.08526 -0.01026
2116.03682 -0.00890
2113.98839 -0.00838
2111.93995 -0.00866
2109.89151 -0.00898
2107.84307 -0.00915
2105.79463 -0.00892
2103.74619 -0.00852
2101.69776 -0.00778
2099.64932 -0.00728
2097.60088 -0.00773
2095.55244 -0.00796
2093.50400 -0.00698
2091.45556 -0.00652
2089.40713 -0.00741
2087.35869 -0.00763
2085.31025 -0.00727
2083.26181 -0.00728
2081.21337 -0.00684
2079.16493 -0.00666
2077.11649 -0.00778
2075.06806 -0.00888
2073.01962 -0.00872
2070.97118 -0.00823
2068.92274 -0.00853
2066.87430 -0.00919
2064.82586 -0.00913
2062.77743 -0.00831
2060.72899 -0.00721
2058.68055 -0.00647
2056.63211 -0.00690
2054.58367 -0.00851
2052.53523 -0.01033
2050.48680 -0.01071
2048.43836 -0.00933
2046.38992 -0.00836
2044.34148 -0.00842
2042.29304 -0.00799
2040.24460 -0.00742
2038.19617 -0.00752
2036.14773 -0.00779
2034.09929 -0.00783
2032.05085 -0.00758
2030.00241 -0.00776
2027.95397 -0.00823
2025.90554 -0.00839
2023.85710 -0.00865
2021.80866 -0.00851
2019.76022 -0.00818
2017.71178 -0.00833
2015.66334 -0.00798
2013.61491 -0.00750
2011.56647 -0.00778
2009.51803 -0.00815
2007.46959 -0.00804
2005.42115 -0.00765
2003.37271 -0.00780
2001.32428 -0.00864
1999.27584 -0.00886
1997.22740 -0.00805
1995.17896 -0.00750
1993.13052 -0.00774
1991.08208 -0.00761
1989.03365 -0.00721
1986.98521 -0.00781
1984.93677 -0.00884
1982.88833 -0.00954
1980.83989 -0.00959
1978.79145 -0.00885
1976.74302 -0.00822
1974.69458 -0.00840
1972.64614 -0.00868
1970.59770 -0.00882
1968.54926 -0.00919
1966.50082 -0.00934
1964.45239 -0.00910
1962.40395 -0.00907
1960.35551 -0.00911
1958.30707 -0.00901
1956.25863 -0.00868
1954.21019 -0.00794
1952.16176 -0.00714
1950.11332 -0.00727
1948.06488 -0.00872
1946.01644 -0.00974
1943.96800 -0.00960
1941.91956 -0.00857
1939.87112 -0.00615
1937.82269 -0.00501
1935.77425 -0.00593
1933.72581 -0.00632
1931.67737 -0.00661
1929.62893 -0.00819
1927.58049 -0.00900
1925.53206 -0.00787
1923.48362 -0.00675
1921.43518 -0.00683
1919.38674 -0.00705
1917.33830 -0.00761
1915.28986 -0.00880
1913.24143 -0.00920
1911.19299 -0.00875
1909.14455 -0.00842
1907.09611 -0.00797
1905.04767 -0.00748
1902.99923 -0.00816
1900.95080 -0.00968
1898.90236 -0.01073
1896.85392 -0.01074
1894.80548 -0.00938
1892.75704 -0.00797
1890.70860 -0.00793
1888.66017 -0.00878
1886.61173 -0.00935
1884.56329 -0.00970
1882.51485 -0.00978
1880.46641 -0.00937
1878.41797 -0.00913
1876.36954 -0.00888
1874.32110 -0.00852
1872.27266 -0.00817
1870.22422 -0.00829
1868.17578 -0.00839
1866.12734 -0.00716
1864.07891 -0.00637
1862.03047 -0.00612
1859.98203 -0.00573
1857.93359 -0.00621
1855.88515 -0.00721
1853.83671 -0.00742
1851.78828 -0.00709
1849.73984 -0.00673
1847.69140 -0.00607
1845.64296 -0.00430
1843.59452 -0.00306
1841.54608 -0.00443
1839.49765 -0.00554
1837.44921 -0.00563
1835.40077 -0.00594
1833.35233 -0.00669
1831.30389 -0.00730
1829.25545 -0.00714
1827.20702 -0.00579
1825.15858 -0.00349
1823.11014 -0.00261
1821.06170 -0.00448
1819.01326 -0.00703
1816.96482 -0.00850
1814.91639 -0.00899
1812.86795 -0.00829
1810.81951 -0.00621
1808.77107 -0.00464
1806.72263 -0.00453
1804.67419 -0.00528
1802.62575 -0.00606
1800.57732 -0.00638
1798.52888 -0.00672
1796.48044 -0.00637
1794.43200 -0.00555
1792.38356 -0.00585
1790.33512 -0.00723
1788.28669 -0.00809
1786.23825 -0.00723
1784.18981 -0.00559
1782.14137 -0.00510
1780.09293 -0.00528
1778.04449 -0.00680
1775.99606 -0.00939
1773.94762 -0.00978
1771.89918 -0.00662
1769.85074 -0.00491
1767.80230 -0.00612
1765.75386 -0.00810
1763.70543 -0.00989
1761.65699 -0.01129
1759.60855 -0.01100
1757.56011 -0.00860
1755.51167 -0.00647
1753.46323 -0.00580
1751.41480 -0.00485
1749.36636 -0.00495
1747.31792 -0.00759
1745.26948 -0.00929
1743.22104 -0.00927
1741.17260 -0.00885
1739.12417 -0.00869
1737.07573 -0.00836
1735.02729 -0.00803
1732.97885 -0.00804
1730.93041 -0.00723
1728.88197 -0.00681
1726.83354 -0.00723
1724.78510 -0.00712
1722.73666 -0.00624
1720.68822 -0.00548
1718.63978 -0.00473
1716.59134 -0.00383
1714.54291 -0.00320
1712.49447 -0.00273
1710.44603 -0.00388
1708.39759 -0.00642
1706.34915 -0.00727
1704.30071 -0.00620
1702.25228 -0.00658
1700.20384 -0.00885
1698.15540 -0.01020
1696.10696 -0.00793
1694.05852 -0.00616
1692.01008 -0.00687
1689.96165 -0.00768
1687.91321 -0.00853
1685.86477 -0.01157
1683.81633 -0.01367
1681.76789 -0.01004
1679.71945 -0.00719
1677.67102 -0.00606
1675.62258 -0.00725
1673.57414 -0.01025
1671.52570 -0.01178
1669.47726 -0.01066
1667.42882 -0.00819
1665.38038 -0.00670
1663.33195 -0.00566
1661.28351 -0.00542
1659.23507 -0.00650
1657.18663 -0.00781
1655.13819 -0.01025
1653.08975 -0.01511
1651.04132 -0.01465
1648.99288 -0.01301
1646.94444 -0.01315
1644.89600 -0.01182
1642.84756 -0.00966
1640.79912 -0.00896
1638.75069 -0.00980
1636.70225 -0.01049
1634.65381 -0.00891
1632.60537 -0.00781
1630.55693 -0.00776
1628.50849 -0.00733
1626.46006 -0.00688
1624.41162 -0.00683
1622.36318 -0.00576
1620.31474 -0.00606
1618.26630 -0.00841
1616.21786 -0.00937
1614.16943 -0.00827
1612.12099 -0.00661
1610.07255 -0.00481
1608.02411 -0.00508
1605.97567 -0.00722
1603.92723 -0.00862
1601.87880 -0.00836
1599.83036 -0.00777
1597.78192 -0.00772
1595.73348 -0.00754
1593.68504 -0.00690
1591.63660 -0.00645
1589.58817 -0.00697
1587.53973 -0.00750
1585.49129 -0.00670
1583.44285 -0.00572
1581.39441 -0.00612
1579.34597 -0.00807
1577.29754 -0.01090
1575.24910 -0.01114
1573.20066 -0.00883
1571.15222 -0.00649
1569.10378 -0.00402
1567.05534 -0.00332
1565.00691 -0.00537
1562.95847 -0.00930
1560.91003 -0.01383
1558.86159 -0.01584
1556.81315 -0.01148
1554.76471 -0.00946
1552.71628 -0.00846
1550.66784 -0.00760
1548.61940 -0.00781
1546.57096 -0.00880
1544.52252 -0.00932
1542.47408 -0.00998
1540.42565 -0.01038
1538.37721 -0.00750
1536.32877 -0.00567
1534.28033 -0.00428
1532.23189 -0.00354
1530.18345 -0.00479
1528.13501 -0.00680
1526.08658 -0.00726
1524.03814 -0.00582
1521.98970 -0.00602
1519.94126 -0.00792
1517.89282 -0.00852
1515.84438 -0.00770
1513.79595 -0.00652
1511.74751 -0.00609
1509.69907 -0.00671
1507.65063 -0.00763
1505.60219 -0.00604
1503.55375 -0.00494
1501.50532 -0.00549
1499.45688 -0.00705
1497.40844 -0.00771
1495.36000 -0.00617
1493.31156 -0.00476
1491.26312 -0.00484
1489.21469 -0.00648
1487.16625 -0.00726
1485.11781 -0.00612
1483.06937 -0.00435
1481.02093 -0.00374
1478.97249 -0.00500
1476.92406 -0.00695
1474.87562 -0.00796
1472.82718 -0.00673
1470.77874 -0.00560
1468.73030 -0.00647
1466.68186 -0.00807
1464.63343 -0.00836
1462.58499 -0.00729
1460.53655 -0.00710
1458.48811 -0.00797
1456.43967 -0.00875
1454.39123 -0.00765
1452.34280 -0.00616
1450.29436 -0.00526
1448.24592 -0.00531
1446.19748 -0.00638
1444.14904 -0.00723
1442.10060 -0.00717
1440.05217 -0.00679
1438.00373 -0.00646
1435.95529 -0.00669
1433.90685 -0.00767
1431.85841 -0.00826
1429.80997 -0.00722
1427.76154 -0.00537
1425.71310 -0.00465
1423.66466 -0.00530
1421.61622 -0.00696
1419.56778 -0.00881
1417.51934 -0.00877
1415.47091 -0.00696
1413.42247 -0.00546
1411.37403 -0.00516
1409.32559 -0.00562
1407.27715 -0.00658
1405.22871 -0.00822
1403.18028 -0.00856
1401.13184 -0.00680
1399.08340 -0.00484
1397.03496 -0.00513
1394.98652 -0.00688
1392.93808 -0.00631
1390.88965 -0.00458
1388.84121 -0.00452
1386.79277 -0.00637
1384.74433 -0.00770
1382.69589 -0.00716
1380.64745 -0.00607
1378.59901 -0.00621
1376.55058 -0.00699
1374.50214 -0.00707
1372.45370 -0.00722
1370.40526 -0.00743
1368.35682 -0.00647
1366.30838 -0.00578
1364.25995 -0.00709
1362.21151 -0.00829
1360.16307 -0.00745
1358.11463 -0.00642
1356.06619 -0.00531
1354.01775 -0.00436
1351.96932 -0.00461
1349.92088 -0.00504
1347.87244 -0.00491
1345.82400 -0.00524
1343.77556 -0.00663
1341.72712 -0.00805
1339.67869 -0.00789
1337.63025 -0.00629
1335.58181 -0.00492
1333.53337 -0.00455
1331.48493 -0.00579
1329.43649 -0.00731
1327.38806 -0.00677
1325.33962 -0.00554
1323.29118 -0.00587
1321.24274 -0.00680
1319.19430 -0.00721
1317.14586 -0.00701
1315.09743 -0.00582
1313.04899 -0.00436
1311.00055 -0.00426
1308.95211 -0.00510
1306.90367 -0.00517
1304.85523 -0.00503
1302.80680 -0.00554
1300.75836 -0.00529
1298.70992 -0.00435
1296.66148 -0.00447
1294.61304 -0.00533
1292.56460 -0.00508
1290.51617 -0.00435
1288.46773 -0.00470
1286.41929 -0.00525
1284.37085 -0.00555
1282.32241 -0.00547
1280.27397 -0.00540
1278.22554 -0.00666
1276.17710 -0.00819
1274.12866 -0.00887
1272.08022 -0.00892
1270.03178 -0.00824
1267.98334 -0.00717
1265.93491 -0.00621
1263.88647 -0.00568
1261.83803 -0.00633
1259.78959 -0.00781
1257.74115 -0.00817
1255.69271 -0.00675
1253.64428 -0.00521
1251.59584 -0.00449
1249.54740 -0.00458
1247.49896 -0.00575
1245.45052 -0.00699
1243.40208 -0.00715
1241.35364 -0.00736
1239.30521 -0.00902
1237.25677 -0.01002
1235.20833 -0.00847
1233.15989 -0.00642
1231.11145 -0.00599
1229.06301 -0.00686
1227.01458 -0.00786
1224.96614 -0.00870
1222.91770 -0.00858
1220.86926 -0.00710
1218.82082 -0.00556
1216.77238 -0.00542
1214.72395 -0.00670
1212.67551 -0.00771
1210.62707 -0.00728
1208.57863 -0.00626
1206.53019 -0.00676
1204.48175 -0.00815
1202.43332 -0.00837
1200.38488 -0.00794
1198.33644 -0.00711
1196.28800 -0.00632
1194.23956 -0.00621
1192.19112 -0.00568
1190.14269 -0.00464
1188.09425 -0.00368
1186.04581 -0.00354
1183.99737 -0.00438
1181.94893 -0.00560
1179.90049 -0.00647
1177.85206 -0.00597
1175.80362 -0.00606
1173.75518 -0.00810
1171.70674 -0.00932
1169.65830 -0.00867
1167.60986 -0.00724
1165.56143 -0.00577
1163.51299 -0.00570
1161.46455 -0.00685
1159.41611 -0.00730
1157.36767 -0.00707
1155.31923 -0.00665
1153.27080 -0.00571
1151.22236 -0.00479
1149.17392 -0.00604
1147.12548 -0.00883
1145.07704 -0.00905
1143.02860 -0.00722
1140.98017 -0.00702
1138.93173 -0.00794
1136.88329 -0.00805
1134.83485 -0.00757
1132.78641 -0.00628
1130.73797 -0.00502
1128.68954 -0.00642
1126.64110 -0.00887
1124.59266 -0.00924
1122.54422 -0.00898
1120.49578 -0.00909
1118.44734 -0.00798
1116.39891 -0.00634
1114.35047 -0.00627
1112.30203 -0.00691
1110.25359 -0.00622
1108.20515 -0.00576
1106.15671 -0.00592
1104.10827 -0.00509
1102.05984 -0.00425
1100.01140 -0.00410
1097.96296 -0.00347
1095.91452 -0.00172
1093.86608 -0.00191
1091.81764 -0.00539
1089.76921 -0.00629
1087.72077 -0.00252
1085.67233 0.00003
1083.62389 -0.00159
1081.57545 -0.00513
1079.52701 -0.00809
1077.47858 -0.00857
1075.43014 -0.00635
1073.38170 -0.00401
1071.33326 -0.00365
1069.28482 -0.00444
1067.23638 -0.00496
1065.18795 -0.00520
1063.13951 -0.00612
1061.09107 -0.00684
1059.04263 -0.00584
1056.99419 -0.00490
1054.94575 -0.00553
1052.89732 -0.00702
1050.84888 -0.00728
1048.80044 -0.00504
1046.75200 -0.00468
1044.70356 -0.00965
1042.65512 -0.01484
1040.60669 -0.01625
1038.55825 -0.01465
1036.50981 -0.01136
1034.46137 -0.00854
1032.41293 -0.00702
1030.36449 -0.00713
1028.31606 -0.00938
1026.26762 -0.01070
1024.21918 -0.00812
1022.17074 -0.00627
1020.12230 -0.00862
1018.07386 -0.01073
1016.02543 -0.00966
1013.97699 -0.00825
1011.92855 -0.00800
1009.88011 -0.00675
1007.83167 -0.00484
1005.78323 -0.00309
1003.73480 -0.00197
1001.68636 -0.00238
999.63792 -0.00349
997.58948 -0.00489
995.54104 -0.00569
993.49260 -0.00623
991.44417 -0.00765
989.39573 -0.00841
987.34729 -0.00641
985.29885 -0.00283
983.25041 -0.00334
981.20197 -0.00786
979.15354 -0.00877
977.10510 -0.00576
975.05666 -0.00311
973.00822 -0.00095
970.95978 0.00018
968.91134 0.00108
966.86290 0.00185
964.81447 -0.00065
962.76603 -0.00439
960.71759 -0.00674
958.66915 -0.00709
956.62071 -0.00489
954.57227 -0.00372
952.52384 -0.00373
950.47540 -0.00245
948.42696 -0.00105
946.37852 -0.00022
944.33008 -0.00209
942.28164 -0.00691
940.23321 -0.00931
938.18477 -0.00923
936.13633 -0.01064
934.08789 -0.01075
932.03945 -0.00650
929.99101 -0.00236
927.94258 -0.00305
925.89414 -0.00562
923.84570 -0.00580
921.79726 -0.00462
919.74882 -0.00307
917.70038 -0.00078
915.65195 0.00061
913.60351 0.00085
911.55507 0.00030
909.50663 -0.00158
907.45819 -0.00286
905.40975 -0.00248
903.36132 -0.00061
901.31288 0.00138
899.26444 -0.00006
897.21600 -0.00427
895.16756 -0.00749
893.11912 -0.00647
891.07069 -0.00168
889.02225 0.00138
886.97381 0.00066
884.92537 -0.00145
882.87693 -0.00289
880.82849 -0.00293
878.78006 -0.00279
876.73162 -0.00323
874.68318 -0.00295
872.63474 -0.00113
870.58630 0.00077
868.53786 0.00191
866.48943 0.00236
864.44099 0.00113
862.39255 -0.00294
860.34411 -0.00733
858.29567 -0.00726
856.24723 -0.00453
854.19880 -0.00217
852.15036 -0.00079
850.10192 -0.00067
848.05348 0.00004
846.00504 0.00095
843.95660 0.00246
841.90817 0.00431
839.85973 0.00302
837.81129 0.00006
835.76285 -0.00029
833.71441 0.00170
831.66597 0.00308
829.61753 0.00263
827.56910 0.00108
825.52066 0.00015
823.47222 0.00015
821.42378 -0.00064
819.37534 -0.00220
817.32690 -0.00269
815.27847 -0.00177
813.23003 -0.00149
811.18159 -0.00205
809.13315 -0.00019
807.08471 0.00227
805.03627 0.00150
802.98784 0.00055
800.93940 0.00086
798.89096 -0.00115
796.84252 -0.00528
794.79408 -0.00715
792.74564 -0.00518
790.69721 -0.00153
788.64877 0.00133
786.60033 0.00189
784.55189 0.00117
782.50345 0.00122
780.45501 0.00137
778.40658 0.00091
776.35814 0.00092
774.30970 0.00063
772.26126 -0.00099
770.21282 -0.00337
768.16438 -0.00595
766.11595 -0.00639
764.06751 -0.00303
762.01907 0.00247
759.97063 0.00521
757.92219 0.00213
755.87375 -0.00266
753.82532 -0.00502
751.77688 -0.00379
749.72844 -0.00208
747.68000 -0.00241
745.63156 -0.00155
743.58312 -0.00093
741.53469 -0.00296
739.48625 -0.00602
737.43781 -0.00709
735.38937 -0.00326
733.34093 0.00179
731.29249 0.00269
729.24406 -0.00164
727.19562 -0.01122
725.14718 -0.02006
723.09874 -0.01454
721.05030 0.00286
719.00186 0.01098
716.95343 0.00629
714.90499 0.00139
712.85655 -0.00013
710.80811 0.00117
708.75967 0.00308
706.71123 -0.00172
704.66280 -0.00867
702.61436 -0.00824
700.56592 -0.00799
698.51748 -0.01103
696.46904 -0.00687
694.42060 -0.00005
692.37216 -0.00371
690.32373 -0.01709
688.27529 -0.02761
686.22685 -0.01524
684.17841 0.00648
682.12997 -0.00325
680.08153 -0.02831
678.03310 -0.03130
675.98466 -0.02184
673.93622 -0.01894
671.88778 -0.01386
669.83934 0.01176
667.79090 0.04188
665.74247 0.02860
663.69403 0.01413
661.64559 0.01748
659.59715 0.02368
657.54871 0.02441
655.50027 0.03052
653.45184 0.02955
651.40340 0.00775
649.35496 -0.02166
647.30652 -0.04077
645.25808 -0.03522
643.20964 -0.01342
641.16121 -0.00205
639.11277 -0.00576
637.06433 -0.00457
635.01589 0.00909
632.96745 0.02048
630.91901 0.00490
628.87058 -0.04369
626.82214 -0.07793
624.77370 -0.06970
622.72526 -0.06026
620.67682 -0.07432
618.62838 -0.07214
616.57995 -0.00777
614.53151 0.05788
612.48307 0.05535
610.43463 0.02216
608.38619 -0.00235
606.33775 -0.00073
604.28932 0.01813
602.24088 -0.00075
600.19244 -0.03305
598.14400 -0.03383
