3996.50324 -0.30759
3994.45480 -0.30638
3992.40636 -0.30601
3990.35792 -0.30585
3988.30948 -0.30587
3986.26104 -0.30675
3984.21261 -0.30799
3982.16417 -0.30856
3980.11573 -0.30801
3978.06729 -0.30700
3976.01885 -0.30686
3973.97041 -0.30751
3971.92198 -0.30753
3969.87354 -0.30748
3967.82510 -0.30804
3965.77666 -0.30798
3963.72822 -0.30704
3961.67978 -0.30618
3959.63135 -0.30568
3957.58291 -0.30562
3955.53447 -0.30652
3953.48603 -0.30782
3951.43759 -0.30825
3949.38915 -0.30702
3947.34072 -0.30554
3945.29228 -0.30473
3943.24384 -0.30333
3941.19540 -0.30258
3939.14696 -0.30370
3937.09852 -0.30528
3935.05009 -0.30571
3933.00165 -0.30426
3930.95321 -0.30215
3928.90477 -0.30165
3926.85633 -0.30132
3924.80789 -0.29966
3922.75946 -0.29950
3920.71102 -0.30047
3918.66258 -0.29969
3916.61414 -0.29929
3914.56570 -0.30057
3912.51726 -0.30061
3910.46883 -0.29990
3908.42039 -0.29947
3906.37195 -0.29719
3904.32351 -0.29306
3902.27507 -0.29189
3900.22663 -0.29370
3898.17820 -0.29560
3896.12976 -0.29695
3894.08132 -0.29658
3892.03288 -0.29552
3889.98444 -0.29750
3887.93600 -0.29945
3885.88756 -0.29796
3883.83913 -0.29642
3881.79069 -0.29633
3879.74225 -0.29686
3877.69381 -0.29883
3875.64537 -0.29951
3873.59693 -0.29926
3871.54850 -0.29891
3869.50006 -0.29733
3867.45162 -0.29739
3865.40318 -0.29758
3863.35474 -0.29589
3861.30630 -0.29553
3859.25787 -0.29746
3857.20943 -0.29957
3855.16099 -0.29851
3853.11255 -0.29513
3851.06411 -0.29894
3849.01567 -0.30282
3846.96724 -0.30469
3844.91880 -0.30539
3842.87036 -0.30506
3840.82192 -0.30443
3838.77348 -0.30409
3836.72504 -0.30480
3834.67661 -0.30549
3832.62817 -0.30653
3830.57973 -0.30850
3828.53129 -0.30931
3826.48285 -0.30870
3824.43441 -0.30817
3822.38598 -0.30653
3820.33754 -0.30537
3818.28910 -0.30584
3816.24066 -0.30553
3814.19222 -0.30845
3812.14378 -0.31178
3810.09535 -0.31236
3808.04691 -0.31070
3805.99847 -0.30928
3803.95003 -0.30859
3801.90159 -0.30746
3799.85315 -0.31036
3797.80472 -0.31377
3795.75628 -0.31514
3793.70784 -0.31633
3791.65940 -0.31735
3789.61096 -0.31845
3787.56252 -0.31927
3785.51409 -0.31906
3783.46565 -0.31919
3781.41721 -0.31947
3779.36877 -0.31960
3777.32033 -0.32097
3775.27189 -0.32200
3773.22346 -0.32193
3771.17502 -0.32098
3769.12658 -0.32085
3767.07814 -0.32277
3765.02970 -0.32433
3762.98126 -0.32541
3760.93283 -0.32582
3758.88439 -0.32487
3756.83595 -0.32452
3754.78751 -0.32519
3752.73907 -0.32502
3750.69063 -0.32302
3748.64219 -0.32337
3746.59376 -0.32514
3744.54532 -0.32498
3742.49688 -0.32519
3740.44844 -0.32730
3738.40000 -0.32866
3736.35156 -0.32631
3734.30313 -0.32356
3732.25469 -0.32820
3730.20625 -0.33448
3728.15781 -0.33748
3726.10937 -0.33741
3724.06093 -0.33748
3722.01250 -0.33840
3719.96406 -0.33875
3717.91562 -0.33915
3715.86718 -0.34042
3713.81874 -0.34121
3711.77030 -0.33944
3709.72187 -0.34118
3707.67343 -0.34667
3705.62499 -0.34997
3703.57655 -0.35019
3701.52811 -0.34929
3699.47967 -0.35056
3697.43124 -0.35265
3695.38280 -0.35462
3693.33436 -0.35601
3691.28592 -0.35456
3689.23748 -0.35162
3687.18904 -0.35394
3685.14061 -0.35793
3683.09217 -0.36097
3681.04373 -0.36323
3678.99529 -0.36511
3676.94685 -0.36501
3674.89841 -0.36254
3672.84998 -0.36541
3670.80154 -0.36913
3668.75310 -0.37154
3666.70466 -0.37489
3664.65622 -0.37854
3662.60778 -0.38203
3660.55935 -0.38483
3658.51091 -0.38640
3656.46247 -0.38648
3654.41403 -0.38806
3652.36559 -0.39055
3650.31715 -0.38958
3648.26872 -0.38956
3646.22028 -0.39631
3644.17184 -0.40275
3642.12340 -0.40797
3640.07496 -0.41161
3638.02652 -0.41328
3635.97809 -0.41473
3633.92965 -0.41738
3631.88121 -0.41897
3629.83277 -0.41665
3627.78433 -0.41682
3625.73589 -0.42439
3623.68746 -0.43057
3621.63902 -0.43268
3619.59058 -0.43228
3617.54214 -0.43392
3615.49370 -0.43906
3613.44526 -0.44533
3611.39682 -0.45010
3609.34839 -0.45214
3607.29995 -0.45339
3605.25151 -0.45678
3603.20307 -0.46079
3601.15463 -0.46379
3599.10619 -0.46648
3597.05776 -0.46904
3595.00932 -0.47063
3592.96088 -0.47228
3590.91244 -0.47505
3588.86400 -0.47702
3586.81556 -0.47806
3584.76713 -0.48286
3582.71869 -0.48915
3580.67025 -0.49441
3578.62181 -0.49942
3576.57337 -0.50402
3574.52493 -0.50639
3572.47650 -0.50674
3570.42806 -0.50747
3568.37962 -0.50827
3566.33118 -0.50918
3564.28274 -0.51233
3562.23430 -0.51535
3560.18587 -0.51720
3558.13743 -0.51996
3556.08899 -0.52374
3554.04055 -0.52560
3551.99211 -0.52550
3549.94367 -0.52610
3547.89524 -0.52663
3545.84680 -0.52688
3543.79836 -0.53004
3541.74992 -0.53391
3539.70148 -0.53538
3537.65304 -0.53546
3535.60461 -0.53592
3533.55617 -0.53829
3531.50773 -0.54129
3529.45929 -0.54188
3527.41085 -0.54187
3525.36241 -0.54378
3523.31398 -0.54471
3521.26554 -0.54663
3519.21710 -0.55153
3517.16866 -0.55488
3515.12022 -0.55547
3513.07178 -0.55621
3511.02335 -0.55722
3508.97491 -0.55817
3506.92647 -0.56089
3504.87803 -0.56384
3502.82959 -0.56495
3500.78115 -0.56591
3498.73272 -0.56633
3496.68428 -0.56443
3494.63584 -0.56215
3492.58740 -0.56192
3490.53896 -0.56220
3488.49052 -0.56239
3486.44209 -0.56412
3484.39365 -0.56548
3482.34521 -0.56485
3480.29677 -0.56417
3478.24833 -0.56468
3476.19989 -0.56730
3474.15146 -0.57245
3472.10302 -0.57687
3470.05458 -0.57729
3468.00614 -0.57367
3465.95770 -0.56890
3463.90926 -0.56794
3461.86082 -0.57153
3459.81239 -0.57351
3457.76395 -0.57242
3455.71551 -0.57222
3453.66707 -0.57229
3451.61863 -0.57254
3449.57019 -0.57414
3447.52176 -0.57538
3445.47332 -0.57500
3443.42488 -0.57364
3441.37644 -0.57267
3439.32800 -0.57203
3437.27956 -0.57163
3435.23113 -0.57330
3433.18269 -0.57688
3431.13425 -0.57893
3429.08581 -0.57925
3427.03737 -0.58005
3424.98893 -0.58066
3422.94050 -0.57989
3420.89206 -0.57798
3418.84362 -0.57775
3416.79518 -0.57939
3414.74674 -0.58016
3412.69830 -0.58120
3410.64987 -0.58348
3408.60143 -0.58423
3406.55299 -0.58246
3404.50455 -0.58086
3402.45611 -0.58057
3400.40767 -0.58036
3398.35924 -0.58088
3396.31080 -0.58337
3394.26236 -0.58635
3392.21392 -0.58789
3390.16548 -0.58839
3388.11704 -0.58783
3386.06861 -0.58636
3384.02017 -0.58666
3381.97173 -0.58788
3379.92329 -0.58708
3377.87485 -0.58581
3375.82641 -0.58588
3373.77798 -0.58685
3371.72954 -0.58836
3369.68110 -0.58913
3367.63266 -0.58859
3365.58422 -0.58925
3363.53578 -0.59083
3361.48735 -0.59112
3359.43891 -0.59078
3357.39047 -0.59021
3355.34203 -0.58917
3353.29359 -0.58907
3351.24515 -0.59002
3349.19672 -0.58979
3347.14828 -0.58953
3345.09984 -0.59063
3343.05140 -0.59153
3341.00296 -0.59286
3338.95452 -0.59464
3336.90609 -0.59487
3334.85765 -0.59329
3332.80921 -0.59144
3330.76077 -0.59091
3328.71233 -0.59264
3326.66389 -0.59607
3324.61545 -0.59823
3322.56702 -0.59797
3320.51858 -0.59720
3318.47014 -0.59621
3316.42170 -0.59547
3314.37326 -0.59718
3312.32482 -0.59958
3310.27639 -0.59907
3308.22795 -0.59751
3306.17951 -0.59716
3304.13107 -0.59645
3302.08263 -0.59537
3300.03419 -0.59650
3297.98576 -0.59996
3295.93732 -0.60184
3293.88888 -0.60074
3291.84044 -0.60034
3289.79200 -0.60102
3287.74356 -0.60023
3285.69513 -0.59963
3283.64669 -0.59917
3281.59825 -0.59744
3279.54981 -0.59772
3277.50137 -0.59993
3275.45293 -0.60018
3273.40450 -0.59932
3271.35606 -0.60025
3269.30762 -0.60194
3267.25918 -0.60196
3265.21074 -0.60119
3263.16230 -0.60120
3261.11387 -0.60085
3259.06543 -0.59949
3257.01699 -0.59806
3254.96855 -0.59818
3252.92011 -0.60053
3250.87167 -0.60226
3248.82324 -0.60186
3246.77480 -0.60073
3244.72636 -0.59966
3242.67792 -0.59936
3240.62948 -0.59905
3238.58104 -0.59760
3236.53261 -0.59653
3234.48417 -0.59684
3232.43573 -0.59764
3230.38729 -0.59861
3228.33885 -0.59893
3226.29041 -0.59756
3224.24198 -0.59556
3222.19354 -0.59481
3220.14510 -0.59547
3218.09666 -0.59512
3216.04822 -0.59308
3213.99978 -0.59228
3211.95135 -0.59405
3209.90291 -0.59632
3207.85447 -0.59684
3205.80603 -0.59527
3203.75759 -0.59292
3201.70915 -0.59137
3199.66072 -0.59083
3197.61228 -0.59062
3195.56384 -0.58950
3193.51540 -0.58705
3191.46696 -0.58587
3189.41852 -0.58721
3187.37008 -0.58822
3185.32165 -0.58810
3183.27321 -0.58841
3181.22477 -0.58827
3179.17633 -0.58615
3177.12789 -0.58381
3175.07945 -0.58360
3173.03102 -0.58465
3170.98258 -0.58544
3168.93414 -0.58521
3166.88570 -0.58340
3164.83726 -0.58100
3162.78882 -0.57856
3160.74039 -0.57605
3158.69195 -0.57519
3156.64351 -0.57588
3154.59507 -0.57598
3152.54663 -0.57444
3150.49819 -0.57165
3148.44976 -0.57023
3146.40132 -0.57099
3144.35288 -0.57117
3142.30444 -0.56962
3140.25600 -0.56810
3138.20756 -0.56663
3136.15913 -0.56465
3134.11069 -0.56324
3132.06225 -0.56284
3130.01381 -0.56294
3127.96537 -0.56212
3125.91693 -0.56054
3123.86850 -0.55896
3121.82006 -0.55713
3119.77162 -0.55537
3117.72318 -0.55406
3115.67474 -0.55368
3113.62630 -0.55376
3111.57787 -0.55361
3109.52943 -0.55327
3107.48099 -0.55203
3105.43255 -0.54993
3103.38411 -0.54881
3101.33567 -0.54902
3099.28724 -0.54923
3097.23880 -0.54853
3095.19036 -0.54779
3093.14192 -0.54759
3091.09348 -0.54662
3089.04504 -0.54554
3086.99661 -0.54530
3084.94817 -0.54500
3082.89973 -0.54376
3080.85129 -0.54253
3078.80285 -0.54290
3076.75441 -0.54350
3074.70598 -0.54241
3072.65754 -0.54055
3070.60910 -0.53995
3068.56066 -0.54065
3066.51222 -0.54089
3064.46378 -0.53939
3062.41535 -0.53711
3060.36691 -0.53550
3058.31847 -0.53469
3056.27003 -0.53387
3054.22159 -0.53250
3052.17315 -0.53178
3050.12471 -0.53266
3048.07628 -0.53397
3046.02784 -0.53386
3043.97940 -0.53258
3041.93096 -0.53179
3039.88252 -0.53138
3037.83408 -0.53015
3035.78565 -0.52902
3033.73721 -0.52888
3031.68877 -0.52863
3029.64033 -0.52812
3027.59189 -0.52842
3025.54345 -0.52870
3023.49502 -0.52728
3021.44658 -0.52574
3019.39814 -0.52578
3017.34970 -0.52589
3015.30126 -0.52445
3013.25282 -0.52160
3011.20439 -0.51938
3009.15595 -0.51848
3007.10751 -0.51644
3005.05907 -0.51380
3003.01063 -0.51346
3000.96219 -0.51486
2998.91376 -0.51674
2996.86532 -0.51718
2994.81688 -0.51432
2992.76844 -0.51028
2990.72000 -0.50712
2988.67156 -0.50547
2986.62313 -0.50522
2984.57469 -0.50458
2982.52625 -0.50263
2980.47781 -0.49964
2978.42937 -0.49616
2976.38093 -0.49221
2974.33250 -0.48681
2972.28406 -0.48064
2970.23562 -0.47532
2968.18718 -0.47069
2966.13874 -0.46617
2964.09030 -0.46151
2962.04187 -0.45803
2959.99343 -0.45799
2957.94499 -0.46025
2955.89655 -0.46224
2953.84811 -0.46457
2951.79967 -0.46866
2949.75124 -0.47352
2947.70280 -0.47631
2945.65436 -0.47608
2943.60592 -0.47532
2941.55748 -0.47555
2939.50904 -0.47609
2937.46061 -0.47606
2935.41217 -0.47503
2933.36373 -0.47383
2931.31529 -0.47361
2929.26685 -0.47474
2927.21841 -0.47696
2925.16998 -0.48037
2923.12154 -0.48379
2921.07310 -0.48472
2919.02466 -0.48435
2916.97622 -0.48494
2914.92778 -0.48645
2912.87934 -0.48832
2910.83091 -0.49005
2908.78247 -0.49172
2906.73403 -0.49270
2904.68559 -0.49298
2902.63715 -0.49325
2900.58871 -0.49262
2898.54028 -0.49166
2896.49184 -0.49199
2894.44340 -0.49206
2892.39496 -0.49053
2890.34652 -0.48973
2888.29808 -0.49092
2886.24965 -0.49167
2884.20121 -0.49083
2882.15277 -0.48952
2880.10433 -0.48749
2878.05589 -0.48471
2876.00745 -0.48290
2873.95902 -0.48291
2871.91058 -0.48430
2869.86214 -0.48680
2867.81370 -0.48959
2865.76526 -0.49127
2863.71682 -0.49258
2861.66839 -0.49427
2859.61995 -0.49527
2857.57151 -0.49588
2855.52307 -0.49685
2853.47463 -0.49728
2851.42619 -0.49697
2849.37776 -0.49631
2847.32932 -0.49542
2845.28088 -0.49500
2843.23244 -0.49572
2841.18400 -0.49712
2839.13556 -0.49753
2837.08713 -0.49655
2835.03869 -0.49551
2832.99025 -0.49522
2830.94181 -0.49515
2828.89337 -0.49456
2826.84493 -0.49374
2824.79650 -0.49333
2822.74806 -0.49372
2820.69962 -0.49413
2818.65118 -0.49323
2816.60274 -0.49148
2814.55430 -0.49048
2812.50587 -0.49031
2810.45743 -0.49032
2808.40899 -0.49051
2806.36055 -0.49069
2804.31211 -0.49009
2802.26367 -0.48878
2800.21524 -0.48774
2798.16680 -0.48733
2796.11836 -0.48725
2794.06992 -0.48715
2792.02148 -0.48689
2789.97304 -0.48673
2787.92461 -0.48745
2785.87617 -0.48855
2783.82773 -0.48871
2781.77929 -0.48794
2779.73085 -0.48617
2777.68241 -0.48340
2775.63397 -0.48125
2773.58554 -0.48119
2771.53710 -0.48266
2769.48866 -0.48426
2767.44022 -0.48462
2765.39178 -0.48395
2763.34334 -0.48357
2761.29491 -0.48298
2759.24647 -0.48219
2757.19803 -0.48167
2755.14959 -0.48089
2753.10115 -0.48048
2751.05271 -0.48087
2749.00428 -0.48118
2746.95584 -0.48136
2744.90740 -0.48137
2742.85896 -0.48067
2740.81052 -0.47990
2738.76208 -0.47971
2736.71365 -0.47945
2734.66521 -0.47873
2732.61677 -0.47837
2730.56833 -0.47864
2728.51989 -0.47859
2726.47145 -0.47865
2724.42302 -0.47912
2722.37458 -0.47903
2720.32614 -0.47900
2718.27770 -0.47922
2716.22926 -0.47894
2714.18082 -0.47847
2712.13239 -0.47795
2710.08395 -0.47688
2708.03551 -0.47593
2705.98707 -0.47641
2703.93863 -0.47728
2701.89019 -0.47754
2699.84176 -0.47746
2697.79332 -0.47675
2695.74488 -0.47579
2693.69644 -0.47485
2691.64800 -0.47379
2689.59956 -0.47328
2687.55113 -0.47361
2685.50269 -0.47415
2683.45425 -0.47409
2681.40581 -0.47279
2679.35737 -0.47131
2677.30893 -0.47120
2675.26050 -0.47174
2673.21206 -0.47173
2671.16362 -0.47106
2669.11518 -0.46971
2667.06674 -0.46850
2665.01830 -0.46789
2662.96987 -0.46730
2660.92143 -0.46737
2658.87299 -0.46812
2656.82455 -0.46758
2654.77611 -0.46546
2652.72767 -0.46384
2650.67924 -0.46440
2648.63080 -0.46550
2646.58236 -0.46421
2644.53392 -0.46173
2642.48548 -0.46081
2640.43704 -0.46120
2638.38860 -0.46081
2636.34017 -0.45909
2634.29173 -0.45763
2632.24329 -0.45732
2630.19485 -0.45754
2628.14641 -0.45726
2626.09797 -0.45570
2624.04954 -0.45368
2622.00110 -0.45274
2619.95266 -0.45261
2617.90422 -0.45209
2615.85578 -0.45175
2613.80734 -0.45208
2611.75891 -0.45212
2609.71047 -0.45120
2607.66203 -0.44955
2605.61359 -0.44839
2603.56515 -0.44793
2601.51671 -0.44748
2599.46828 -0.44694
2597.41984 -0.44594
2595.37140 -0.44507
2593.32296 -0.44510
2591.27452 -0.44445
2589.22608 -0.44244
2587.17765 -0.44049
2585.12921 -0.43934
2583.08077 -0.43909
2581.03233 -0.43913
2578.98389 -0.43874
2576.93545 -0.43771
2574.88702 -0.43628
2572.83858 -0.43513
2570.79014 -0.43423
2568.74170 -0.43355
2566.69326 -0.43340
2564.64482 -0.43385
2562.59639 -0.43431
2560.54795 -0.43443
2558.49951 -0.43422
2556.45107 -0.43324
2554.40263 -0.43221
2552.35419 -0.43222
2550.30576 -0.43227
2548.25732 -0.43116
2546.20888 -0.42964
2544.16044 -0.42895
2542.11200 -0.42923
2540.06356 -0.42970
2538.01513 -0.42987
2535.96669 -0.43020
2533.91825 -0.43103
2531.86981 -0.43168
2529.82137 -0.43153
2527.77293 -0.43082
2525.72450 -0.43028
2523.67606 -0.43026
2521.62762 -0.43039
2519.57918 -0.43031
2517.53074 -0.43023
2515.48230 -0.43050
2513.43387 -0.43115
2511.38543 -0.43169
2509.33699 -0.43191
2507.28855 -0.43206
2505.24011 -0.43232
2503.19167 -0.43277
2501.14324 -0.43242
2499.09480 -0.43057
2497.04636 -0.42950
2494.99792 -0.43059
2492.94948 -0.43185
2490.90104 -0.43261
2488.85260 -0.43389
2486.80417 -0.43516
2484.75573 -0.43530
2482.70729 -0.43473
2480.65885 -0.43461
2478.61041 -0.43515
2476.56197 -0.43587
2474.51354 -0.43600
2472.46510 -0.43522
2470.41666 -0.43458
2468.36822 -0.43430
2466.31978 -0.43346
2464.27134 -0.43207
2462.22291 -0.43038
2460.17447 -0.42907
2458.12603 -0.42949
2456.07759 -0.43126
2454.02915 -0.43205
2451.98071 -0.43072
2449.93228 -0.42885
2447.88384 -0.42776
2445.83540 -0.42642
2443.78696 -0.42472
2441.73852 -0.42474
2439.69008 -0.42585
2437.64165 -0.42555
2435.59321 -0.42414
2433.54477 -0.42287
2431.49633 -0.42201
2429.44789 -0.42115
2427.39945 -0.41971
2425.35102 -0.41811
2423.30258 -0.41698
2421.25414 -0.41625
2419.20570 -0.41562
2417.15726 -0.41538
2415.10882 -0.41524
2413.06039 -0.41387
2411.01195 -0.41187
2408.96351 -0.41132
2406.91507 -0.41163
2404.86663 -0.41050
2402.81819 -0.40797
2400.76976 -0.40613
2398.72132 -0.40626
2396.67288 -0.40762
2394.62444 -0.40825
2392.57600 -0.40728
2390.52756 -0.40610
2388.47913 -0.40569
2386.43069 -0.40551
2384.38225 -0.40515
2382.33381 -0.40424
2380.28537 -0.40295
2378.23693 -0.40293
2376.18850 -0.40531
2374.14006 -0.40824
2372.09162 -0.40895
2370.04318 -0.40756
2367.99474 -0.40402
2365.94630 -0.39855
2363.89787 -0.39884
2361.84943 -0.40580
2359.80099 -0.40905
2357.75255 -0.40294
2355.70411 -0.39496
2353.65567 -0.39437
2351.60723 -0.39689
2349.55880 -0.39906
2347.51036 -0.40078
2345.46192 -0.40059
2343.41348 -0.40077
2341.36504 -0.40362
2339.31660 -0.40269
2337.26817 -0.39857
2335.21973 -0.39640
2333.17129 -0.39626
2331.12285 -0.39669
2329.07441 -0.39639
2327.02597 -0.39539
2324.97754 -0.39412
2322.92910 -0.39352
2320.88066 -0.39387
2318.83222 -0.39444
2316.78378 -0.39442
2314.73534 -0.39326
2312.68691 -0.39204
2310.63847 -0.39087
2308.59003 -0.38978
2306.54159 -0.39017
2304.49315 -0.39149
2302.44471 -0.39221
2300.39628 -0.39209
2298.34784 -0.39201
2296.29940 -0.39250
2294.25096 -0.39308
2292.20252 -0.39321
2290.15408 -0.39319
2288.10565 -0.39354
2286.05721 -0.39383
2284.00877 -0.39364
2281.96033 -0.39376
2279.91189 -0.39416
2277.86345 -0.39391
2275.81502 -0.39334
2273.76658 -0.39346
2271.71814 -0.39430
2269.66970 -0.39453
2267.62126 -0.39363
2265.57282 -0.39313
2263.52439 -0.39348
2261.47595 -0.39351
2259.42751 -0.39334
2257.37907 -0.39365
2255.33063 -0.39404
2253.28219 -0.39376
2251.23376 -0.39318
2249.18532 -0.39271
2247.13688 -0.39193
2245.08844 -0.39127
2243.04000 -0.39108
2240.99156 -0.39113
2238.94313 -0.39126
2236.89469 -0.39151
2234.84625 -0.39164
2232.79781 -0.39121
2230.74937 -0.39098
2228.70093 -0.39137
2226.65250 -0.39168
2224.60406 -0.39197
2222.55562 -0.39214
2220.50718 -0.39178
2218.45874 -0.39127
2216.41030 -0.39069
2214.36186 -0.38966
2212.31343 -0.38893
2210.26499 -0.38941
2208.21655 -0.39050
2206.16811 -0.39135
2204.11967 -0.39220
2202.07123 -0.39312
2200.02280 -0.39330
2197.97436 -0.39294
2195.92592 -0.39299
2193.87748 -0.39321
2191.82904 -0.39319
2189.78060 -0.39300
2187.73217 -0.39310
2185.68373 -0.39380
2183.63529 -0.39413
2181.58685 -0.39421
2179.53841 -0.39496
2177.48997 -0.39547
2175.44154 -0.39517
2173.39310 -0.39519
2171.34466 -0.39622
2169.29622 -0.39781
2167.24778 -0.39839
2165.19934 -0.39731
2163.15091 -0.39657
2161.10247 -0.39762
2159.05403 -0.39961
2157.00559 -0.40117
2154.95715 -0.40185
2152.90871 -0.40299
2150.86028 -0.40460
2148.81184 -0.40475
2146.76340 -0.40430
2144.71496 -0.40456
2142.66652 -0.40469
2140.61808 -0.40476
2138.56965 -0.40558
2136.52121 -0.40709
2134.47277 -0.40848
2132.42433 -0.40879
2130.37589 -0.40807
2128.32745 -0.40756
2126.27902 -0.40793
2124.23058 -0.40815
2122.18214 -0.40817
2120.13370 -0.40902
2118.08526 -0.40950
2116.03682 -0.40855
2113.98839 -0.40753
2111.93995 -0.40704
2109.89151 -0.40709
2107.84307 -0.40786
2105.79463 -0.40840
2103.74619 -0.40766
2101.69776 -0.40597
2099.64932 -0.40475
2097.60088 -0.40467
2095.55244 -0.40479
2093.50400 -0.40423
2091.45556 -0.40357
2089.40713 -0.40323
2087.35869 -0.40260
2085.31025 -0.40233
2083.26181 -0.40285
2081.21337 -0.40257
2079.16493 -0.40153
2077.11649 -0.40146
2075.06806 -0.40184
2073.01962 -0.40125
2070.97118 -0.40033
2068.92274 -0.40017
2066.87430 -0.40041
2064.82586 -0.40010
2062.77743 -0.39900
2060.72899 -0.39760
2058.68055 -0.39670
2056.63211 -0.39676
2054.58367 -0.39753
2052.53523 -0.39916
2050.48680 -0.40044
2048.43836 -0.39966
2046.38992 -0.39828
2044.34148 -0.39783
2042.29304 -0.39739
2040.24460 -0.39709
2038.19617 -0.39785
2036.14773 -0.39857
2034.09929 -0.39856
2032.05085 -0.39856
2030.00241 -0.39852
2027.95397 -0.39797
2025.90554 -0.39799
2023.85710 -0.39946
2021.80866 -0.40063
2019.76022 -0.40068
2017.71178 -0.40064
2015.66334 -0.40093
2013.61491 -0.40187
2011.56647 -0.40295
2009.51803 -0.40335
2007.46959 -0.40339
2005.42115 -0.40361
2003.37271 -0.40420
2001.32428 -0.40525
1999.27584 -0.40615
1997.22740 -0.40620
1995.17896 -0.40601
1993.13052 -0.40633
1991.08208 -0.40681
1989.03365 -0.40728
1986.98521 -0.40842
1984.93677 -0.41003
1982.88833 -0.41106
1980.83989 -0.41120
1978.79145 -0.41133
1976.74302 -0.41241
1974.69458 -0.41374
1972.64614 -0.41434
1970.59770 -0.41490
1968.54926 -0.41555
1966.50082 -0.41562
1964.45239 -0.41590
1962.40395 -0.41670
1960.35551 -0.41716
1958.30707 -0.41710
1956.25863 -0.41680
1954.21019 -0.41667
1952.16176 -0.41657
1950.11332 -0.41605
1948.06488 -0.41584
1946.01644 -0.41587
1943.96800 -0.41516
1941.91956 -0.41344
1939.87112 -0.41149
1937.82269 -0.41071
1935.77425 -0.41059
1933.72581 -0.40962
1931.67737 -0.40825
1929.62893 -0.40715
1927.58049 -0.40540
1925.53206 -0.40265
1923.48362 -0.40019
1921.43518 -0.39927
1919.38674 -0.39869
1917.33830 -0.39812
1915.28986 -0.39817
1913.24143 -0.39700
1911.19299 -0.39470
1909.14455 -0.39351
1907.09611 -0.39340
1905.04767 -0.39304
1902.99923 -0.39241
1900.95080 -0.39153
1898.90236 -0.39011
1896.85392 -0.38831
1894.80548 -0.38597
1892.75704 -0.38390
1890.70860 -0.38273
1888.66017 -0.38227
1886.61173 -0.38265
1884.56329 -0.38303
1882.51485 -0.38243
1880.46641 -0.38166
1878.41797 -0.38189
1876.36954 -0.38249
1874.32110 -0.38265
1872.27266 -0.38193
1870.22422 -0.38009
1868.17578 -0.37886
1866.12734 -0.38036
1864.07891 -0.38271
1862.03047 -0.38425
1859.98203 -0.38516
1857.93359 -0.38668
1855.88515 -0.38940
1853.83671 -0.39230
1851.78828 -0.39405
1849.73984 -0.39462
1847.69140 -0.39521
1845.64296 -0.39534
1843.59452 -0.39542
1841.54608 -0.39776
1839.49765 -0.40059
1837.44921 -0.40266
1835.40077 -0.40429
1833.35233 -0.40542
1831.30389 -0.40539
1829.25545 -0.40509
1827.20702 -0.40555
1825.15858 -0.40569
1823.11014 -0.40711
1821.06170 -0.41086
1819.01326 -0.41445
1816.96482 -0.41614
1814.91639 -0.41695
1812.86795 -0.41741
1810.81951 -0.41688
1808.77107 -0.41648
1806.72263 -0.41677
1804.67419 -0.41707
1802.62575 -0.41701
1800.57732 -0.41670
1798.52888 -0.41728
1796.48044 -0.41716
1794.43200 -0.41493
1792.38356 -0.41247
1790.33512 -0.41273
1788.28669 -0.41357
1786.23825 -0.41188
1784.18981 -0.40855
1782.14137 -0.40607
1780.09293 -0.40442
1778.04449 -0.40365
1775.99606 -0.40308
1773.94762 -0.39966
1771.89918 -0.39234
1769.85074 -0.38731
1767.80230 -0.38554
1765.75386 -0.38427
1763.70543 -0.38168
1761.65699 -0.37657
1759.60855 -0.37134
1757.56011 -0.36621
1755.51167 -0.36020
1753.46323 -0.35393
1751.41480 -0.34490
1749.36636 -0.33341
1747.31792 -0.32355
1745.26948 -0.31315
1743.22104 -0.30007
1741.17260 -0.28264
1739.12417 -0.26081
1737.07573 -0.24315
1735.02729 -0.22514
1732.97885 -0.19853
1730.93041 -0.18249
1728.88197 -0.17486
1726.83354 -0.17022
1724.78510 -0.16792
1722.73666 -0.16831
1720.68822 -0.17033
1718.63978 -0.17141
1716.59134 -0.16930
1714.54291 -0.16634
1712.49447 -0.16396
1710.44603 -0.16076
1708.39759 -0.15525
1706.34915 -0.14346
1704.30071 -0.12837
1702.25228 -0.11594
1700.20384 -0.09671
1698.15540 -0.07385
1696.10696 -0.05378
1694.05852 -0.03240
1692.01008 -0.01480
1689.96165 0.00579
1687.91321 0.02626
1685.86477 0.04475
1683.81633 0.08385
1681.76789 0.12101
1679.71945 0.13945
1677.67102 0.15609
1675.62258 0.18119
1673.57414 0.21090
1671.52570 0.23470
1669.47726 0.26811
1667.42882 0.29834
1665.38038 0.31181
1663.33195 0.32866
1661.28351 0.35105
1659.23507 0.36364
1657.18663 0.36826
1655.13819 0.37288
1653.08975 0.39580
1651.04132 0.41351
1648.99288 0.41286
1646.94444 0.42066
1644.89600 0.43621
1642.84756 0.44053
1640.79912 0.44067
1638.75069 0.44211
1636.70225 0.45364
1634.65381 0.47399
1632.60537 0.47779
1630.55693 0.47711
1628.50849 0.48518
1626.46006 0.49927
1624.41162 0.51254
1622.36318 0.52917
1620.31474 0.53728
1618.26630 0.54285
1616.21786 0.56309
1614.16943 0.58031
1612.12099 0.59179
1610.07255 0.60892
1608.02411 0.62392
1605.97567 0.63043
1603.92723 0.63956
1601.87880 0.65760
1599.83036 0.67362
1597.78192 0.68095
1595.73348 0.68870
1593.68504 0.69839
1591.63660 0.70633
1589.58817 0.71394
1587.53973 0.72348
1585.49129 0.73462
1583.44285 0.74190
1581.39441 0.74077
1579.34597 0.73359
1577.29754 0.73875
1575.24910 0.76151
1573.20066 0.76384
1571.15222 0.75540
1569.10378 0.74510
1567.05534 0.73059
1565.00691 0.71919
1562.95847 0.70743
1560.91003 0.69111
1558.86159 0.68744
1556.81315 0.68793
1554.76471 0.66779
1552.71628 0.64752
1550.66784 0.63398
1548.61940 0.62165
1546.57096 0.60747
1544.52252 0.59587
1542.47408 0.58739
1540.42565 0.57519
1538.37721 0.56342
1536.32877 0.55409
1534.28033 0.54586
1532.23189 0.53733
1530.18345 0.52583
1528.13501 0.51522
1526.08658 0.50659
1524.03814 0.49583
1521.98970 0.48595
1519.94126 0.48420
1517.89282 0.48554
1515.84438 0.48586
1513.79595 0.48090
1511.74751 0.47262
1509.69907 0.46519
1507.65063 0.46558
1505.60219 0.47304
1503.55375 0.46590
1501.50532 0.45468
1499.45688 0.44405
1497.40844 0.43426
1495.36000 0.42505
1493.31156 0.41659
1491.26312 0.41098
1489.21469 0.41140
1487.16625 0.40730
1485.11781 0.39386
1483.06937 0.38054
1481.02093 0.37081
1478.97249 0.36317
1476.92406 0.35630
1474.87562 0.35127
1472.82718 0.34625
1470.77874 0.33441
1468.73030 0.31849
1466.68186 0.30143
1464.63343 0.28553
1462.58499 0.27323
1460.53655 0.26409
1458.48811 0.25596
1456.43967 0.23466
1454.39123 0.20855
1452.34280 0.19025
1450.29436 0.17418
1448.24592 0.15569
1446.19748 0.13352
1444.14904 0.11138
1442.10060 0.09032
1440.05217 0.07156
1438.00373 0.05347
1435.95529 0.03045
1433.90685 0.00956
1431.85841 -0.00705
1429.80997 -0.02367
1427.76154 -0.03990
1425.71310 -0.05543
1423.66466 -0.07100
1421.61622 -0.08384
1419.56778 -0.09703
1417.51934 -0.11410
1415.47091 -0.12670
1413.42247 -0.13636
1411.37403 -0.14716
1409.32559 -0.15860
1407.27715 -0.16835
1405.22871 -0.17740
1403.18028 -0.18596
1401.13184 -0.19252
1399.08340 -0.19745
1397.03496 -0.20231
1394.98652 -0.20959
1392.93808 -0.21780
1390.88965 -0.22433
1388.84121 -0.23091
1386.79277 -0.23981
1384.74433 -0.24866
1382.69589 -0.25563
1380.64745 -0.26202
1378.59901 -0.26854
1376.55058 -0.27386
1374.50214 -0.27861
1372.45370 -0.28432
1370.40526 -0.28882
1368.35682 -0.29200
1366.30838 -0.29579
1364.25995 -0.30081
1362.21151 -0.30635
1360.16307 -0.31070
1358.11463 -0.31349
1356.06619 -0.31552
1354.01775 -0.31750
1351.96932 -0.31979
1349.92088 -0.32147
1347.87244 -0.32229
1345.82400 -0.32319
1343.77556 -0.32444
1341.72712 -0.32535
1339.67869 -0.32554
1337.63025 -0.32609
1335.58181 -0.32748
1333.53337 -0.32975
1331.48493 -0.33207
1329.43649 -0.33335
1327.38806 -0.33383
1325.33962 -0.33470
1323.29118 -0.33619
1321.24274 -0.33702
1319.19430 -0.33764
1317.14586 -0.33938
1315.09743 -0.34162
1313.04899 -0.34331
1311.00055 -0.34494
1308.95211 -0.34687
1306.90367 -0.34825
1304.85523 -0.34912
1302.80680 -0.35045
1300.75836 -0.35186
1298.70992 -0.35219
1296.66148 -0.35213
1294.61304 -0.35249
1292.56460 -0.35194
1290.51617 -0.35045
1288.46773 -0.35002
1286.41929 -0.35037
1284.37085 -0.35002
1282.32241 -0.34784
1280.27397 -0.34410
1278.22554 -0.34047
1276.17710 -0.33695
1274.12866 -0.33342
1272.08022 -0.33049
1270.03178 -0.32754
1267.98334 -0.32444
1265.93491 -0.32258
1263.88647 -0.32153
1261.83803 -0.32050
1259.78959 -0.32011
1257.74115 -0.31892
1255.69271 -0.31484
1253.64428 -0.30853
1251.59584 -0.30144
1249.54740 -0.29460
1247.49896 -0.28814
1245.45052 -0.28096
1243.40208 -0.27325
1241.35364 -0.26657
1239.30521 -0.26133
1237.25677 -0.25648
1235.20833 -0.25188
1233.15989 -0.24785
1231.11145 -0.24395
1229.06301 -0.23967
1227.01458 -0.23440
1224.96614 -0.22796
1222.91770 -0.22013
1220.86926 -0.21099
1218.82082 -0.20159
1216.77238 -0.19247
1214.72395 -0.18264
1212.67551 -0.17156
1210.62707 -0.15948
1208.57863 -0.14550
1206.53019 -0.13004
1204.48175 -0.11440
1202.43332 -0.09748
1200.38488 -0.07888
1198.33644 -0.05978
1196.28800 -0.04072
1194.23956 -0.02177
1192.19112 -0.00256
1190.14269 0.01731
1188.09425 0.03723
1186.04581 0.05651
1183.99737 0.07581
1181.94893 0.09498
1179.90049 0.11367
1177.85206 0.13255
1175.80362 0.15005
1173.75518 0.16486
1171.70674 0.18083
1169.65830 0.20049
1167.60986 0.22003
1165.56143 0.23808
1163.51299 0.25626
1161.46455 0.27476
1159.41611 0.29234
1157.36767 0.30549
1155.31923 0.31528
1153.27080 0.32722
1151.22236 0.34061
1149.17392 0.35041
1147.12548 0.35518
1145.07704 0.35799
1143.02860 0.36132
1140.98017 0.36386
1138.93173 0.36455
1136.88329 0.36554
1134.83485 0.36835
1132.78641 0.37201
1130.73797 0.37396
1128.68954 0.37106
1126.64110 0.36514
1124.59266 0.35955
1122.54422 0.35441
1120.49578 0.34996
1118.44734 0.34705
1116.39891 0.34608
1114.35047 0.34407
1112.30203 0.33865
1110.25359 0.33372
1108.20515 0.33349
1106.15671 0.33510
1104.10827 0.33584
1102.05984 0.34051
1100.01140 0.35015
1097.96296 0.35837
1095.91452 0.36075
1093.86608 0.35941
1091.81764 0.35981
1089.76921 0.36691
1087.72077 0.37880
1085.67233 0.38649
1083.62389 0.38869
1081.57545 0.39431
1079.52701 0.40394
1077.47858 0.40810
1075.43014 0.40553
1073.38170 0.40321
1071.33326 0.40751
1069.28482 0.42041
1067.23638 0.43416
1065.18795 0.43981
1063.13951 0.44066
1061.09107 0.44445
1059.04263 0.44985
1056.99419 0.45377
1054.94575 0.46031
1052.89732 0.46792
1050.84888 0.46965
1048.80044 0.46982
1046.75200 0.47372
1044.70356 0.47750
1042.65512 0.47899
1040.60669 0.47851
1038.55825 0.47560
1036.50981 0.47406
1034.46137 0.47606
1032.41293 0.47546
1030.36449 0.47160
1028.31606 0.47038
1026.26762 0.47442
1024.21918 0.48350
1022.17074 0.48905
1020.12230 0.48536
1018.07386 0.48244
1016.02543 0.48592
1013.97699 0.48732
1011.92855 0.48625
1009.88011 0.49010
1007.83167 0.49444
1005.78323 0.49481
1003.73480 0.49249
1001.68636 0.48730
999.63792 0.48062
997.58948 0.47739
995.54104 0.47959
993.49260 0.47936
991.44417 0.47616
989.39573 0.47877
987.34729 0.48602
985.29885 0.48802
983.25041 0.47719
981.20197 0.46190
979.15354 0.45522
977.10510 0.45480
975.05666 0.45758
973.00822 0.46089
970.95978 0.46037
968.91134 0.46281
966.86290 0.46641
964.81447 0.46068
962.76603 0.44816
960.71759 0.43374
958.66915 0.42448
956.62071 0.42891
954.57227 0.43891
952.52384 0.44170
950.47540 0.43508
948.42696 0.42806
946.37852 0.42242
944.33008 0.41130
942.28164 0.40491
940.23321 0.40831
938.18477 0.41548
936.13633 0.42595
934.08789 0.43878
932.03945 0.45659
929.99101 0.48256
927.94258 0.51647
925.89414 0.54932
923.84570 0.57082
921.79726 0.59064
919.74882 0.62243
917.70038 0.66298
915.65195 0.69655
913.60351 0.71767
911.55507 0.73905
909.50663 0.75857
907.45819 0.76558
905.40975 0.76878
903.36132 0.77722
901.31288 0.79023
899.26444 0.79973
897.21600 0.80104
895.16756 0.80340
893.11912 0.81266
891.07069 0.81977
889.02225 0.81966
886.97381 0.81669
884.92537 0.80575
882.87693 0.78505
880.82849 0.76566
878.78006 0.75626
876.73162 0.75396
874.68318 0.74552
872.63474 0.72795
870.58630 0.70686
868.53786 0.68289
866.48943 0.66595
864.44099 0.65778
862.39255 0.64191
860.34411 0.61803
858.29567 0.59607
856.24723 0.58136
854.19880 0.57416
852.15036 0.56520
850.10192 0.55074
848.05348 0.53739
846.00504 0.53478
843.95660 0.54366
841.90817 0.55928
839.85973 0.57989
837.81129 0.59776
835.76285 0.61047
833.71441 0.62295
831.66597 0.63867
829.61753 0.66005
827.56910 0.68190
825.52066 0.70401
823.47222 0.73173
821.42378 0.75810
819.37534 0.77447
817.32690 0.78225
815.27847 0.78659
813.23003 0.78832
811.18159 0.78841
809.13315 0.79759
807.08471 0.81425
805.03627 0.82225
802.98784 0.82830
800.93940 0.84540
798.89096 0.86279
796.84252 0.86776
794.79408 0.85790
792.74564 0.84363
790.69721 0.83729
788.64877 0.82553
786.60033 0.80155
784.55189 0.78666
782.50345 0.78333
780.45501 0.78254
778.40658 0.78571
776.35814 0.78485
774.30970 0.77553
772.26126 0.75478
770.21282 0.71930
768.16438 0.68174
766.11595 0.65730
764.06751 0.64826
762.01907 0.64317
759.97063 0.63337
757.92219 0.60603
755.87375 0.57087
753.82532 0.56092
751.77688 0.57126
749.72844 0.57090
747.68000 0.55149
745.63156 0.52899
743.58312 0.51550
741.53469 0.50196
739.48625 0.48322
737.43781 0.47491
735.38937 0.48076
733.34093 0.48659
731.29249 0.48262
729.24406 0.47032
727.19562 0.46464
725.14718 0.47576
723.09874 0.49256
721.05030 0.49064
719.00186 0.47800
716.95343 0.47998
714.90499 0.47978
712.85655 0.46511
710.80811 0.45309
708.75967 0.44025
706.71123 0.42408
704.66280 0.42035
702.61436 0.43230
700.56592 0.44750
698.51748 0.44997
696.46904 0.44671
694.42060 0.45456
692.37216 0.46362
690.32373 0.45542
688.27529 0.42827
686.22685 0.40646
684.17841 0.40806
682.12997 0.43698
680.08153 0.47679
678.03310 0.48067
675.98466 0.46318
673.93622 0.47332
671.88778 0.49210
669.83934 0.50748
667.79090 0.56726
665.74247 0.60220
663.69403 0.58414
661.64559 0.58354
659.59715 0.61573
657.54871 0.63776
655.50027 0.66280
653.45184 0.66582
651.40340 0.58599
649.35496 0.49199
647.30652 0.44987
645.25808 0.47449
643.20964 0.53664
641.16121 0.57593
639.11277 0.56619
637.06433 0.56096
635.01589 0.55891
632.96745 0.51818
630.91901 0.49885
628.87058 0.51769
626.82214 0.52890
624.77370 0.51663
622.72526 0.53760
620.67682 0.60643
618.62838 0.60636
616.57995 0.52411
614.53151 0.50493
612.48307 0.57831
610.43463 0.70414
608.38619 0.72544
606.33775 0.63680
604.28932 0.58441
602.24088 0.50852
600.19244 0.43065
598.14400 0.38626
