3996.50324 0.12607
3994.45480 0.12621
3992.40636 0.12596
3990.35792 0.12558
3988.30948 0.12500
3986.26104 0.12264
3984.21261 0.11976
3982.16417 0.11894
3980.11573 0.12023
3978.06729 0.12236
3976.01885 0.12434
3973.97041 0.12451
3971.92198 0.12256
3969.87354 0.12099
3967.82510 0.12165
3965.77666 0.12277
3963.72822 0.12246
3961.67978 0.12274
3959.63135 0.12456
3957.58291 0.12508
3955.53447 0.12299
3953.48603 0.12091
3951.43759 0.12039
3949.38915 0.12109
3947.34072 0.12245
3945.29228 0.12246
3943.24384 0.12368
3941.19540 0.12637
3939.14696 0.12539
3937.09852 0.12203
3935.05009 0.11846
3933.00165 0.11730
3930.95321 0.12168
3928.90477 0.12467
3926.85633 0.12310
3924.80789 0.12389
3922.75946 0.12638
3920.71102 0.12551
3918.66258 0.12664
3916.61414 0.13042
3914.56570 0.12788
3912.51726 0.12234
3910.46883 0.12061
3908.42039 0.12063
3906.37195 0.12093
3904.32351 0.12506
3902.27507 0.13026
3900.22663 0.13335
3898.17820 0.13488
3896.12976 0.13167
3894.08132 0.12716
3892.03288 0.12767
3889.98444 0.12871
3887.93600 0.12330
3885.88756 0.12163
3883.83913 0.12690
3881.79069 0.12871
3879.74225 0.13117
3877.69381 0.12958
3875.64537 0.12350
3873.59693 0.12146
3871.54850 0.12270
3869.50006 0.12779
3867.45162 0.12893
3865.40318 0.12482
3863.35474 0.13008
3861.30630 0.13617
3859.25787 0.13048
3857.20943 0.11894
3855.16099 0.11203
3853.11255 0.13059
3851.06411 0.14752
3849.01567 0.14024
3846.96724 0.12750
3844.91880 0.11783
3842.87036 0.11570
3840.82192 0.11806
3838.77348 0.12325
3836.72504 0.12976
3834.67661 0.12910
3832.62817 0.12587
3830.57973 0.12431
3828.53129 0.12173
3826.48285 0.11844
3824.43441 0.11448
3822.38598 0.11194
3820.33754 0.11861
3818.28910 0.12233
3816.24066 0.12386
3814.19222 0.12848
3812.14378 0.12701
3810.09535 0.12193
3808.04691 0.11986
3805.99847 0.12203
3803.95003 0.11972
3801.90159 0.12137
3799.85315 0.13045
3797.80472 0.13004
3795.75628 0.12702
3793.70784 0.12405
3791.65940 0.11975
3789.61096 0.11696
3787.56252 0.11550
3785.51409 0.11548
3783.46565 0.11669
3781.41721 0.11668
3779.36877 0.11833
3777.32033 0.12112
3775.27189 0.12105
3773.22346 0.11861
3771.17502 0.11639
3769.12658 0.11870
3767.07814 0.12092
3765.02970 0.12185
3762.98126 0.12180
3760.93283 0.11993
3758.88439 0.12297
3756.83595 0.12501
3754.78751 0.11829
3752.73907 0.11099
3750.69063 0.11676
3748.64219 0.12373
3746.59376 0.11732
3744.54532 0.11902
3742.49688 0.12914
3740.44844 0.12608
3738.40000 0.11738
3736.35156 0.11787
3734.30313 0.13330
3732.25469 0.14145
3730.20625 0.13568
3728.15781 0.12749
3726.10937 0.12391
3724.06093 0.12399
3722.01250 0.12421
3719.96406 0.12558
3717.91562 0.12719
3715.86718 0.12686
3713.81874 0.12734
3711.77030 0.13659
3709.72187 0.14700
3707.67343 0.14648
3705.62499 0.14362
3703.57655 0.14294
3701.52811 0.14789
3699.47967 0.15453
3697.43124 0.15793
3695.38280 0.15905
3693.33436 0.15705
3691.28592 0.15402
3689.23748 0.15744
3687.18904 0.16291
3685.14061 0.16246
3683.09217 0.15895
3681.04373 0.15485
3678.99529 0.15084
3676.94685 0.15066
3674.89841 0.16314
3672.84998 0.16921
3670.80154 0.17026
3668.75310 0.17987
3666.70466 0.18319
3664.65622 0.18094
3662.60778 0.18065
3660.55935 0.18232
3658.51091 0.18393
3656.46247 0.18840
3654.41403 0.19250
3652.36559 0.18936
3650.31715 0.18841
3648.26872 0.20120
3646.22028 0.20435
3644.17184 0.19866
3642.12340 0.19390
3640.07496 0.19382
3638.02652 0.19594
3635.97809 0.19420
3633.92965 0.19156
3631.88121 0.19267
3629.83277 0.19710
3627.78433 0.20221
3625.73589 0.19958
3623.68746 0.19567
3621.63902 0.19550
3619.59058 0.19864
3617.54214 0.19899
3615.49370 0.19290
3613.44526 0.18508
3611.39682 0.17885
3609.34839 0.17659
3607.29995 0.17767
3605.25151 0.17423
3603.20307 0.16733
3601.15463 0.16390
3599.10619 0.16322
3597.05776 0.16008
3595.00932 0.15705
3592.96088 0.15691
3590.91244 0.15561
3588.86400 0.15331
3586.81556 0.15415
3584.76713 0.15335
3582.71869 0.14947
3580.67025 0.14451
3578.62181 0.13919
3576.57337 0.13667
3574.52493 0.13765
3572.47650 0.13925
3570.42806 0.13837
3568.37962 0.13551
3566.33118 0.13469
3564.28274 0.13445
3562.23430 0.13301
3560.18587 0.13175
3558.13743 0.12997
3556.08899 0.12670
3554.04055 0.12329
3551.99211 0.12266
3549.94367 0.12398
3547.89524 0.12674
3545.84680 0.12939
3543.79836 0.12509
3541.74992 0.11891
3539.70148 0.11853
3537.65304 0.12352
3535.60461 0.12852
3533.55617 0.12764
3531.50773 0.12383
3529.45929 0.12203
3527.41085 0.11955
3525.36241 0.11607
3523.31398 0.11603
3521.26554 0.11561
3519.21710 0.11248
3517.16866 0.11169
3515.12022 0.11254
3513.07178 0.11132
3511.02335 0.11041
3508.97491 0.11038
3506.92647 0.10691
3504.87803 0.10152
3502.82959 0.10037
3500.78115 0.10189
3498.73272 0.10282
3496.68428 0.10645
3494.63584 0.11069
3492.58740 0.11220
3490.53896 0.11273
3488.49052 0.11217
3486.44209 0.11093
3484.39365 0.11095
3482.34521 0.11186
3480.29677 0.11128
3478.24833 0.10953
3476.19989 0.10898
3474.15146 0.10682
3472.10302 0.10261
3470.05458 0.10150
3468.00614 0.10387
3465.95770 0.10854
3463.90926 0.11372
3461.86082 0.11493
3459.81239 0.11283
3457.76395 0.11110
3455.71551 0.11036
3453.66707 0.11130
3451.61863 0.11238
3449.57019 0.11204
3447.52176 0.11106
3445.47332 0.11124
3443.42488 0.11339
3441.37644 0.11518
3439.32800 0.11774
3437.27956 0.12120
3435.23113 0.11972
3433.18269 0.11376
3431.13425 0.11163
3429.08581 0.11359
3427.03737 0.11267
3424.98893 0.11012
3422.94050 0.11092
3420.89206 0.11532
3418.84362 0.11892
3416.79518 0.11764
3414.74674 0.11269
3412.69830 0.10858
3410.64987 0.10846
3408.60143 0.11137
3406.55299 0.11386
3404.50455 0.11419
3402.45611 0.11437
3400.40767 0.11505
3398.35924 0.11301
3396.31080 0.10919
3394.26236 0.10838
3392.21392 0.10946
3390.16548 0.10886
3388.11704 0.10780
3386.06861 0.10718
3384.02017 0.10573
3381.97173 0.10477
3379.92329 0.10578
3377.87485 0.10792
3375.82641 0.11006
3373.77798 0.11001
3371.72954 0.10686
3369.68110 0.10414
3367.63266 0.10389
3365.58422 0.10486
3363.53578 0.10724
3361.48735 0.10977
3359.43891 0.11066
3357.39047 0.11007
3355.34203 0.10826
3353.29359 0.10688
3351.24515 0.10731
3349.19672 0.10900
3347.14828 0.10947
3345.09984 0.10820
3343.05140 0.10772
3341.00296 0.10762
3338.95452 0.10708
3336.90609 0.10800
3334.85765 0.11008
3332.80921 0.11016
3330.76077 0.10804
3328.71233 0.10666
3326.66389 0.10646
3324.61545 0.10570
3322.56702 0.10602
3320.51858 0.10777
3318.47014 0.10946
3316.42170 0.11132
3314.37326 0.11079
3312.32482 0.10908
3310.27639 0.10924
3308.22795 0.10874
3306.17951 0.10722
3304.13107 0.10648
3302.08263 0.10762
3300.03419 0.10676
3297.98576 0.10177
3295.93732 0.10102
3293.88888 0.10547
3291.84044 0.10524
3289.79200 0.10163
3287.74356 0.10256
3285.69513 0.10386
3283.64669 0.10305
3281.59825 0.10471
3279.54981 0.10527
3277.50137 0.10287
3275.45293 0.10278
3273.40450 0.10319
3271.35606 0.09964
3269.30762 0.09678
3267.25918 0.09948
3265.21074 0.10412
3263.16230 0.10600
3261.11387 0.10591
3259.06543 0.10596
3257.01699 0.10572
3254.96855 0.10327
3252.92011 0.09938
3250.87167 0.09894
3248.82324 0.10149
3246.77480 0.10114
3244.72636 0.09896
3242.67792 0.09933
3240.62948 0.10133
3238.58104 0.10242
3236.53261 0.10125
3234.48417 0.09989
3232.43573 0.10087
3230.38729 0.10352
3228.33885 0.10691
3226.29041 0.10938
3224.24198 0.10972
3222.19354 0.10841
3220.14510 0.10709
3218.09666 0.10755
3216.04822 0.10921
3213.99978 0.11086
3211.95135 0.11098
3209.90291 0.10812
3207.85447 0.10530
3205.80603 0.10628
3203.75759 0.10881
3201.70915 0.10905
3199.66072 0.10698
3197.61228 0.10585
3195.56384 0.10821
3193.51540 0.11281
3191.46696 0.11606
3189.41852 0.11556
3187.37008 0.11245
3185.32165 0.10960
3183.27321 0.10908
3181.22477 0.10995
3179.17633 0.11055
3177.12789 0.11169
3175.07945 0.11372
3173.03102 0.11511
3170.98258 0.11427
3168.93414 0.11273
3166.88570 0.11332
3164.83726 0.11515
3162.78882 0.11701
3160.74039 0.11900
3158.69195 0.11963
3156.64351 0.11820
3154.59507 0.11636
3152.54663 0.11743
3150.49819 0.12217
3148.44976 0.12574
3146.40132 0.12482
3144.35288 0.12228
3142.30444 0.12223
3140.25600 0.12326
3138.20756 0.12306
3136.15913 0.12455
3134.11069 0.12953
3132.06225 0.13377
3130.01381 0.13353
3127.96537 0.13189
3125.91693 0.13239
3123.86850 0.13402
3121.82006 0.13456
3119.77162 0.13416
3117.72318 0.13436
3115.67474 0.13487
3113.62630 0.13484
3111.57787 0.13419
3109.52943 0.13400
3107.48099 0.13634
3105.43255 0.13896
3103.38411 0.13788
3101.33567 0.13655
3099.28724 0.13750
3097.23880 0.13833
3095.19036 0.13917
3093.14192 0.13915
3091.09348 0.13776
3089.04504 0.13674
3086.99661 0.13653
3084.94817 0.13724
3082.89973 0.13993
3080.85129 0.14235
3078.80285 0.14090
3076.75441 0.13819
3074.70598 0.13770
3072.65754 0.13865
3070.60910 0.13923
3068.56066 0.13895
3066.51222 0.13713
3064.46378 0.13516
3062.41535 0.13576
3060.36691 0.13717
3058.31847 0.13735
3056.27003 0.13814
3054.22159 0.14017
3052.17315 0.14167
3050.12471 0.14229
3048.07628 0.14143
3046.02784 0.14020
3043.97940 0.14180
3041.93096 0.14463
3039.88252 0.14614
3037.83408 0.14695
3035.78565 0.14758
3033.73721 0.14940
3031.68877 0.15211
3029.64033 0.15359
3027.59189 0.15569
3025.54345 0.16005
3023.49502 0.16405
3021.44658 0.16594
3019.39814 0.16847
3017.34970 0.17306
3015.30126 0.17927
3013.25282 0.18754
3011.20439 0.19495
3009.15595 0.20001
3007.10751 0.20572
3005.05907 0.21198
3003.01063 0.21585
3000.96219 0.21823
2998.91376 0.22080
2996.86532 0.22407
2994.81688 0.22964
2992.76844 0.23695
2990.72000 0.24422
2988.67156 0.25027
2986.62313 0.25548
2984.57469 0.26256
2982.52625 0.27408
2980.47781 0.28862
2978.42937 0.30110
2976.38093 0.31127
2974.33250 0.32319
2972.28406 0.33547
2970.23562 0.34568
2968.18718 0.35458
2966.13874 0.36062
2964.09030 0.36199
2962.04187 0.35834
2959.99343 0.34965
2957.94499 0.33837
2955.89655 0.32932
2953.84811 0.32287
2951.79967 0.31479
2949.75124 0.30634
2947.70280 0.30216
2945.65436 0.30231
2943.60592 0.30351
2941.55748 0.30456
2939.50904 0.30602
2937.46061 0.30721
2935.41217 0.30676
2933.36373 0.30358
2931.31529 0.29721
2929.26685 0.29037
2927.21841 0.28490
2925.16998 0.27699
2923.12154 0.26707
2921.07310 0.25980
2919.02466 0.25307
2916.97622 0.24692
2914.92778 0.24471
2912.87934 0.24221
2910.83091 0.23671
2908.78247 0.23091
2906.73403 0.22704
2904.68559 0.22655
2902.63715 0.22777
2900.58871 0.22899
2898.54028 0.22944
2896.49184 0.22796
2894.44340 0.22658
2892.39496 0.22803
2890.34652 0.23090
2888.29808 0.23145
2886.24965 0.22933
2884.20121 0.22870
2882.15277 0.23167
2880.10433 0.23771
2878.05589 0.24583
2876.00745 0.25129
2873.95902 0.25032
2871.91058 0.24331
2869.86214 0.23177
2867.81370 0.22044
2865.76526 0.21344
2863.71682 0.20780
2861.66839 0.20126
2859.61995 0.19617
2857.57151 0.19109
2855.52307 0.18636
2853.47463 0.18492
2851.42619 0.18330
2849.37776 0.17846
2847.32932 0.17173
2845.28088 0.16452
2843.23244 0.15790
2841.18400 0.15190
2839.13556 0.14595
2837.08713 0.14111
2835.03869 0.13824
2832.99025 0.13646
2830.94181 0.13504
2828.89337 0.13403
2826.84493 0.13405
2824.79650 0.13366
2822.74806 0.13188
2820.69962 0.13045
2818.65118 0.12887
2816.60274 0.12711
2814.55430 0.12721
2812.50587 0.12874
2810.45743 0.12881
2808.40899 0.12664
2806.36055 0.12518
2804.31211 0.12577
2802.26367 0.12692
2800.21524 0.12713
2798.16680 0.12607
2796.11836 0.12501
2794.06992 0.12567
2792.02148 0.12800
2789.97304 0.12944
2787.92461 0.12827
2785.87617 0.12602
2783.82773 0.12440
2781.77929 0.12371
2779.73085 0.12432
2777.68241 0.12635
2775.63397 0.12844
2773.58554 0.12894
2771.53710 0.12774
2769.48866 0.12639
2767.44022 0.12588
2765.39178 0.12527
2763.34334 0.12496
2761.29491 0.12605
2759.24647 0.12656
2757.19803 0.12597
2755.14959 0.12667
2753.10115 0.12818
2751.05271 0.12917
2749.00428 0.12921
2746.95584 0.12782
2744.90740 0.12691
2742.85896 0.12706
2740.81052 0.12667
2738.76208 0.12618
2736.71365 0.12719
2734.66521 0.12922
2732.61677 0.13026
2730.56833 0.13030
2728.51989 0.13049
2726.47145 0.12996
2724.42302 0.12756
2722.37458 0.12509
2720.32614 0.12465
2718.27770 0.12553
2716.22926 0.12583
2714.18082 0.12453
2712.13239 0.12237
2710.08395 0.12233
2708.03551 0.12403
2705.98707 0.12365
2703.93863 0.12204
2701.89019 0.12112
2699.84176 0.12074
2697.79332 0.12066
2695.74488 0.12043
2693.69644 0.12063
2691.64800 0.12108
2689.59956 0.12072
2687.55113 0.11976
2685.50269 0.11908
2683.45425 0.11928
2681.40581 0.12043
2679.35737 0.12128
2677.30893 0.12049
2675.26050 0.11886
2673.21206 0.11762
2671.16362 0.11793
2669.11518 0.12052
2667.06674 0.12315
2665.01830 0.12372
2662.96987 0.12350
2660.92143 0.12310
2658.87299 0.12199
2656.82455 0.12134
2654.77611 0.12202
2652.72767 0.12271
2650.67924 0.12152
2648.63080 0.11948
2646.58236 0.12008
2644.53392 0.12266
2642.48548 0.12377
2640.43704 0.12330
2638.38860 0.12319
2636.34017 0.12470
2634.29173 0.12641
2632.24329 0.12560
2630.19485 0.12379
2628.14641 0.12380
2626.09797 0.12438
2624.04954 0.12531
2622.00110 0.12802
2619.95266 0.13051
2617.90422 0.13097
2615.85578 0.12959
2613.80734 0.12711
2611.75891 0.12516
2609.71047 0.12503
2607.66203 0.12648
2605.61359 0.12718
2603.56515 0.12683
2601.51671 0.12780
2599.46828 0.12970
2597.41984 0.13106
2595.37140 0.13138
2593.32296 0.13084
2591.27452 0.13125
2589.22608 0.13281
2587.17765 0.13396
2585.12921 0.13439
2583.08077 0.13373
2581.03233 0.13222
2578.98389 0.13188
2576.93545 0.13344
2574.88702 0.13512
2572.83858 0.13568
2570.79014 0.13582
2568.74170 0.13590
2566.69326 0.13517
2564.64482 0.13334
2562.59639 0.13173
2560.54795 0.13149
2558.49951 0.13191
2556.45107 0.13251
2554.40263 0.13330
2552.35419 0.13376
2550.30576 0.13389
2548.25732 0.13492
2546.20888 0.13650
2544.16044 0.13669
2542.11200 0.13506
2540.06356 0.13290
2538.01513 0.13183
2535.96669 0.13164
2533.91825 0.13102
2531.86981 0.13019
2529.82137 0.13071
2527.77293 0.13242
2525.72450 0.13247
2523.67606 0.12995
2521.62762 0.12774
2519.57918 0.12789
2517.53074 0.12946
2515.48230 0.13031
2513.43387 0.12933
2511.38543 0.12830
2509.33699 0.12825
2507.28855 0.12790
2505.24011 0.12777
2503.19167 0.12787
2501.14324 0.12794
2499.09480 0.12904
2497.04636 0.12940
2494.99792 0.12812
2492.94948 0.12721
2490.90104 0.12673
2488.85260 0.12580
2486.80417 0.12496
2484.75573 0.12506
2482.70729 0.12566
2480.65885 0.12552
2478.61041 0.12412
2476.56197 0.12194
2474.51354 0.12139
2472.46510 0.12354
2470.41666 0.12556
2468.36822 0.12609
2466.31978 0.12709
2464.27134 0.12860
2462.22291 0.12910
2460.17447 0.12921
2458.12603 0.12872
2456.07759 0.12733
2454.02915 0.12713
2451.98071 0.12871
2449.93228 0.13031
2447.88384 0.13047
2445.83540 0.13045
2443.78696 0.13202
2441.73852 0.13251
2439.69008 0.13071
2437.64165 0.13064
2435.59321 0.13274
2433.54477 0.13443
2431.49633 0.13546
2429.44789 0.13675
2427.39945 0.13868
2425.35102 0.14044
2423.30258 0.14153
2421.25414 0.14179
2419.20570 0.14132
2417.15726 0.14145
2415.10882 0.14236
2413.06039 0.14318
2411.01195 0.14393
2408.96351 0.14438
2406.91507 0.14460
2404.86663 0.14581
2402.81819 0.14801
2400.76976 0.14904
2398.72132 0.14854
2396.67288 0.14833
2394.62444 0.14874
2392.57600 0.14948
2390.52756 0.14951
2388.47913 0.14833
2386.43069 0.14734
2384.38225 0.14787
2382.33381 0.14989
2380.28537 0.15128
2378.23693 0.15177
2376.18850 0.15250
2374.14006 0.15163
2372.09162 0.15018
2370.04318 0.15210
2367.99474 0.15833
2365.94630 0.16773
2363.89787 0.17173
2361.84943 0.16014
2359.80099 0.14885
2357.75255 0.15904
2355.70411 0.17396
2353.65567 0.17486
2351.60723 0.16890
2349.55880 0.16187
2347.51036 0.15639
2345.46192 0.15727
2343.41348 0.16048
2341.36504 0.15652
2339.31660 0.15323
2337.26817 0.15636
2335.21973 0.15986
2333.17129 0.15883
2331.12285 0.15899
2329.07441 0.16413
2327.02597 0.16783
2324.97754 0.16824
2322.92910 0.16674
2320.88066 0.16313
2318.83222 0.16035
2316.78378 0.16083
2314.73534 0.16325
2312.68691 0.16457
2310.63847 0.16541
2308.59003 0.16773
2306.54159 0.16887
2304.49315 0.16688
2302.44471 0.16375
2300.39628 0.16216
2298.34784 0.16297
2296.29940 0.16413
2294.25096 0.16409
2292.20252 0.16441
2290.15408 0.16459
2288.10565 0.16276
2286.05721 0.16151
2284.00877 0.16208
2281.96033 0.16161
2279.91189 0.16038
2277.86345 0.16065
2275.81502 0.16120
2273.76658 0.16071
2271.71814 0.16014
2269.66970 0.16012
2267.62126 0.15993
2265.57282 0.15890
2263.52439 0.15825
2261.47595 0.15809
2259.42751 0.15782
2257.37907 0.15834
2255.33063 0.15848
2253.28219 0.15811
2251.23376 0.15852
2249.18532 0.15895
2247.13688 0.15979
2245.08844 0.16047
2243.04000 0.15930
2240.99156 0.15790
2238.94313 0.15773
2236.89469 0.15798
2234.84625 0.15809
2232.79781 0.15807
2230.74937 0.15758
2228.70093 0.15678
2226.65250 0.15720
2224.60406 0.15850
2222.55562 0.15895
2220.50718 0.15922
2218.45874 0.15941
2216.41030 0.15865
2214.36186 0.15815
2212.31343 0.15861
2210.26499 0.15883
2208.21655 0.15851
2206.16811 0.15787
2204.11967 0.15647
2202.07123 0.15517
2200.02280 0.15533
2197.97436 0.15577
2195.92592 0.15483
2193.87748 0.15386
2191.82904 0.15363
2189.78060 0.15256
2187.73217 0.15061
2185.68373 0.14980
2183.63529 0.15074
2181.58685 0.15133
2179.53841 0.15053
2177.48997 0.15007
2175.44154 0.15149
2173.39310 0.15314
2171.34466 0.15266
2169.29622 0.15094
2167.24778 0.15005
2165.19934 0.15003
2163.15091 0.14896
2161.10247 0.14698
2159.05403 0.14560
2157.00559 0.14474
2154.95715 0.14391
2152.90871 0.14235
2150.86028 0.14136
2148.81184 0.14248
2146.76340 0.14371
2144.71496 0.14399
2142.66652 0.14379
2140.61808 0.14398
2138.56965 0.14485
2136.52121 0.14425
2134.47277 0.14187
2132.42433 0.14034
2130.37589 0.14014
2128.32745 0.13932
2126.27902 0.13808
2124.23058 0.13825
2122.18214 0.13887
2120.13370 0.13851
2118.08526 0.13847
2116.03682 0.13950
2113.98839 0.14020
2111.93995 0.13952
2109.89151 0.13809
2107.84307 0.13736
2105.79463 0.13798
2103.74619 0.13916
2101.69776 0.14021
2099.64932 0.14047
2097.60088 0.14007
2095.55244 0.14074
2093.50400 0.14257
2091.45556 0.14362
2089.40713 0.14355
2087.35869 0.14361
2085.31025 0.14420
2083.26181 0.14473
2081.21337 0.14544
2079.16493 0.14639
2077.11649 0.14620
2075.06806 0.14505
2073.01962 0.14463
2070.97118 0.14477
2068.92274 0.14462
2066.87430 0.14526
2064.82586 0.14780
2062.77743 0.15017
2060.72899 0.15136
2058.68055 0.15225
2056.63211 0.15214
2054.58367 0.15149
2052.53523 0.15005
2050.48680 0.14836
2048.43836 0.14956
2046.38992 0.15189
2044.34148 0.15178
2042.29304 0.15129
2040.24460 0.15231
2038.19617 0.15274
2036.14773 0.15285
2034.09929 0.15389
2032.05085 0.15497
2030.00241 0.15598
2027.95397 0.15658
2025.90554 0.15599
2023.85710 0.15431
2021.80866 0.15249
2019.76022 0.15167
2017.71178 0.15317
2015.66334 0.15580
2013.61491 0.15630
2011.56647 0.15560
2009.51803 0.15557
2007.46959 0.15541
2005.42115 0.15512
2003.37271 0.15512
2001.32428 0.15477
1999.27584 0.15511
1997.22740 0.15657
1995.17896 0.15624
1993.13052 0.15397
1991.08208 0.15234
1989.03365 0.15186
1986.98521 0.15158
1984.93677 0.15021
1982.88833 0.14817
1980.83989 0.14749
1978.79145 0.14791
1976.74302 0.14817
1974.69458 0.14816
1972.64614 0.14794
1970.59770 0.14772
1968.54926 0.14853
1966.50082 0.15073
1964.45239 0.15173
1962.40395 0.15085
1960.35551 0.15016
1958.30707 0.14995
1956.25863 0.14992
1954.21019 0.14991
1952.16176 0.15007
1950.11332 0.15119
1948.06488 0.15199
1946.01644 0.15156
1943.96800 0.15138
1941.91956 0.15365
1939.87112 0.15776
1937.82269 0.16061
1935.77425 0.16148
1933.72581 0.16173
1931.67737 0.16283
1929.62893 0.16527
1927.58049 0.16966
1925.53206 0.17546
1923.48362 0.18080
1921.43518 0.18385
1919.38674 0.18538
1917.33830 0.18796
1915.28986 0.18956
1913.24143 0.18841
1911.19299 0.18666
1909.14455 0.18565
1907.09611 0.18539
1905.04767 0.18542
1902.99923 0.18487
1900.95080 0.18412
1898.90236 0.18378
1896.85392 0.18392
1894.80548 0.18540
1892.75704 0.18604
1890.70860 0.18483
1888.66017 0.18480
1886.61173 0.18529
1884.56329 0.18521
1882.51485 0.18672
1880.46641 0.18967
1878.41797 0.19223
1876.36954 0.19505
1874.32110 0.19765
1872.27266 0.19816
1870.22422 0.19838
1868.17578 0.20075
1866.12734 0.20303
1864.07891 0.20340
1862.03047 0.20237
1859.98203 0.20046
1857.93359 0.19788
1855.88515 0.19385
1853.83671 0.18874
1851.78828 0.18503
1849.73984 0.18256
1847.69140 0.17975
1845.64296 0.17900
1843.59452 0.18197
1841.54608 0.18328
1839.49765 0.18155
1837.44921 0.17999
1835.40077 0.17897
1833.35233 0.17684
1831.30389 0.17505
1829.25545 0.17565
1827.20702 0.17777
1825.15858 0.18000
1823.11014 0.17968
1821.06170 0.17687
1819.01326 0.17472
1816.96482 0.17391
1814.91639 0.17311
1812.86795 0.17291
1810.81951 0.17474
1808.77107 0.17563
1806.72263 0.17519
1804.67419 0.17524
1802.62575 0.17526
1800.57732 0.17549
1798.52888 0.17582
1796.48044 0.17817
1794.43200 0.18236
1792.38356 0.18519
1790.33512 0.18584
1788.28669 0.18638
1786.23825 0.18866
1784.18981 0.19224
1782.14137 0.19607
1780.09293 0.19985
1778.04449 0.20114
1775.99606 0.20134
1773.94762 0.20480
1771.89918 0.21479
1769.85074 0.22618
1767.80230 0.23388
1765.75386 0.23890
1763.70543 0.24383
1761.65699 0.25421
1759.60855 0.26813
1757.56011 0.28396
1755.51167 0.30140
1753.46323 0.31663
1751.41480 0.33576
1749.36636 0.36568
1747.31792 0.40340
1745.26948 0.44101
1743.22104 0.47696
1741.17260 0.50873
1739.12417 0.52586
1737.07573 0.52309
1735.02729 0.49657
1732.97885 0.43976
1730.93041 0.39282
1728.88197 0.35647
1726.83354 0.32777
1724.78510 0.30751
1722.73666 0.29380
1720.68822 0.28843
1718.63978 0.28996
1716.59134 0.29458
1714.54291 0.29726
1712.49447 0.29767
1710.44603 0.29713
1708.39759 0.29877
1706.34915 0.30401
1704.30071 0.30835
1702.25228 0.30968
1700.20384 0.31262
1698.15540 0.31812
1696.10696 0.32202
1694.05852 0.32341
1692.01008 0.32711
1689.96165 0.33380
1687.91321 0.33970
1685.86477 0.34342
1683.81633 0.33998
1681.76789 0.33175
1679.71945 0.32935
1677.67102 0.32975
1675.62258 0.32814
1673.57414 0.32536
1671.52570 0.32330
1669.47726 0.31783
1667.42882 0.31404
1665.38038 0.31286
1663.33195 0.30768
1661.28351 0.29873
1659.23507 0.29344
1657.18663 0.29202
1655.13819 0.29036
1653.08975 0.28040
1651.04132 0.27571
1648.99288 0.27838
1646.94444 0.27993
1644.89600 0.28278
1642.84756 0.28789
1640.79912 0.29266
1638.75069 0.29740
1636.70225 0.30251
1634.65381 0.30425
1632.60537 0.30507
1630.55693 0.30817
1628.50849 0.31363
1626.46006 0.31850
1624.41162 0.32179
1622.36318 0.32682
1620.31474 0.33106
1618.26630 0.33324
1616.21786 0.33699
1614.16943 0.34173
1612.12099 0.34643
1610.07255 0.35330
1608.02411 0.35913
1605.97567 0.36062
1603.92723 0.36209
1601.87880 0.36740
1599.83036 0.37328
1597.78192 0.37595
1595.73348 0.37624
1593.68504 0.37603
1591.63660 0.37726
1589.58817 0.37974
1587.53973 0.38323
1585.49129 0.38756
1583.44285 0.38963
1581.39441 0.38924
1579.34597 0.38880
1577.29754 0.38789
1575.24910 0.38740
1573.20066 0.38937
1571.15222 0.39193
1569.10378 0.39342
1567.05534 0.39421
1565.00691 0.39443
1562.95847 0.39390
1560.91003 0.39455
1558.86159 0.39441
1556.81315 0.39329
1554.76471 0.39083
1552.71628 0.38545
1550.66784 0.38039
1548.61940 0.37497
1546.57096 0.37017
1544.52252 0.36627
1542.47408 0.36020
1540.42565 0.35334
1538.37721 0.35314
1536.32877 0.35527
1534.28033 0.35758
1532.23189 0.35774
1530.18345 0.35636
1528.13501 0.35686
1526.08658 0.35902
1524.03814 0.36200
1521.98970 0.36705
1519.94126 0.36967
1517.89282 0.36810
1515.84438 0.36723
1513.79595 0.36797
1511.74751 0.36992
1509.69907 0.37409
1507.65063 0.38073
1505.60219 0.38022
1503.55375 0.37810
1501.50532 0.38007
1499.45688 0.38385
1497.40844 0.38651
1495.36000 0.38925
1493.31156 0.39511
1491.26312 0.40496
1489.21469 0.41265
1487.16625 0.40747
1485.11781 0.40106
1483.06937 0.40004
1481.02093 0.40249
1478.97249 0.40499
1476.92406 0.40683
1474.87562 0.40608
1472.82718 0.39313
1470.77874 0.37757
1468.73030 0.37156
1466.68186 0.36757
1464.63343 0.36324
1462.58499 0.36279
1460.53655 0.36736
1458.48811 0.37542
1456.43967 0.37383
1454.39123 0.36370
1452.34280 0.35831
1450.29436 0.35574
1448.24592 0.35302
1446.19748 0.34784
1444.14904 0.34339
1442.10060 0.34098
1440.05217 0.33967
1438.00373 0.33881
1435.95529 0.33658
1433.90685 0.33485
1431.85841 0.33518
1429.80997 0.33604
1427.76154 0.33579
1425.71310 0.33359
1423.66466 0.32942
1421.61622 0.32632
1419.56778 0.32522
1417.51934 0.32347
1415.47091 0.32184
1413.42247 0.32121
1411.37403 0.32069
1409.32559 0.32031
1407.27715 0.32003
1405.22871 0.31722
1403.18028 0.31209
1401.13184 0.30871
1399.08340 0.30886
1397.03496 0.30970
1394.98652 0.30861
1392.93808 0.30809
1390.88965 0.30723
1388.84121 0.30411
1386.79277 0.29879
1384.74433 0.29355
1382.69589 0.28887
1380.64745 0.28385
1378.59901 0.27923
1376.55058 0.27603
1374.50214 0.27263
1372.45370 0.26997
1370.40526 0.26942
1368.35682 0.26789
1366.30838 0.26464
1364.25995 0.25999
1362.21151 0.25489
1360.16307 0.25148
1358.11463 0.24933
1356.06619 0.24820
1354.01775 0.24697
1351.96932 0.24472
1349.92088 0.24348
1347.87244 0.24276
1345.82400 0.24121
1343.77556 0.24064
1341.72712 0.24061
1339.67869 0.24024
1337.63025 0.23998
1335.58181 0.23987
1333.53337 0.23919
1331.48493 0.23716
1329.43649 0.23471
1327.38806 0.23343
1325.33962 0.23207
1323.29118 0.22946
1321.24274 0.22816
1319.19430 0.22813
1317.14586 0.22841
1315.09743 0.22959
1313.04899 0.23068
1311.00055 0.23034
1308.95211 0.22985
1306.90367 0.23125
1304.85523 0.23275
1302.80680 0.23280
1300.75836 0.23188
1298.70992 0.23058
1296.66148 0.22992
1294.61304 0.23101
1292.56460 0.23376
1290.51617 0.23634
1288.46773 0.23891
1286.41929 0.24460
1284.37085 0.25253
1282.32241 0.26046
1280.27397 0.26843
1278.22554 0.27543
1276.17710 0.28214
1274.12866 0.28749
1272.08022 0.28885
1270.03178 0.28761
1267.98334 0.28582
1265.93491 0.28361
1263.88647 0.28016
1261.83803 0.27606
1259.78959 0.27385
1257.74115 0.27457
1255.69271 0.27766
1253.64428 0.28370
1251.59584 0.29100
1249.54740 0.29628
1247.49896 0.29915
1245.45052 0.30084
1243.40208 0.30141
1241.35364 0.29779
1239.30521 0.28906
1237.25677 0.28052
1235.20833 0.27516
1233.15989 0.26976
1231.11145 0.26329
1229.06301 0.25894
1227.01458 0.25819
1224.96614 0.25905
1222.91770 0.25998
1220.86926 0.26132
1218.82082 0.26353
1216.77238 0.26652
1214.72395 0.27103
1212.67551 0.27846
1210.62707 0.28794
1208.57863 0.29936
1206.53019 0.31379
1204.48175 0.32835
1202.43332 0.33811
1200.38488 0.34268
1198.33644 0.34644
1196.28800 0.35069
1194.23956 0.35346
1192.19112 0.35370
1190.14269 0.35038
1188.09425 0.34408
1186.04581 0.33629
1183.99737 0.32829
1181.94893 0.32033
1179.90049 0.31020
1177.85206 0.29727
1175.80362 0.28462
1173.75518 0.27462
1171.70674 0.26667
1169.65830 0.26046
1167.60986 0.25520
1165.56143 0.24901
1163.51299 0.24169
1161.46455 0.23400
1159.41611 0.22545
1157.36767 0.21477
1155.31923 0.20470
1153.27080 0.19634
1151.22236 0.18527
1149.17392 0.17048
1147.12548 0.15510
1145.07704 0.14212
1143.02860 0.13199
1140.98017 0.12407
1138.93173 0.12031
1136.88329 0.12165
1134.83485 0.12533
1132.78641 0.12823
1130.73797 0.12957
1128.68954 0.12971
1126.64110 0.12746
1124.59266 0.12301
1122.54422 0.12060
1120.49578 0.12217
1118.44734 0.12297
1116.39891 0.12041
1114.35047 0.11758
1112.30203 0.11601
1110.25359 0.11618
1108.20515 0.11679
1106.15671 0.11717
1104.10827 0.11963
1102.05984 0.12258
1100.01140 0.12453
1097.96296 0.12722
1095.91452 0.12855
1093.86608 0.12668
1091.81764 0.12559
1089.76921 0.12852
1087.72077 0.13270
1085.67233 0.13330
1083.62389 0.13070
1081.57545 0.12868
1079.52701 0.12806
1077.47858 0.12892
1075.43014 0.13151
1073.38170 0.13326
1071.33326 0.13125
1069.28482 0.12718
1067.23638 0.12409
1065.18795 0.11897
1063.13951 0.10824
1061.09107 0.09749
1059.04263 0.09303
1056.99419 0.09040
1054.94575 0.08438
1052.89732 0.07787
1050.84888 0.07502
1048.80044 0.07665
1046.75200 0.07849
1044.70356 0.07609
1042.65512 0.07135
1040.60669 0.06627
1038.55825 0.06188
1036.50981 0.06073
1034.46137 0.06195
1032.41293 0.06247
1030.36449 0.05994
1028.31606 0.05567
1026.26762 0.05553
1024.21918 0.05927
1022.17074 0.05899
1020.12230 0.05229
1018.07386 0.04610
1016.02543 0.04793
1013.97699 0.05620
1011.92855 0.06570
1009.88011 0.07437
1007.83167 0.07984
1005.78323 0.08243
1003.73480 0.08443
1001.68636 0.08307
999.63792 0.07568
997.58948 0.06743
995.54104 0.06174
993.49260 0.05461
991.44417 0.04557
989.39573 0.03926
987.34729 0.03954
985.29885 0.04375
983.25041 0.04473
981.20197 0.04255
979.15354 0.04349
977.10510 0.04899
975.05666 0.05413
973.00822 0.05629
970.95978 0.05468
968.91134 0.05096
966.86290 0.04806
964.81447 0.04338
962.76603 0.03694
960.71759 0.02986
958.66915 0.02260
956.62071 0.01759
954.57227 0.01269
952.52384 0.00725
950.47540 0.00494
948.42696 0.00523
946.37852 0.00372
944.33008 -0.00106
942.28164 -0.00576
940.23321 -0.00490
938.18477 0.00233
936.13633 0.01247
934.08789 0.02571
932.03945 0.04590
929.99101 0.07341
927.94258 0.10304
925.89414 0.13340
923.84570 0.16502
921.79726 0.19442
919.74882 0.22143
917.70038 0.24835
915.65195 0.27426
913.60351 0.29650
911.55507 0.31284
909.50663 0.32533
907.45819 0.33590
905.40975 0.34321
903.36132 0.35145
901.31288 0.36127
899.26444 0.36561
897.21600 0.36345
895.16756 0.35983
893.11912 0.35969
891.07069 0.36204
889.02225 0.36255
886.97381 0.35970
884.92537 0.35210
882.87693 0.33946
880.82849 0.32247
878.78006 0.30010
876.73162 0.27137
874.68318 0.23717
872.63474 0.20153
870.58630 0.16814
868.53786 0.13506
866.48943 0.09906
864.44099 0.05849
862.39255 0.01623
860.34411 -0.01950
858.29567 -0.04527
856.24723 -0.06481
854.19880 -0.07948
852.15036 -0.08878
850.10192 -0.09568
848.05348 -0.09979
846.00504 -0.09767
843.95660 -0.08870
841.90817 -0.07419
839.85973 -0.05709
837.81129 -0.03659
835.76285 -0.00847
833.71441 0.02443
831.66597 0.05621
829.61753 0.08728
827.56910 0.11820
825.52066 0.14510
823.47222 0.16504
821.42378 0.17745
819.37534 0.18393
817.32690 0.18815
815.27847 0.19160
813.23003 0.19426
811.18159 0.19803
809.13315 0.20675
807.08471 0.22079
805.03627 0.23661
802.98784 0.25381
800.93940 0.27416
798.89096 0.29523
796.84252 0.31397
794.79408 0.33076
792.74564 0.34489
790.69721 0.35777
788.64877 0.37087
786.60033 0.38163
784.55189 0.38954
782.50345 0.39447
780.45501 0.39489
778.40658 0.38795
776.35814 0.37179
774.30970 0.35172
772.26126 0.33064
770.21282 0.30099
768.16438 0.25905
766.11595 0.20720
764.06751 0.15371
762.01907 0.10855
759.97063 0.06768
757.92219 0.02681
755.87375 -0.00865
753.82532 -0.03436
751.77688 -0.05182
749.72844 -0.06888
747.68000 -0.09243
745.63156 -0.12136
743.58312 -0.15195
741.53469 -0.17884
739.48625 -0.19736
737.43781 -0.20761
735.38937 -0.21164
733.34093 -0.21603
731.29249 -0.22398
729.24406 -0.22924
727.19562 -0.23086
725.14718 -0.23076
723.09874 -0.22291
721.05030 -0.20689
719.00186 -0.19177
716.95343 -0.18016
714.90499 -0.16808
712.85655 -0.15737
710.80811 -0.15224
708.75967 -0.14989
706.71123 -0.14899
704.66280 -0.15065
702.61436 -0.14687
700.56592 -0.13564
698.51748 -0.12880
696.46904 -0.12791
694.42060 -0.12703
692.37216 -0.12719
690.32373 -0.12822
688.27529 -0.12652
686.22685 -0.11248
684.17841 -0.08737
682.12997 -0.06723
680.08153 -0.05849
678.03310 -0.05139
675.98466 -0.03933
673.93622 -0.02865
671.88778 -0.01935
669.83934 0.00100
667.79090 0.03402
665.74247 0.04855
663.69403 0.05782
661.64559 0.07351
659.59715 0.07494
657.54871 0.05428
655.50027 0.04596
653.45184 0.06815
651.40340 0.10407
649.35496 0.11816
647.30652 0.11017
645.25808 0.12417
643.20964 0.15959
641.16121 0.18299
639.11277 0.19180
637.06433 0.18813
635.01589 0.17083
632.96745 0.16470
630.91901 0.17303
628.87058 0.16917
626.82214 0.16016
624.77370 0.17040
622.72526 0.19025
620.67682 0.20567
618.62838 0.20013
616.57995 0.19727
614.53151 0.24284
612.48307 0.30239
610.43463 0.30517
608.38619 0.26848
606.33775 0.25991
604.28932 0.25619
602.24088 0.23706
600.19244 0.23679
598.14400 0.24752
