3996.50324 1.73028
3994.45480 1.72868
3992.40636 1.72714
3990.35792 1.72690
3988.30948 1.72716
3986.26104 1.72625
3984.21261 1.72492
3982.16417 1.72520
3980.11573 1.72628
3978.06729 1.72589
3976.01885 1.72498
3973.97041 1.72450
3971.92198 1.72321
3969.87354 1.72147
3967.82510 1.72071
3965.77666 1.72127
3963.72822 1.72285
3961.67978 1.72515
3959.63135 1.72632
3957.58291 1.72392
3955.53447 1.71987
3953.48603 1.71888
3951.43759 1.72096
3949.38915 1.72110
3947.34072 1.71789
3945.29228 1.71506
3943.24384 1.71406
3941.19540 1.71437
3939.14696 1.71526
3937.09852 1.71632
3935.05009 1.71749
3933.00165 1.71733
3930.95321 1.71598
3928.90477 1.71669
3926.85633 1.71842
3924.80789 1.71982
3922.75946 1.71987
3920.71102 1.71852
3918.66258 1.71887
3916.61414 1.72064
3914.56570 1.72109
3912.51726 1.72008
3910.46883 1.71861
3908.42039 1.71844
3906.37195 1.72016
3904.32351 1.72198
3902.27507 1.72081
3900.22663 1.71839
3898.17820 1.71847
3896.12976 1.71982
3894.08132 1.72060
3892.03288 1.72077
3889.98444 1.71904
3887.93600 1.71613
3885.88756 1.71530
3883.83913 1.71706
3881.79069 1.71946
3879.74225 1.72163
3877.69381 1.72157
3875.64537 1.72136
3873.59693 1.72203
3871.54850 1.72192
3869.50006 1.71976
3867.45162 1.71662
3865.40318 1.71541
3863.35474 1.71672
3861.30630 1.71852
3859.25787 1.71965
3857.20943 1.71985
3855.16099 1.71861
3853.11255 1.71902
3851.06411 1.72092
3849.01567 1.71945
3846.96724 1.71721
3844.91880 1.71650
3842.87036 1.71756
3840.82192 1.71925
3838.77348 1.72032
3836.72504 1.71993
3834.67661 1.72044
3832.62817 1.72172
3830.57973 1.72198
3828.53129 1.72171
3826.48285 1.72199
3824.43441 1.72233
3822.38598 1.72228
3820.33754 1.72198
3818.28910 1.72133
3816.24066 1.72197
3814.19222 1.72158
3812.14378 1.71922
3810.09535 1.71857
3808.04691 1.72083
3805.99847 1.72259
3803.95003 1.72230
3801.90159 1.72255
3799.85315 1.72167
3797.80472 1.72065
3795.75628 1.72051
3793.70784 1.71932
3791.65940 1.71757
3789.61096 1.71636
3787.56252 1.71531
3785.51409 1.71379
3783.46565 1.71361
3781.41721 1.71547
3779.36877 1.71728
3777.32033 1.71746
3775.27189 1.71707
3773.22346 1.71674
3771.17502 1.71598
3769.12658 1.71568
3767.07814 1.71601
3765.02970 1.71558
3762.98126 1.71559
3760.93283 1.71829
3758.88439 1.72212
3756.83595 1.72150
3754.78751 1.71808
3752.73907 1.71573
3750.69063 1.71584
3748.64219 1.71542
3746.59376 1.71302
3744.54532 1.71162
3742.49688 1.71177
3740.44844 1.71081
3738.40000 1.71105
3736.35156 1.71502
3734.30313 1.71755
3732.25469 1.71680
3730.20625 1.71687
3728.15781 1.71743
3726.10937 1.71806
3724.06093 1.71804
3722.01250 1.71703
3719.96406 1.71597
3717.91562 1.71597
3715.86718 1.71603
3713.81874 1.71456
3711.77030 1.71315
3709.72187 1.71498
3707.67343 1.71661
3705.62499 1.71746
3703.57655 1.71954
3701.52811 1.72255
3699.47967 1.72333
3697.43124 1.72203
3695.38280 1.72100
3693.33436 1.72091
3691.28592 1.72127
3689.23748 1.72241
3687.18904 1.72250
3685.14061 1.72133
3683.09217 1.72175
3681.04373 1.72391
3678.99529 1.72459
3676.94685 1.72262
3674.89841 1.72088
3672.84998 1.71960
3670.80154 1.72122
3668.75310 1.72842
3666.70466 1.73227
3664.65622 1.73194
3662.60778 1.73095
3660.55935 1.73114
3658.51091 1.73190
3656.46247 1.73251
3654.41403 1.73352
3652.36559 1.73512
3650.31715 1.73820
3648.26872 1.74104
3646.22028 1.74267
3644.17184 1.74447
3642.12340 1.74465
3640.07496 1.74452
3638.02652 1.74641
3635.97809 1.74800
3633.92965 1.74798
3631.88121 1.74879
3629.83277 1.75317
3627.78433 1.75850
3625.73589 1.75919
3623.68746 1.75923
3621.63902 1.76024
3619.59058 1.76224
3617.54214 1.76337
3615.49370 1.76342
3613.44526 1.76540
3611.39682 1.76858
3609.34839 1.76957
3607.29995 1.76980
3605.25151 1.77104
3603.20307 1.77171
3601.15463 1.77178
3599.10619 1.77309
3597.05776 1.77500
3595.00932 1.77519
3592.96088 1.77451
3590.91244 1.77387
3588.86400 1.77384
3586.81556 1.77643
3584.76713 1.77893
3582.71869 1.77895
3580.67025 1.77800
3578.62181 1.77820
3576.57337 1.78052
3574.52493 1.78308
3572.47650 1.78372
3570.42806 1.78334
3568.37962 1.78303
3566.33118 1.78307
3564.28274 1.78485
3562.23430 1.78720
3560.18587 1.78895
3558.13743 1.79008
3556.08899 1.79036
3554.04055 1.79027
3551.99211 1.79075
3549.94367 1.79182
3547.89524 1.79245
3545.84680 1.79200
3543.79836 1.79336
3541.74992 1.79654
3539.70148 1.79808
3537.65304 1.79787
3535.60461 1.79749
3533.55617 1.79771
3531.50773 1.79844
3529.45929 1.79997
3527.41085 1.80240
3525.36241 1.80378
3523.31398 1.80283
3521.26554 1.80154
3519.21710 1.80215
3517.16866 1.80382
3515.12022 1.80381
3513.07178 1.80194
3511.02335 1.80126
3508.97491 1.80202
3506.92647 1.80136
3504.87803 1.80076
3502.82959 1.80323
3500.78115 1.80634
3498.73272 1.80652
3496.68428 1.80515
3494.63584 1.80519
3492.58740 1.80610
3490.53896 1.80591
3488.49052 1.80556
3486.44209 1.80640
3484.39365 1.80783
3482.34521 1.80965
3480.29677 1.81171
3478.24833 1.81236
3476.19989 1.81115
3474.15146 1.80922
3472.10302 1.80730
3470.05458 1.80636
3468.00614 1.80731
3465.95770 1.80939
3463.90926 1.81094
3461.86082 1.81020
3459.81239 1.80853
3457.76395 1.80883
3455.71551 1.81033
3453.66707 1.81114
3451.61863 1.81094
3449.57019 1.81122
3447.52176 1.81307
3445.47332 1.81419
3443.42488 1.81353
3441.37644 1.81342
3439.32800 1.81458
3437.27956 1.81493
3435.23113 1.81436
3433.18269 1.81572
3431.13425 1.81854
3429.08581 1.81970
3427.03737 1.81877
3424.98893 1.81807
3422.94050 1.81869
3420.89206 1.81846
3418.84362 1.81753
3416.79518 1.81777
3414.74674 1.81748
3412.69830 1.81520
3410.64987 1.81331
3408.60143 1.81428
3406.55299 1.81575
3404.50455 1.81549
3402.45611 1.81455
3400.40767 1.81272
3398.35924 1.81196
3396.31080 1.81445
3394.26236 1.81688
3392.21392 1.81702
3390.16548 1.81618
3388.11704 1.81568
3386.06861 1.81575
3384.02017 1.81530
3381.97173 1.81490
3379.92329 1.81566
3377.87485 1.81643
3375.82641 1.81674
3373.77798 1.81733
3371.72954 1.81805
3369.68110 1.81788
3367.63266 1.81680
3365.58422 1.81679
3363.53578 1.81839
3361.48735 1.81944
3359.43891 1.81881
3357.39047 1.81811
3355.34203 1.81883
3353.29359 1.81938
3351.24515 1.81867
3349.19672 1.81843
3347.14828 1.81948
3345.09984 1.82118
3343.05140 1.82288
3341.00296 1.82360
3338.95452 1.82331
3336.90609 1.82313
3334.85765 1.82251
3332.80921 1.82103
3330.76077 1.82099
3328.71233 1.82175
3326.66389 1.82034
3324.61545 1.81912
3322.56702 1.81999
3320.51858 1.81963
3318.47014 1.81714
3316.42170 1.81623
3314.37326 1.81837
3312.32482 1.81999
3310.27639 1.81897
3308.22795 1.81721
3306.17951 1.81664
3304.13107 1.81721
3302.08263 1.81734
3300.03419 1.81639
3297.98576 1.81561
3295.93732 1.81569
3293.88888 1.81553
3291.84044 1.81522
3289.79200 1.81578
3287.74356 1.81669
3285.69513 1.81811
3283.64669 1.82020
3281.59825 1.82120
3279.54981 1.82070
3277.50137 1.82140
3275.45293 1.82376
3273.40450 1.82488
3271.35606 1.82429
3269.30762 1.82336
3267.25918 1.82145
3265.21074 1.81859
3263.16230 1.81731
3261.11387 1.81807
3259.06543 1.81938
3257.01699 1.82016
3254.96855 1.81920
3252.92011 1.81774
3250.87167 1.81785
3248.82324 1.81840
3246.77480 1.81842
3244.72636 1.81897
3242.67792 1.81929
3240.62948 1.81823
3238.58104 1.81747
3236.53261 1.81787
3234.48417 1.81888
3232.43573 1.81976
3230.38729 1.81873
3228.33885 1.81584
3226.29041 1.81382
3224.24198 1.81363
3222.19354 1.81342
3220.14510 1.81271
3218.09666 1.81228
3216.04822 1.81166
3213.99978 1.81098
3211.95135 1.81115
3209.90291 1.81143
3207.85447 1.81011
3205.80603 1.80786
3203.75759 1.80634
3201.70915 1.80557
3199.66072 1.80502
3197.61228 1.80496
3195.56384 1.80581
3193.51540 1.80612
3191.46696 1.80483
3189.41852 1.80357
3187.37008 1.80350
3185.32165 1.80485
3183.27321 1.80637
3181.22477 1.80539
3179.17633 1.80297
3177.12789 1.80202
3175.07945 1.80282
3173.03102 1.80399
3170.98258 1.80401
3168.93414 1.80313
3166.88570 1.80196
3164.83726 1.80053
3162.78882 1.79961
3160.74039 1.79943
3158.69195 1.79946
3156.64351 1.79900
3154.59507 1.79837
3152.54663 1.79821
3150.49819 1.79769
3148.44976 1.79681
3146.40132 1.79693
3144.35288 1.79783
3142.30444 1.79812
3140.25600 1.79765
3138.20756 1.79702
3136.15913 1.79661
3134.11069 1.79699
3132.06225 1.79823
3130.01381 1.79956
3127.96537 1.79965
3125.91693 1.79799
3123.86850 1.79638
3121.82006 1.79615
3119.77162 1.79637
3117.72318 1.79561
3115.67474 1.79366
3113.62630 1.79241
3111.57787 1.79251
3109.52943 1.79298
3107.48099 1.79442
3105.43255 1.79604
3103.38411 1.79566
3101.33567 1.79384
3099.28724 1.79299
3097.23880 1.79295
3095.19036 1.79226
3093.14192 1.79212
3091.09348 1.79278
3089.04504 1.79259
3086.99661 1.79171
3084.94817 1.79123
3082.89973 1.79188
3080.85129 1.79407
3078.80285 1.79617
3076.75441 1.79603
3074.70598 1.79493
3072.65754 1.79489
3070.60910 1.79532
3068.56066 1.79467
3066.51222 1.79315
3064.46378 1.79246
3062.41535 1.79285
3060.36691 1.79322
3058.31847 1.79247
3056.27003 1.79159
3054.22159 1.79276
3052.17315 1.79423
3050.12471 1.79343
3048.07628 1.79147
3046.02784 1.79044
3043.97940 1.79037
3041.93096 1.78988
3039.88252 1.78841
3037.83408 1.78701
3035.78565 1.78682
3033.73721 1.78723
3031.68877 1.78696
3029.64033 1.78554
3027.59189 1.78429
3025.54345 1.78409
3023.49502 1.78383
3021.44658 1.78392
3019.39814 1.78508
3017.34970 1.78564
3015.30126 1.78433
3013.25282 1.78294
3011.20439 1.78312
3009.15595 1.78333
3007.10751 1.78264
3005.05907 1.78219
3003.01063 1.78243
3000.96219 1.78283
2998.91376 1.78360
2996.86532 1.78452
2994.81688 1.78417
2992.76844 1.78303
2990.72000 1.78322
2988.67156 1.78378
2986.62313 1.78329
2984.57469 1.78328
2982.52625 1.78340
2980.47781 1.78275
2978.42937 1.78248
2976.38093 1.78264
2974.33250 1.78355
2972.28406 1.78517
2970.23562 1.78550
2968.18718 1.78522
2966.13874 1.78556
2964.09030 1.78577
2962.04187 1.78640
2959.99343 1.78693
2957.94499 1.78691
2955.89655 1.78737
2953.84811 1.78685
2951.79967 1.78425
2949.75124 1.78189
2947.70280 1.78114
2945.65436 1.78082
2943.60592 1.78054
2941.55748 1.78115
2939.50904 1.78287
2937.46061 1.78464
2935.41217 1.78560
2933.36373 1.78655
2931.31529 1.78687
2929.26685 1.78524
2927.21841 1.78362
2925.16998 1.78321
2923.12154 1.78274
2921.07310 1.78234
2919.02466 1.78244
2916.97622 1.78148
2914.92778 1.77954
2912.87934 1.77862
2910.83091 1.77799
2908.78247 1.77631
2906.73403 1.77478
2904.68559 1.77446
2902.63715 1.77410
2900.58871 1.77298
2898.54028 1.77158
2896.49184 1.77000
2894.44340 1.76867
2892.39496 1.76794
2890.34652 1.76796
2888.29808 1.76823
2886.24965 1.76787
2884.20121 1.76698
2882.15277 1.76623
2880.10433 1.76578
2878.05589 1.76547
2876.00745 1.76543
2873.95902 1.76619
2871.91058 1.76741
2869.86214 1.76840
2867.81370 1.76902
2865.76526 1.76869
2863.71682 1.76833
2861.66839 1.76924
2859.61995 1.77034
2857.57151 1.77029
2855.52307 1.76971
2853.47463 1.77064
2851.42619 1.77194
2849.37776 1.77055
2847.32932 1.76749
2845.28088 1.76459
2843.23244 1.76146
2841.18400 1.75856
2839.13556 1.75609
2837.08713 1.75405
2835.03869 1.75316
2832.99025 1.75255
2830.94181 1.75131
2828.89337 1.74979
2826.84493 1.74880
2824.79650 1.74858
2822.74806 1.74884
2820.69962 1.74907
2818.65118 1.74836
2816.60274 1.74699
2814.55430 1.74586
2812.50587 1.74483
2810.45743 1.74421
2808.40899 1.74495
2806.36055 1.74671
2804.31211 1.74786
2802.26367 1.74746
2800.21524 1.74698
2798.16680 1.74775
2796.11836 1.74875
2794.06992 1.74866
2792.02148 1.74821
2789.97304 1.74831
2787.92461 1.74810
2785.87617 1.74753
2783.82773 1.74728
2781.77929 1.74750
2779.73085 1.74841
2777.68241 1.74902
2775.63397 1.74871
2773.58554 1.74773
2771.53710 1.74573
2769.48866 1.74404
2767.44022 1.74395
2765.39178 1.74444
2763.34334 1.74527
2761.29491 1.74659
2759.24647 1.74751
2757.19803 1.74770
2755.14959 1.74766
2753.10115 1.74757
2751.05271 1.74781
2749.00428 1.74812
2746.95584 1.74786
2744.90740 1.74780
2742.85896 1.74874
2740.81052 1.75033
2738.76208 1.75141
2736.71365 1.75145
2734.66521 1.75162
2732.61677 1.75217
2730.56833 1.75234
2728.51989 1.75243
2726.47145 1.75292
2724.42302 1.75364
2722.37458 1.75365
2720.32614 1.75288
2718.27770 1.75261
2716.22926 1.75264
2714.18082 1.75200
2712.13239 1.75132
2710.08395 1.75147
2708.03551 1.75208
2705.98707 1.75236
2703.93863 1.75227
2701.89019 1.75242
2699.84176 1.75297
2697.79332 1.75364
2695.74488 1.75477
2693.69644 1.75608
2691.64800 1.75631
2689.59956 1.75565
2687.55113 1.75518
2685.50269 1.75545
2683.45425 1.75609
2681.40581 1.75561
2679.35737 1.75389
2677.30893 1.75273
2675.26050 1.75274
2673.21206 1.75303
2671.16362 1.75341
2669.11518 1.75402
2667.06674 1.75417
2665.01830 1.75382
2662.96987 1.75359
2660.92143 1.75350
2658.87299 1.75347
2656.82455 1.75361
2654.77611 1.75372
2652.72767 1.75407
2650.67924 1.75454
2648.63080 1.75410
2646.58236 1.75310
2644.53392 1.75251
2642.48548 1.75227
2640.43704 1.75199
2638.38860 1.75102
2636.34017 1.74936
2634.29173 1.74816
2632.24329 1.74786
2630.19485 1.74758
2628.14641 1.74654
2626.09797 1.74539
2624.04954 1.74537
2622.00110 1.74611
2619.95266 1.74694
2617.90422 1.74772
2615.85578 1.74730
2613.80734 1.74569
2611.75891 1.74442
2609.71047 1.74404
2607.66203 1.74450
2605.61359 1.74502
2603.56515 1.74418
2601.51671 1.74190
2599.46828 1.74009
2597.41984 1.74034
2595.37140 1.74171
2593.32296 1.74192
2591.27452 1.74065
2589.22608 1.73924
2587.17765 1.73792
2585.12921 1.73669
2583.08077 1.73616
2581.03233 1.73628
2578.98389 1.73650
2576.93545 1.73651
2574.88702 1.73594
2572.83858 1.73498
2570.79014 1.73461
2568.74170 1.73456
2566.69326 1.73507
2564.64482 1.73619
2562.59639 1.73599
2560.54795 1.73476
2558.49951 1.73359
2556.45107 1.73167
2554.40263 1.72966
2552.35419 1.72857
2550.30576 1.72770
2548.25732 1.72674
2546.20888 1.72596
2544.16044 1.72582
2542.11200 1.72622
2540.06356 1.72653
2538.01513 1.72732
2535.96669 1.72836
2533.91825 1.72814
2531.86981 1.72698
2529.82137 1.72615
2527.77293 1.72530
2525.72450 1.72429
2523.67606 1.72407
2521.62762 1.72400
2519.57918 1.72339
2517.53074 1.72315
2515.48230 1.72260
2513.43387 1.72072
2511.38543 1.71920
2509.33699 1.71928
2507.28855 1.72002
2505.24011 1.72041
2503.19167 1.72004
2501.14324 1.71950
2499.09480 1.71967
2497.04636 1.71980
2494.99792 1.71947
2492.94948 1.71926
2490.90104 1.71884
2488.85260 1.71815
2486.80417 1.71815
2484.75573 1.71914
2482.70729 1.71954
2480.65885 1.71805
2478.61041 1.71631
2476.56197 1.71615
2474.51354 1.71648
2472.46510 1.71574
2470.41666 1.71487
2468.36822 1.71500
2466.31978 1.71507
2464.27134 1.71451
2462.22291 1.71442
2460.17447 1.71477
2458.12603 1.71490
2456.07759 1.71439
2454.02915 1.71335
2451.98071 1.71298
2449.93228 1.71347
2447.88384 1.71400
2445.83540 1.71413
2443.78696 1.71395
2441.73852 1.71350
2439.69008 1.71270
2437.64165 1.71195
2435.59321 1.71169
2433.54477 1.71192
2431.49633 1.71219
2429.44789 1.71266
2427.39945 1.71344
2425.35102 1.71409
2423.30258 1.71459
2421.25414 1.71518
2419.20570 1.71563
2417.15726 1.71524
2415.10882 1.71458
2413.06039 1.71464
2411.01195 1.71493
2408.96351 1.71496
2406.91507 1.71557
2404.86663 1.71673
2402.81819 1.71697
2400.76976 1.71669
2398.72132 1.71678
2396.67288 1.71618
2394.62444 1.71498
2392.57600 1.71392
2390.52756 1.71270
2388.47913 1.71167
2386.43069 1.71128
2384.38225 1.71120
2382.33381 1.71138
2380.28537 1.71159
2378.23693 1.71152
2376.18850 1.71154
2374.14006 1.71115
2372.09162 1.70972
2370.04318 1.70686
2367.99474 1.70227
2365.94630 1.70006
2363.89787 1.70366
2361.84943 1.70809
2359.80099 1.70930
2357.75255 1.70917
2355.70411 1.70676
2353.65567 1.70495
2351.60723 1.70735
2349.55880 1.70997
2347.51036 1.71016
2345.46192 1.70840
2343.41348 1.70723
2341.36504 1.70881
2339.31660 1.71031
2337.26817 1.70996
2335.21973 1.70913
2333.17129 1.70798
2331.12285 1.70707
2329.07441 1.70761
2327.02597 1.71025
2324.97754 1.71228
2322.92910 1.71023
2320.88066 1.70692
2318.83222 1.70688
2316.78378 1.70900
2314.73534 1.70969
2312.68691 1.70902
2310.63847 1.70879
2308.59003 1.70863
2306.54159 1.70854
2304.49315 1.70897
2302.44471 1.70917
2300.39628 1.70958
2298.34784 1.71063
2296.29940 1.71061
2294.25096 1.70951
2292.20252 1.70910
2290.15408 1.70928
2288.10565 1.70892
2286.05721 1.70806
2284.00877 1.70792
2281.96033 1.70862
2279.91189 1.70848
2277.86345 1.70721
2275.81502 1.70637
2273.76658 1.70633
2271.71814 1.70598
2269.66970 1.70475
2267.62126 1.70404
2265.57282 1.70438
2263.52439 1.70462
2261.47595 1.70443
2259.42751 1.70393
2257.37907 1.70317
2255.33063 1.70241
2253.28219 1.70179
2251.23376 1.70131
2249.18532 1.70146
2247.13688 1.70220
2245.08844 1.70221
2243.04000 1.70114
2240.99156 1.70045
2238.94313 1.70064
2236.89469 1.70065
2234.84625 1.69987
2232.79781 1.69887
2230.74937 1.69843
2228.70093 1.69845
2226.65250 1.69862
2224.60406 1.69877
2222.55562 1.69855
2220.50718 1.69820
2218.45874 1.69842
2216.41030 1.69864
2214.36186 1.69817
2212.31343 1.69780
2210.26499 1.69743
2208.21655 1.69696
2206.16811 1.69699
2204.11967 1.69686
2202.07123 1.69642
2200.02280 1.69622
2197.97436 1.69608
2195.92592 1.69583
2193.87748 1.69560
2191.82904 1.69510
2189.78060 1.69429
2187.73217 1.69362
2185.68373 1.69303
2183.63529 1.69241
2181.58685 1.69225
2179.53841 1.69272
2177.48997 1.69314
2175.44154 1.69352
2173.39310 1.69415
2171.34466 1.69459
2169.29622 1.69506
2167.24778 1.69582
2165.19934 1.69595
2163.15091 1.69505
2161.10247 1.69404
2159.05403 1.69356
2157.00559 1.69339
2154.95715 1.69397
2152.90871 1.69521
2150.86028 1.69579
2148.81184 1.69572
2146.76340 1.69582
2144.71496 1.69577
2142.66652 1.69564
2140.61808 1.69612
2138.56965 1.69695
2136.52121 1.69738
2134.47277 1.69722
2132.42433 1.69654
2130.37589 1.69600
2128.32745 1.69624
2126.27902 1.69627
2124.23058 1.69498
2122.18214 1.69316
2120.13370 1.69168
2118.08526 1.69024
2116.03682 1.68886
2113.98839 1.68811
2111.93995 1.68806
2109.89151 1.68817
2107.84307 1.68765
2105.79463 1.68645
2103.74619 1.68599
2101.69776 1.68690
2099.64932 1.68786
2097.60088 1.68814
2095.55244 1.68910
2093.50400 1.69112
2091.45556 1.69256
2089.40713 1.69300
2087.35869 1.69340
2085.31025 1.69410
2083.26181 1.69514
2081.21337 1.69646
2079.16493 1.69753
2077.11649 1.69813
2075.06806 1.69862
2073.01962 1.69900
2070.97118 1.69916
2068.92274 1.69970
2066.87430 1.70121
2064.82586 1.70312
2062.77743 1.70430
2060.72899 1.70467
2058.68055 1.70511
2056.63211 1.70609
2054.58367 1.70705
2052.53523 1.70740
2050.48680 1.70737
2048.43836 1.70745
2046.38992 1.70743
2044.34148 1.70665
2042.29304 1.70543
2040.24460 1.70495
2038.19617 1.70504
2036.14773 1.70482
2034.09929 1.70451
2032.05085 1.70457
2030.00241 1.70501
2027.95397 1.70576
2025.90554 1.70629
2023.85710 1.70616
2021.80866 1.70579
2019.76022 1.70556
2017.71178 1.70530
2015.66334 1.70479
2013.61491 1.70435
2011.56647 1.70389
2009.51803 1.70280
2007.46959 1.70149
2005.42115 1.70042
2003.37271 1.69947
2001.32428 1.69898
1999.27584 1.69938
1997.22740 1.70014
1995.17896 1.70088
1993.13052 1.70176
1991.08208 1.70264
1989.03365 1.70295
1986.98521 1.70286
1984.93677 1.70310
1982.88833 1.70372
1980.83989 1.70444
1978.79145 1.70556
1976.74302 1.70724
1974.69458 1.70884
1972.64614 1.70993
1970.59770 1.71058
1968.54926 1.71141
1966.50082 1.71281
1964.45239 1.71381
1962.40395 1.71471
1960.35551 1.71662
1958.30707 1.71839
1956.25863 1.71868
1954.21019 1.71795
1952.16176 1.71718
1950.11332 1.71685
1948.06488 1.71680
1946.01644 1.71644
1943.96800 1.71578
1941.91956 1.71507
1939.87112 1.71442
1937.82269 1.71437
1935.77425 1.71456
1933.72581 1.71417
1931.67737 1.71363
1929.62893 1.71319
1927.58049 1.71255
1925.53206 1.71172
1923.48362 1.71087
1921.43518 1.71020
1919.38674 1.70955
1917.33830 1.70897
1915.28986 1.70863
1913.24143 1.70835
1911.19299 1.70843
1909.14455 1.70967
1907.09611 1.71159
1905.04767 1.71297
1902.99923 1.71431
1900.95080 1.71586
1898.90236 1.71674
1896.85392 1.71717
1894.80548 1.71844
1892.75704 1.72044
1890.70860 1.72254
1888.66017 1.72434
1886.61173 1.72499
1884.56329 1.72497
1882.51485 1.72548
1880.46641 1.72715
1878.41797 1.72873
1876.36954 1.72885
1874.32110 1.72847
1872.27266 1.72862
1870.22422 1.72821
1868.17578 1.72713
1866.12734 1.72759
1864.07891 1.72816
1862.03047 1.72793
1859.98203 1.72834
1857.93359 1.72909
1855.88515 1.72837
1853.83671 1.72680
1851.78828 1.72619
1849.73984 1.72646
1847.69140 1.72667
1845.64296 1.72632
1843.59452 1.72654
1841.54608 1.72732
1839.49765 1.72733
1837.44921 1.72686
1835.40077 1.72575
1833.35233 1.72370
1831.30389 1.72093
1829.25545 1.71836
1827.20702 1.71747
1825.15858 1.71724
1823.11014 1.71637
1821.06170 1.71516
1819.01326 1.71468
1816.96482 1.71586
1814.91639 1.71805
1812.86795 1.71985
1810.81951 1.72057
1808.77107 1.71978
1806.72263 1.71793
1804.67419 1.71595
1802.62575 1.71410
1800.57732 1.71238
1798.52888 1.71161
1796.48044 1.71184
1794.43200 1.71214
1792.38356 1.71263
1790.33512 1.71404
1788.28669 1.71555
1786.23825 1.71704
1784.18981 1.71908
1782.14137 1.72077
1780.09293 1.72145
1778.04449 1.72185
1775.99606 1.72199
1773.94762 1.72125
1771.89918 1.72028
1769.85074 1.72013
1767.80230 1.71941
1765.75386 1.71780
1763.70543 1.71610
1761.65699 1.71466
1759.60855 1.71324
1757.56011 1.71157
1755.51167 1.70949
1753.46323 1.70676
1751.41480 1.70430
1749.36636 1.70404
1747.31792 1.70547
1745.26948 1.70644
1743.22104 1.70662
1741.17260 1.70743
1739.12417 1.70959
1737.07573 1.71025
1735.02729 1.70927
1732.97885 1.71002
1730.93041 1.70981
1728.88197 1.70762
1726.83354 1.70565
1724.78510 1.70423
1722.73666 1.70365
1720.68822 1.70432
1718.63978 1.70617
1716.59134 1.70958
1714.54291 1.71247
1712.49447 1.71414
1710.44603 1.71620
1708.39759 1.71862
1706.34915 1.72142
1704.30071 1.72464
1702.25228 1.72684
1700.20384 1.72938
1698.15540 1.73299
1696.10696 1.73645
1694.05852 1.73992
1692.01008 1.74196
1689.96165 1.74402
1687.91321 1.74741
1685.86477 1.75185
1683.81633 1.76020
1681.76789 1.76760
1679.71945 1.77027
1677.67102 1.77095
1675.62258 1.77199
1673.57414 1.77354
1671.52570 1.77402
1669.47726 1.77571
1667.42882 1.77717
1665.38038 1.77626
1663.33195 1.77603
1661.28351 1.77771
1659.23507 1.77789
1657.18663 1.77598
1655.13819 1.77389
1653.08975 1.77543
1651.04132 1.77727
1648.99288 1.77731
1646.94444 1.78001
1644.89600 1.78174
1642.84756 1.78075
1640.79912 1.77897
1638.75069 1.77624
1636.70225 1.77428
1634.65381 1.77436
1632.60537 1.77282
1630.55693 1.77065
1628.50849 1.76990
1626.46006 1.77066
1624.41162 1.77147
1622.36318 1.77209
1620.31474 1.77187
1618.26630 1.77066
1616.21786 1.77087
1614.16943 1.77274
1612.12099 1.77389
1610.07255 1.77467
1608.02411 1.77497
1605.97567 1.77528
1603.92723 1.77656
1601.87880 1.77730
1599.83036 1.77592
1597.78192 1.77411
1595.73348 1.77357
1593.68504 1.77447
1591.63660 1.77591
1589.58817 1.77694
1587.53973 1.77839
1585.49129 1.78039
1583.44285 1.78202
1581.39441 1.78376
1579.34597 1.78593
1577.29754 1.78860
1575.24910 1.79065
1573.20066 1.78954
1571.15222 1.78713
1569.10378 1.78596
1567.05534 1.78637
1565.00691 1.78550
1562.95847 1.78351
1560.91003 1.78320
1558.86159 1.78911
1556.81315 1.79327
1554.76471 1.79295
1552.71628 1.79358
1550.66784 1.79471
1548.61940 1.79546
1546.57096 1.79616
1544.52252 1.79744
1542.47408 1.79813
1540.42565 1.79944
1538.37721 1.80149
1536.32877 1.80125
1534.28033 1.80091
1532.23189 1.80009
1530.18345 1.79851
1528.13501 1.79789
1526.08658 1.79801
1524.03814 1.79802
1521.98970 1.79885
1519.94126 1.80011
1517.89282 1.80233
1515.84438 1.80646
1513.79595 1.80850
1511.74751 1.80829
1509.69907 1.80851
1507.65063 1.80715
1505.60219 1.80204
1503.55375 1.80103
1501.50532 1.80087
1499.45688 1.79963
1497.40844 1.79680
1495.36000 1.79267
1493.31156 1.78917
1491.26312 1.78702
1489.21469 1.78701
1487.16625 1.78779
1485.11781 1.78789
1483.06937 1.78925
1481.02093 1.79257
1478.97249 1.79553
1476.92406 1.79710
1474.87562 1.79857
1472.82718 1.79950
1470.77874 1.79813
1468.73030 1.79536
1466.68186 1.79249
1464.63343 1.79006
1462.58499 1.78784
1460.53655 1.78710
1458.48811 1.78903
1456.43967 1.78896
1454.39123 1.78533
1452.34280 1.78391
1450.29436 1.78439
1448.24592 1.78538
1446.19748 1.78588
1444.14904 1.78592
1442.10060 1.78560
1440.05217 1.78479
1438.00373 1.78364
1435.95529 1.78211
1433.90685 1.78029
1431.85841 1.77877
1429.80997 1.77851
1427.76154 1.77951
1425.71310 1.78080
1423.66466 1.78215
1421.61622 1.78327
1419.56778 1.78518
1417.51934 1.78769
1415.47091 1.78822
1413.42247 1.78750
1411.37403 1.78624
1409.32559 1.78496
1407.27715 1.78495
1405.22871 1.78591
1403.18028 1.78530
1401.13184 1.78252
1399.08340 1.77875
1397.03496 1.77561
1394.98652 1.77341
1392.93808 1.77187
1390.88965 1.77114
1388.84121 1.77025
1386.79277 1.76850
1384.74433 1.76648
1382.69589 1.76461
1380.64745 1.76308
1378.59901 1.76260
1376.55058 1.76256
1374.50214 1.76019
1372.45370 1.75513
1370.40526 1.75053
1368.35682 1.74700
1366.30838 1.74429
1364.25995 1.74235
1362.21151 1.74183
1360.16307 1.74299
1358.11463 1.74438
1356.06619 1.74534
1354.01775 1.74610
1351.96932 1.74680
1349.92088 1.74696
1347.87244 1.74638
1345.82400 1.74581
1343.77556 1.74533
1341.72712 1.74420
1339.67869 1.74274
1337.63025 1.74251
1335.58181 1.74350
1333.53337 1.74412
1331.48493 1.74470
1329.43649 1.74680
1327.38806 1.74988
1325.33962 1.75248
1323.29118 1.75470
1321.24274 1.75680
1319.19430 1.75813
1317.14586 1.75853
1315.09743 1.75836
1313.04899 1.75760
1311.00055 1.75676
1308.95211 1.75660
1306.90367 1.75706
1304.85523 1.75740
1302.80680 1.75650
1300.75836 1.75412
1298.70992 1.75150
1296.66148 1.74984
1294.61304 1.74890
1292.56460 1.74819
1290.51617 1.74759
1288.46773 1.74681
1286.41929 1.74639
1284.37085 1.74695
1282.32241 1.74800
1280.27397 1.74880
1278.22554 1.74979
1276.17710 1.75151
1274.12866 1.75344
1272.08022 1.75513
1270.03178 1.75681
1267.98334 1.75863
1265.93491 1.76034
1263.88647 1.76184
1261.83803 1.76322
1259.78959 1.76477
1257.74115 1.76686
1255.69271 1.76922
1253.64428 1.77165
1251.59584 1.77432
1249.54740 1.77698
1247.49896 1.77888
1245.45052 1.78026
1243.40208 1.78191
1241.35364 1.78316
1239.30521 1.78381
1237.25677 1.78533
1235.20833 1.78796
1233.15989 1.79082
1231.11145 1.79402
1229.06301 1.79741
1227.01458 1.80052
1224.96614 1.80320
1222.91770 1.80481
1220.86926 1.80488
1218.82082 1.80440
1216.77238 1.80459
1214.72395 1.80511
1212.67551 1.80547
1210.62707 1.80624
1208.57863 1.80733
1206.53019 1.80811
1204.48175 1.80892
1202.43332 1.81004
1200.38488 1.81130
1198.33644 1.81290
1196.28800 1.81489
1194.23956 1.81689
1192.19112 1.81868
1190.14269 1.82127
1188.09425 1.82491
1186.04581 1.82823
1183.99737 1.83088
1181.94893 1.83309
1179.90049 1.83529
1177.85206 1.83790
1175.80362 1.84021
1173.75518 1.84142
1171.70674 1.84173
1169.65830 1.84258
1167.60986 1.84468
1165.56143 1.84733
1163.51299 1.84954
1161.46455 1.85137
1159.41611 1.85381
1157.36767 1.85634
1155.31923 1.85795
1153.27080 1.85889
1151.22236 1.85994
1149.17392 1.86179
1147.12548 1.86423
1145.07704 1.86658
1143.02860 1.86919
1140.98017 1.87196
1138.93173 1.87381
1136.88329 1.87471
1134.83485 1.87512
1132.78641 1.87581
1130.73797 1.87695
1128.68954 1.87689
1126.64110 1.87533
1124.59266 1.87493
1122.54422 1.87659
1120.49578 1.87766
1118.44734 1.87718
1116.39891 1.87672
1114.35047 1.87678
1112.30203 1.87721
1110.25359 1.87847
1108.20515 1.88075
1106.15671 1.88311
1104.10827 1.88421
1102.05984 1.88399
1100.01140 1.88349
1097.96296 1.88362
1095.91452 1.88371
1093.86608 1.88289
1091.81764 1.88184
1089.76921 1.88103
1087.72077 1.88069
1085.67233 1.88112
1083.62389 1.88246
1081.57545 1.88457
1079.52701 1.88625
1077.47858 1.88627
1075.43014 1.88506
1073.38170 1.88427
1071.33326 1.88436
1069.28482 1.88377
1067.23638 1.88294
1065.18795 1.88290
1063.13951 1.88173
1061.09107 1.87946
1059.04263 1.87753
1056.99419 1.87568
1054.94575 1.87434
1052.89732 1.87328
1050.84888 1.87132
1048.80044 1.86916
1046.75200 1.86727
1044.70356 1.86458
1042.65512 1.86170
1040.60669 1.86043
1038.55825 1.86142
1036.50981 1.86353
1034.46137 1.86460
1032.41293 1.86399
1030.36449 1.86309
1028.31606 1.86322
1026.26762 1.86467
1024.21918 1.86641
1022.17074 1.86804
1020.12230 1.86996
1018.07386 1.87089
1016.02543 1.87081
1013.97699 1.87110
1011.92855 1.87169
1009.88011 1.87291
1007.83167 1.87488
1005.78323 1.87690
1003.73480 1.87850
1001.68636 1.87900
999.63792 1.87973
997.58948 1.88290
995.54104 1.88670
993.49260 1.88914
991.44417 1.89137
989.39573 1.89433
987.34729 1.89754
985.29885 1.90039
983.25041 1.90359
981.20197 1.90668
979.15354 1.90896
977.10510 1.91193
975.05666 1.91579
973.00822 1.91924
970.95978 1.92145
968.91134 1.92434
966.86290 1.92902
964.81447 1.93302
962.76603 1.93591
960.71759 1.93832
958.66915 1.94037
956.62071 1.94280
954.57227 1.94502
952.52384 1.94686
950.47540 1.94975
948.42696 1.95234
946.37852 1.95196
944.33008 1.95047
942.28164 1.95104
940.23321 1.95407
938.18477 1.95682
936.13633 1.95620
934.08789 1.95435
932.03945 1.95514
929.99101 1.95746
927.94258 1.96012
925.89414 1.96285
923.84570 1.96372
921.79726 1.96440
919.74882 1.96655
917.70038 1.96939
915.65195 1.97199
913.60351 1.97357
911.55507 1.97586
909.50663 1.97756
907.45819 1.97661
905.40975 1.97686
903.36132 1.97946
901.31288 1.98110
899.26444 1.98247
897.21600 1.98478
895.16756 1.98625
893.11912 1.98750
891.07069 1.99083
889.02225 1.99577
886.97381 1.99992
884.92537 2.00231
882.87693 2.00379
880.82849 2.00580
878.78006 2.00880
876.73162 2.01090
874.68318 2.01088
872.63474 2.00909
870.58630 2.00543
868.53786 2.00278
866.48943 2.00507
864.44099 2.00856
862.39255 2.00856
860.34411 2.00921
858.29567 2.01192
856.24723 2.01238
854.19880 2.01076
852.15036 2.00957
850.10192 2.01093
848.05348 2.01455
846.00504 2.01736
843.95660 2.02047
841.90817 2.02554
839.85973 2.02921
837.81129 2.03086
835.76285 2.03368
833.71441 2.03809
831.66597 2.04280
829.61753 2.04777
827.56910 2.05427
825.52066 2.06451
823.47222 2.07770
821.42378 2.08766
819.37534 2.09208
817.32690 2.09601
815.27847 2.10533
813.23003 2.12160
811.18159 2.13654
809.13315 2.14467
807.08471 2.15108
805.03627 2.15787
802.98784 2.16516
800.93940 2.17294
798.89096 2.18029
796.84252 2.18741
794.79408 2.19277
792.74564 2.19374
790.69721 2.19380
788.64877 2.20138
786.60033 2.21185
784.55189 2.21720
782.50345 2.22460
780.45501 2.23599
778.40658 2.24108
776.35814 2.24207
774.30970 2.25065
772.26126 2.26286
770.21282 2.26936
768.16438 2.27480
766.11595 2.28689
764.06751 2.29959
762.01907 2.30884
759.97063 2.31989
757.92219 2.33002
755.87375 2.34348
753.82532 2.35909
751.77688 2.36311
749.72844 2.36145
747.68000 2.36714
745.63156 2.38433
743.58312 2.40962
741.53469 2.43557
739.48625 2.45644
737.43781 2.46641
735.38937 2.46616
733.34093 2.46762
731.29249 2.47941
729.24406 2.50055
727.19562 2.52602
725.14718 2.55144
723.09874 2.57117
721.05030 2.57457
719.00186 2.57238
716.95343 2.59249
714.90499 2.62479
712.85655 2.64586
710.80811 2.68126
708.75967 2.73936
706.71123 2.78617
704.66280 2.82604
702.61436 2.86912
700.56592 2.88071
698.51748 2.85010
696.46904 2.82383
694.42060 2.79772
692.37216 2.77111
690.32373 2.77313
688.27529 2.77452
686.22685 2.76467
684.17841 2.77483
682.12997 2.80853
680.08153 2.77860
678.03310 2.65067
675.98466 2.54341
673.93622 2.49230
671.88778 2.45693
669.83934 2.38218
667.79090 2.24938
665.74247 2.14681
663.69403 2.05835
661.64559 1.95697
659.59715 1.85712
657.54871 1.76895
655.50027 1.69576
653.45184 1.63668
651.40340 1.58664
649.35496 1.54007
647.30652 1.49907
645.25808 1.47007
643.20964 1.45251
641.16121 1.43617
639.11277 1.41653
637.06433 1.39497
635.01589 1.37036
632.96745 1.35012
630.91901 1.34068
628.87058 1.33444
626.82214 1.31943
624.77370 1.29700
622.72526 1.27680
620.67682 1.25974
618.62838 1.24119
616.57995 1.22383
614.53151 1.21197
612.48307 1.20168
610.43463 1.19115
608.38619 1.18375
606.33775 1.17585
604.28932 1.16343
602.24088 1.15594
600.19244 1.15500
598.14400 1.14994
