3996.50324 2.12616
3994.45480 2.13002
3992.40636 2.13116
3990.35792 2.12960
3988.30948 2.12865
3986.26104 2.12753
3984.21261 2.12864
3982.16417 2.13510
3980.11573 2.14179
3978.06729 2.14472
3976.01885 2.14404
3973.97041 2.14194
3971.92198 2.14257
3969.87354 2.14569
3967.82510 2.14820
3965.77666 2.14896
3963.72822 2.14977
3961.67978 2.15225
3959.63135 2.15340
3957.58291 2.15285
3955.53447 2.15534
3953.48603 2.15697
3951.43759 2.15276
3949.38915 2.14897
3947.34072 2.14746
3945.29228 2.14534
3943.24384 2.14584
3941.19540 2.14751
3939.14696 2.14631
3937.09852 2.14612
3935.05009 2.14856
3933.00165 2.14947
3930.95321 2.14661
3928.90477 2.14350
3926.85633 2.14323
3924.80789 2.14721
3922.75946 2.15048
3920.71102 2.14368
3918.66258 2.13185
3916.61414 2.12628
3914.56570 2.12674
3912.51726 2.12888
3910.46883 2.13130
3908.42039 2.13393
3906.37195 2.13721
3904.32351 2.13918
3902.27507 2.13643
3900.22663 2.13104
3898.17820 2.12832
3896.12976 2.13015
3894.08132 2.13359
3892.03288 2.13688
3889.98444 2.13820
3887.93600 2.13608
3885.88756 2.13445
3883.83913 2.13732
3881.79069 2.14135
3879.74225 2.14290
3877.69381 2.14184
3875.64537 2.14001
3873.59693 2.14002
3871.54850 2.14403
3869.50006 2.14644
3867.45162 2.14471
3865.40318 2.14358
3863.35474 2.14464
3861.30630 2.14473
3859.25787 2.14204
3857.20943 2.13969
3855.16099 2.14160
3853.11255 2.15067
3851.06411 2.15263
3849.01567 2.15018
3846.96724 2.14917
3844.91880 2.14904
3842.87036 2.14878
3840.82192 2.14291
3838.77348 2.13308
3836.72504 2.13406
3834.67661 2.14131
3832.62817 2.14115
3830.57973 2.13123
3828.53129 2.12408
3826.48285 2.12700
3824.43441 2.13026
3822.38598 2.12775
3820.33754 2.12818
3818.28910 2.13327
3816.24066 2.13204
3814.19222 2.12433
3812.14378 2.11834
3810.09535 2.11343
3808.04691 2.10893
3805.99847 2.10660
3803.95003 2.10511
3801.90159 2.10527
3799.85315 2.10698
3797.80472 2.10550
3795.75628 2.10321
3793.70784 2.10150
3791.65940 2.09969
3789.61096 2.09902
3787.56252 2.10080
3785.51409 2.10375
3783.46565 2.10245
3781.41721 2.09855
3779.36877 2.09950
3777.32033 2.10338
3775.27189 2.10559
3773.22346 2.10879
3771.17502 2.11268
3769.12658 2.11152
3767.07814 2.10705
3765.02970 2.10470
3762.98126 2.10231
3760.93283 2.09880
3758.88439 2.10024
3756.83595 2.10918
3754.78751 2.11710
3752.73907 2.12262
3750.69063 2.12754
3748.64219 2.12543
3746.59376 2.12134
3744.54532 2.12521
3742.49688 2.13148
3740.44844 2.13253
3738.40000 2.13388
3736.35156 2.13331
3734.30313 2.12843
3732.25469 2.12785
3730.20625 2.12721
3728.15781 2.12595
3726.10937 2.12750
3724.06093 2.12810
3722.01250 2.12554
3719.96406 2.12778
3717.91562 2.13251
3715.86718 2.13273
3713.81874 2.12724
3711.77030 2.11763
3709.72187 2.11973
3707.67343 2.13028
3705.62499 2.13571
3703.57655 2.14000
3701.52811 2.14422
3699.47967 2.14119
3697.43124 2.13591
3695.38280 2.13183
3693.33436 2.12825
3691.28592 2.12809
3689.23748 2.12747
3687.18904 2.12346
3685.14061 2.12360
3683.09217 2.12657
3681.04373 2.12778
3678.99529 2.12600
3676.94685 2.12581
3674.89841 2.13362
3672.84998 2.14392
3670.80154 2.15323
3668.75310 2.15813
3666.70466 2.15508
3664.65622 2.15271
3662.60778 2.15347
3660.55935 2.15484
3658.51091 2.15726
3656.46247 2.16375
3654.41403 2.16940
3652.36559 2.16823
3650.31715 2.16568
3648.26872 2.18047
3646.22028 2.19706
3644.17184 2.20043
3642.12340 2.20277
3640.07496 2.21052
3638.02652 2.21766
3635.97809 2.22046
3633.92965 2.22283
3631.88121 2.22447
3629.83277 2.22579
3627.78433 2.22889
3625.73589 2.23205
3623.68746 2.23423
3621.63902 2.23375
3619.59058 2.23461
3617.54214 2.23691
3615.49370 2.23468
3613.44526 2.23337
3611.39682 2.23328
3609.34839 2.23048
3607.29995 2.23289
3605.25151 2.23734
3603.20307 2.23168
3601.15463 2.22075
3599.10619 2.21290
3597.05776 2.20826
3595.00932 2.20908
3592.96088 2.21306
3590.91244 2.21442
3588.86400 2.21552
3586.81556 2.21378
3584.76713 2.21016
3582.71869 2.21189
3580.67025 2.21117
3578.62181 2.20621
3576.57337 2.20642
3574.52493 2.21011
3572.47650 2.21259
3570.42806 2.21241
3568.37962 2.20904
3566.33118 2.21001
3564.28274 2.21690
3562.23430 2.22339
3560.18587 2.22754
3558.13743 2.22482
3556.08899 2.22028
3554.04055 2.22209
3551.99211 2.22655
3549.94367 2.22923
3547.89524 2.23417
3545.84680 2.23955
3543.79836 2.23996
3541.74992 2.24208
3539.70148 2.24868
3537.65304 2.25571
3535.60461 2.25768
3533.55617 2.25443
3531.50773 2.25484
3529.45929 2.26143
3527.41085 2.27258
3525.36241 2.28489
3523.31398 2.29050
3521.26554 2.28982
3519.21710 2.28791
3517.16866 2.28685
3515.12022 2.28809
3513.07178 2.28796
3511.02335 2.28473
3508.97491 2.28017
3506.92647 2.27251
3504.87803 2.26352
3502.82959 2.25976
3500.78115 2.26511
3498.73272 2.27199
3496.68428 2.27276
3494.63584 2.26849
3492.58740 2.26363
3490.53896 2.25821
3488.49052 2.25235
3486.44209 2.25117
3484.39365 2.25179
3482.34521 2.24740
3480.29677 2.24115
3478.24833 2.23845
3476.19989 2.23691
3474.15146 2.23462
3472.10302 2.23501
3470.05458 2.23784
3468.00614 2.23990
3465.95770 2.23908
3463.90926 2.23602
3461.86082 2.23487
3459.81239 2.23530
3457.76395 2.23593
3455.71551 2.24118
3453.66707 2.24810
3451.61863 2.24812
3449.57019 2.24406
3447.52176 2.24545
3445.47332 2.25317
3443.42488 2.25892
3441.37644 2.26020
3439.32800 2.25708
3437.27956 2.25122
3435.23113 2.24894
3433.18269 2.25338
3431.13425 2.26251
3429.08581 2.27053
3427.03737 2.27262
3424.98893 2.27072
3422.94050 2.27158
3420.89206 2.27919
3418.84362 2.28891
3416.79518 2.29838
3414.74674 2.30738
3412.69830 2.30826
3410.64987 2.30379
3408.60143 2.30233
3406.55299 2.30336
3404.50455 2.30529
3402.45611 2.30436
3400.40767 2.29973
3398.35924 2.29681
3396.31080 2.29718
3394.26236 2.29629
3392.21392 2.29395
3390.16548 2.29148
3388.11704 2.28502
3386.06861 2.27901
3384.02017 2.27836
3381.97173 2.27616
3379.92329 2.26953
3377.87485 2.26286
3375.82641 2.26044
3373.77798 2.26265
3371.72954 2.26086
3369.68110 2.25178
3367.63266 2.24509
3365.58422 2.24484
3363.53578 2.24781
3361.48735 2.25050
3359.43891 2.24778
3357.39047 2.23974
3355.34203 2.23232
3353.29359 2.22859
3351.24515 2.22782
3349.19672 2.22897
3347.14828 2.23204
3345.09984 2.23715
3343.05140 2.24081
3341.00296 2.23959
3338.95452 2.23799
3336.90609 2.23975
3334.85765 2.24234
3332.80921 2.24560
3330.76077 2.25048
3328.71233 2.25372
3326.66389 2.25502
3324.61545 2.25495
3322.56702 2.25085
3320.51858 2.24724
3318.47014 2.25052
3316.42170 2.25882
3314.37326 2.26500
3312.32482 2.26753
3310.27639 2.27091
3308.22795 2.27648
3306.17951 2.28166
3304.13107 2.28216
3302.08263 2.27842
3300.03419 2.27411
3297.98576 2.27096
3295.93732 2.26851
3293.88888 2.26701
3291.84044 2.26746
3289.79200 2.26695
3287.74356 2.26490
3285.69513 2.26283
3283.64669 2.26008
3281.59825 2.25714
3279.54981 2.25515
3277.50137 2.25261
3275.45293 2.24478
3273.40450 2.23329
3271.35606 2.22702
3269.30762 2.22637
3267.25918 2.22491
3265.21074 2.22254
3263.16230 2.22253
3261.11387 2.22375
3259.06543 2.21926
3257.01699 2.20858
3254.96855 2.20223
3252.92011 2.20111
3250.87167 2.20054
3248.82324 2.20344
3246.77480 2.20779
3244.72636 2.20819
3242.67792 2.20606
3240.62948 2.20396
3238.58104 2.20354
3236.53261 2.20427
3234.48417 2.20473
3232.43573 2.20650
3230.38729 2.20840
3228.33885 2.20761
3226.29041 2.20719
3224.24198 2.21153
3222.19354 2.21718
3220.14510 2.21789
3218.09666 2.21408
3216.04822 2.21225
3213.99978 2.21692
3211.95135 2.22348
3209.90291 2.22595
3207.85447 2.22600
3205.80603 2.22939
3203.75759 2.23764
3201.70915 2.24487
3199.66072 2.24617
3197.61228 2.24393
3195.56384 2.24304
3193.51540 2.24480
3191.46696 2.24812
3189.41852 2.25010
3187.37008 2.24768
3185.32165 2.24452
3183.27321 2.24586
3181.22477 2.24942
3179.17633 2.24947
3177.12789 2.24658
3175.07945 2.24559
3173.03102 2.24623
3170.98258 2.24531
3168.93414 2.24047
3166.88570 2.23308
3164.83726 2.22610
3162.78882 2.22076
3160.74039 2.21960
3158.69195 2.21891
3156.64351 2.21241
3154.59507 2.20469
3152.54663 2.20353
3150.49819 2.20689
3148.44976 2.20595
3146.40132 2.19883
3144.35288 2.19141
3142.30444 2.18820
3140.25600 2.18775
3138.20756 2.18667
3136.15913 2.18614
3134.11069 2.18572
3132.06225 2.18367
3130.01381 2.18430
3127.96537 2.18763
3125.91693 2.18971
3123.86850 2.19278
3121.82006 2.19610
3119.77162 2.19639
3117.72318 2.19522
3115.67474 2.19355
3113.62630 2.19365
3111.57787 2.19675
3109.52943 2.19916
3107.48099 2.19999
3105.43255 2.20148
3103.38411 2.20503
3101.33567 2.20946
3099.28724 2.21210
3097.23880 2.21172
3095.19036 2.20995
3093.14192 2.21135
3091.09348 2.21513
3089.04504 2.21687
3086.99661 2.21658
3084.94817 2.21519
3082.89973 2.21342
3080.85129 2.21287
3078.80285 2.21254
3076.75441 2.21081
3074.70598 2.20904
3072.65754 2.20796
3070.60910 2.20769
3068.56066 2.20844
3066.51222 2.20825
3064.46378 2.20525
3062.41535 2.20179
3060.36691 2.19973
3058.31847 2.19576
3056.27003 2.18875
3054.22159 2.18148
3052.17315 2.17550
3050.12471 2.17204
3048.07628 2.17024
3046.02784 2.16593
3043.97940 2.15885
3041.93096 2.15378
3039.88252 2.15189
3037.83408 2.14993
3035.78565 2.14648
3033.73721 2.14212
3031.68877 2.13881
3029.64033 2.13742
3027.59189 2.13507
3025.54345 2.13226
3023.49502 2.13169
3021.44658 2.13096
3019.39814 2.12810
3017.34970 2.12673
3015.30126 2.12789
3013.25282 2.12759
3011.20439 2.12719
3009.15595 2.13048
3007.10751 2.13401
3005.05907 2.13554
3003.01063 2.13748
3000.96219 2.13877
2998.91376 2.13854
2996.86532 2.13885
2994.81688 2.14024
2992.76844 2.14167
2990.72000 2.14307
2988.67156 2.14643
2986.62313 2.15106
2984.57469 2.15295
2982.52625 2.15402
2980.47781 2.15725
2978.42937 2.15932
2976.38093 2.15983
2974.33250 2.16079
2972.28406 2.16276
2970.23562 2.16571
2968.18718 2.16670
2966.13874 2.16539
2964.09030 2.16557
2962.04187 2.16786
2959.99343 2.16864
2957.94499 2.16701
2955.89655 2.16529
2953.84811 2.16279
2951.79967 2.15922
2949.75124 2.15737
2947.70280 2.15506
2945.65436 2.14960
2943.60592 2.14555
2941.55748 2.14415
2939.50904 2.14121
2937.46061 2.13719
2935.41217 2.13600
2933.36373 2.13708
2931.31529 2.13629
2929.26685 2.13354
2927.21841 2.13192
2925.16998 2.13104
2923.12154 2.12931
2921.07310 2.12732
2919.02466 2.12524
2916.97622 2.12268
2914.92778 2.12086
2912.87934 2.12121
2910.83091 2.12171
2908.78247 2.11803
2906.73403 2.11106
2904.68559 2.10781
2902.63715 2.11026
2900.58871 2.11173
2898.54028 2.11018
2896.49184 2.11088
2894.44340 2.11370
2892.39496 2.11550
2890.34652 2.11857
2888.29808 2.12259
2886.24965 2.12465
2884.20121 2.12617
2882.15277 2.12764
2880.10433 2.12941
2878.05589 2.13336
2876.00745 2.13752
2873.95902 2.13828
2871.91058 2.13831
2869.86214 2.14183
2867.81370 2.14458
2865.76526 2.14447
2863.71682 2.14550
2861.66839 2.14763
2859.61995 2.14986
2857.57151 2.15078
2855.52307 2.14950
2853.47463 2.14786
2851.42619 2.14512
2849.37776 2.14140
2847.32932 2.13854
2845.28088 2.13544
2843.23244 2.13152
2841.18400 2.12733
2839.13556 2.12253
2837.08713 2.11746
2835.03869 2.11361
2832.99025 2.11053
2830.94181 2.10584
2828.89337 2.09961
2826.84493 2.09431
2824.79650 2.09188
2822.74806 2.09093
2820.69962 2.08783
2818.65118 2.08382
2816.60274 2.08143
2814.55430 2.07843
2812.50587 2.07436
2810.45743 2.07157
2808.40899 2.06982
2806.36055 2.06775
2804.31211 2.06545
2802.26367 2.06449
2800.21524 2.06484
2798.16680 2.06387
2796.11836 2.06170
2794.06992 2.06086
2792.02148 2.06183
2789.97304 2.06197
2787.92461 2.06074
2785.87617 2.06111
2783.82773 2.06312
2781.77929 2.06474
2779.73085 2.06583
2777.68241 2.06719
2775.63397 2.06725
2773.58554 2.06658
2771.53710 2.06801
2769.48866 2.07002
2767.44022 2.07159
2765.39178 2.07329
2763.34334 2.07486
2761.29491 2.07656
2759.24647 2.07960
2757.19803 2.08349
2755.14959 2.08511
2753.10115 2.08312
2751.05271 2.07982
2749.00428 2.07958
2746.95584 2.08326
2744.90740 2.08642
2742.85896 2.08515
2740.81052 2.08072
2738.76208 2.07749
2736.71365 2.07617
2734.66521 2.07426
2732.61677 2.07087
2730.56833 2.06665
2728.51989 2.06276
2726.47145 2.05994
2724.42302 2.05710
2722.37458 2.05355
2720.32614 2.05035
2718.27770 2.04725
2716.22926 2.04289
2714.18082 2.03868
2712.13239 2.03644
2710.08395 2.03607
2708.03551 2.03594
2705.98707 2.03322
2703.93863 2.02905
2701.89019 2.02731
2699.84176 2.02652
2697.79332 2.02343
2695.74488 2.02074
2693.69644 2.01990
2691.64800 2.01813
2689.59956 2.01662
2687.55113 2.01800
2685.50269 2.02083
2683.45425 2.02161
2681.40581 2.02069
2679.35737 2.02189
2677.30893 2.02544
2675.26050 2.02877
2673.21206 2.03029
2671.16362 2.02955
2669.11518 2.02870
2667.06674 2.03039
2665.01830 2.03303
2662.96987 2.03549
2660.92143 2.03899
2658.87299 2.04164
2656.82455 2.04320
2654.77611 2.04553
2652.72767 2.04758
2650.67924 2.04877
2648.63080 2.04943
2646.58236 2.04950
2644.53392 2.05072
2642.48548 2.05312
2640.43704 2.05367
2638.38860 2.05210
2636.34017 2.04952
2634.29173 2.04685
2632.24329 2.04505
2630.19485 2.04389
2628.14641 2.04336
2626.09797 2.04283
2624.04954 2.04024
2622.00110 2.03530
2619.95266 2.03174
2617.90422 2.03017
2615.85578 2.02750
2613.80734 2.02361
2611.75891 2.01911
2609.71047 2.01452
2607.66203 2.01054
2605.61359 2.00743
2603.56515 2.00440
2601.51671 1.99960
2599.46828 1.99480
2597.41984 1.99264
2595.37140 1.99171
2593.32296 1.99107
2591.27452 1.99056
2589.22608 1.98848
2587.17765 1.98526
2585.12921 1.98298
2583.08077 1.98145
2581.03233 1.98030
2578.98389 1.98064
2576.93545 1.98239
2574.88702 1.98374
2572.83858 1.98332
2570.79014 1.98227
2568.74170 1.98241
2566.69326 1.98384
2564.64482 1.98558
2562.59639 1.98758
2560.54795 1.99014
2558.49951 1.99194
2556.45107 1.99269
2554.40263 1.99360
2552.35419 1.99532
2550.30576 1.99656
2548.25732 1.99613
2546.20888 1.99609
2544.16044 1.99751
2542.11200 1.99830
2540.06356 1.99837
2538.01513 1.99891
2535.96669 1.99908
2533.91825 1.99895
2531.86981 1.99941
2529.82137 1.99983
2527.77293 1.99936
2525.72450 1.99824
2523.67606 1.99613
2521.62762 1.99255
2519.57918 1.98911
2517.53074 1.98656
2515.48230 1.98360
2513.43387 1.98097
2511.38543 1.97980
2509.33699 1.97771
2507.28855 1.97452
2505.24011 1.97218
2503.19167 1.96998
2501.14324 1.96698
2499.09480 1.96257
2497.04636 1.95814
2494.99792 1.95557
2492.94948 1.95421
2490.90104 1.95329
2488.85260 1.95207
2486.80417 1.95025
2484.75573 1.94871
2482.70729 1.94778
2480.65885 1.94728
2478.61041 1.94732
2476.56197 1.94838
2474.51354 1.94982
2472.46510 1.95054
2470.41666 1.95176
2468.36822 1.95333
2466.31978 1.95313
2464.27134 1.95159
2462.22291 1.95125
2460.17447 1.95307
2458.12603 1.95482
2456.07759 1.95586
2454.02915 1.95802
2451.98071 1.96076
2449.93228 1.96275
2447.88384 1.96479
2445.83540 1.96708
2443.78696 1.96906
2441.73852 1.97189
2439.69008 1.97428
2437.64165 1.97408
2435.59321 1.97402
2433.54477 1.97598
2431.49633 1.97747
2429.44789 1.97773
2427.39945 1.97799
2425.35102 1.97788
2423.30258 1.97859
2421.25414 1.98063
2419.20570 1.98128
2417.15726 1.98012
2415.10882 1.97852
2413.06039 1.97712
2411.01195 1.97493
2408.96351 1.97124
2406.91507 1.96841
2404.86663 1.96672
2402.81819 1.96397
2400.76976 1.96075
2398.72132 1.95888
2396.67288 1.95772
2394.62444 1.95596
2392.57600 1.95461
2390.52756 1.95382
2388.47913 1.95178
2386.43069 1.94935
2384.38225 1.94726
2382.33381 1.94503
2380.28537 1.94349
2378.23693 1.94198
2376.18850 1.94042
2374.14006 1.94035
2372.09162 1.94268
2370.04318 1.94932
2367.99474 1.95515
2365.94630 1.94795
2363.89787 1.93437
2361.84943 1.93236
2359.80099 1.93640
2357.75255 1.93374
2355.70411 1.92965
2353.65567 1.93225
2351.60723 1.93666
2349.55880 1.93677
2347.51036 1.93473
2345.46192 1.93418
2343.41348 1.93538
2341.36504 1.93544
2339.31660 1.93546
2337.26817 1.93753
2335.21973 1.93969
2333.17129 1.93951
2331.12285 1.93895
2329.07441 1.94092
2327.02597 1.94389
2324.97754 1.94626
2322.92910 1.94730
2320.88066 1.94640
2318.83222 1.94670
2316.78378 1.94893
2314.73534 1.94925
2312.68691 1.94703
2310.63847 1.94486
2308.59003 1.94434
2306.54159 1.94442
2304.49315 1.94279
2302.44471 1.93955
2300.39628 1.93623
2298.34784 1.93322
2296.29940 1.93080
2294.25096 1.92934
2292.20252 1.92784
2290.15408 1.92525
2288.10565 1.92321
2286.05721 1.92231
2284.00877 1.92003
2281.96033 1.91630
2279.91189 1.91272
2277.86345 1.91047
2275.81502 1.91050
2273.76658 1.91109
2271.71814 1.91094
2269.66970 1.91058
2267.62126 1.90977
2265.57282 1.90819
2263.52439 1.90640
2261.47595 1.90547
2259.42751 1.90547
2257.37907 1.90601
2255.33063 1.90675
2253.28219 1.90673
2251.23376 1.90603
2249.18532 1.90545
2247.13688 1.90463
2245.08844 1.90452
2243.04000 1.90640
2240.99156 1.90945
2238.94313 1.91163
2236.89469 1.91141
2234.84625 1.91067
2232.79781 1.91144
2230.74937 1.91270
2228.70093 1.91381
2226.65250 1.91531
2224.60406 1.91755
2222.55562 1.92080
2220.50718 1.92345
2218.45874 1.92409
2216.41030 1.92499
2214.36186 1.92607
2212.31343 1.92565
2210.26499 1.92571
2208.21655 1.92683
2206.16811 1.92738
2204.11967 1.92700
2202.07123 1.92649
2200.02280 1.92679
2197.97436 1.92666
2195.92592 1.92493
2193.87748 1.92256
2191.82904 1.92030
2189.78060 1.91913
2187.73217 1.91919
2185.68373 1.91805
2183.63529 1.91440
2181.58685 1.91136
2179.53841 1.91005
2177.48997 1.90783
2175.44154 1.90565
2173.39310 1.90534
2171.34466 1.90504
2169.29622 1.90396
2167.24778 1.90384
2165.19934 1.90466
2163.15091 1.90504
2161.10247 1.90522
2159.05403 1.90604
2157.00559 1.90682
2154.95715 1.90704
2152.90871 1.90740
2150.86028 1.90797
2148.81184 1.90803
2146.76340 1.90767
2144.71496 1.90844
2142.66652 1.91036
2140.61808 1.91191
2138.56965 1.91314
2136.52121 1.91449
2134.47277 1.91542
2132.42433 1.91619
2130.37589 1.91743
2128.32745 1.91854
2126.27902 1.91974
2124.23058 1.92065
2122.18214 1.91982
2120.13370 1.91874
2118.08526 1.91944
2116.03682 1.92096
2113.98839 1.92154
2111.93995 1.92073
2109.89151 1.91979
2107.84307 1.91961
2105.79463 1.91959
2103.74619 1.91934
2101.69776 1.91818
2099.64932 1.91557
2097.60088 1.91287
2095.55244 1.91126
2093.50400 1.90986
2091.45556 1.90839
2089.40713 1.90660
2087.35869 1.90368
2085.31025 1.90158
2083.26181 1.90119
2081.21337 1.89956
2079.16493 1.89607
2077.11649 1.89222
2075.06806 1.88876
2073.01962 1.88671
2070.97118 1.88517
2068.92274 1.88281
2066.87430 1.88120
2064.82586 1.88104
2062.77743 1.88019
2060.72899 1.87860
2058.68055 1.87830
2056.63211 1.87839
2054.58367 1.87736
2052.53523 1.87638
2050.48680 1.87674
2048.43836 1.87769
2046.38992 1.87808
2044.34148 1.87792
2042.29304 1.87814
2040.24460 1.87916
2038.19617 1.87979
2036.14773 1.87999
2034.09929 1.88062
2032.05085 1.88089
2030.00241 1.88032
2027.95397 1.88042
2025.90554 1.88111
2023.85710 1.88046
2021.80866 1.87927
2019.76022 1.87962
2017.71178 1.88150
2015.66334 1.88287
2013.61491 1.88192
2011.56647 1.88044
2009.51803 1.88018
2007.46959 1.87981
2005.42115 1.87911
2003.37271 1.87906
2001.32428 1.87979
1999.27584 1.88070
1997.22740 1.88093
1995.17896 1.88066
1993.13052 1.87953
1991.08208 1.87719
1989.03365 1.87524
1986.98521 1.87428
1984.93677 1.87357
1982.88833 1.87306
1980.83989 1.87284
1978.79145 1.87260
1976.74302 1.87182
1974.69458 1.87038
1972.64614 1.86919
1970.59770 1.86906
1968.54926 1.86915
1966.50082 1.86860
1964.45239 1.86815
1962.40395 1.86807
1960.35551 1.86874
1958.30707 1.87037
1956.25863 1.87165
1954.21019 1.87257
1952.16176 1.87351
1950.11332 1.87350
1948.06488 1.87341
1946.01644 1.87419
1943.96800 1.87517
1941.91956 1.87635
1939.87112 1.87644
1937.82269 1.87426
1935.77425 1.87153
1933.72581 1.87034
1931.67737 1.86988
1929.62893 1.86806
1927.58049 1.86517
1925.53206 1.86264
1923.48362 1.86141
1921.43518 1.86143
1919.38674 1.86059
1917.33830 1.85877
1915.28986 1.85839
1913.24143 1.85886
1911.19299 1.85916
1909.14455 1.85992
1907.09611 1.86127
1905.04767 1.86281
1902.99923 1.86380
1900.95080 1.86385
1898.90236 1.86351
1896.85392 1.86342
1894.80548 1.86436
1892.75704 1.86567
1890.70860 1.86572
1888.66017 1.86534
1886.61173 1.86557
1884.56329 1.86574
1882.51485 1.86526
1880.46641 1.86430
1878.41797 1.86390
1876.36954 1.86351
1874.32110 1.86195
1872.27266 1.85988
1870.22422 1.85841
1868.17578 1.85839
1866.12734 1.85858
1864.07891 1.85762
1862.03047 1.85619
1859.98203 1.85512
1857.93359 1.85525
1855.88515 1.85667
1853.83671 1.85849
1851.78828 1.85954
1849.73984 1.85939
1847.69140 1.85862
1845.64296 1.85747
1843.59452 1.85735
1841.54608 1.85815
1839.49765 1.85728
1837.44921 1.85592
1835.40077 1.85629
1833.35233 1.85711
1831.30389 1.85703
1829.25545 1.85687
1827.20702 1.85641
1825.15858 1.85501
1823.11014 1.85375
1821.06170 1.85273
1819.01326 1.85155
1816.96482 1.85066
1814.91639 1.84963
1812.86795 1.84820
1810.81951 1.84704
1808.77107 1.84619
1806.72263 1.84552
1804.67419 1.84502
1802.62575 1.84405
1800.57732 1.84238
1798.52888 1.84078
1796.48044 1.83921
1794.43200 1.83790
1792.38356 1.83894
1790.33512 1.84148
1788.28669 1.84269
1786.23825 1.84324
1784.18981 1.84360
1782.14137 1.84421
1780.09293 1.84552
1778.04449 1.84625
1775.99606 1.84561
1773.94762 1.84418
1771.89918 1.84382
1769.85074 1.84519
1767.80230 1.84568
1765.75386 1.84517
1763.70543 1.84489
1761.65699 1.84598
1759.60855 1.84732
1757.56011 1.84764
1755.51167 1.84739
1753.46323 1.84562
1751.41480 1.84359
1749.36636 1.84495
1747.31792 1.84721
1745.26948 1.84721
1743.22104 1.84595
1741.17260 1.84506
1739.12417 1.84628
1737.07573 1.84729
1735.02729 1.84670
1732.97885 1.84783
1730.93041 1.84942
1728.88197 1.84957
1726.83354 1.84992
1724.78510 1.85101
1722.73666 1.85202
1720.68822 1.85246
1718.63978 1.85406
1716.59134 1.85802
1714.54291 1.86000
1712.49447 1.86047
1710.44603 1.86134
1708.39759 1.86302
1706.34915 1.86622
1704.30071 1.86912
1702.25228 1.86910
1700.20384 1.87059
1698.15540 1.87941
1696.10696 1.88832
1694.05852 1.89116
1692.01008 1.89152
1689.96165 1.89416
1687.91321 1.89903
1685.86477 1.90443
1683.81633 1.91371
1681.76789 1.92069
1679.71945 1.92339
1677.67102 1.92597
1675.62258 1.93059
1673.57414 1.93596
1671.52570 1.94087
1669.47726 1.94961
1667.42882 1.95559
1665.38038 1.95637
1663.33195 1.95760
1661.28351 1.96017
1659.23507 1.96198
1657.18663 1.96256
1655.13819 1.96226
1653.08975 1.96131
1651.04132 1.95976
1648.99288 1.95769
1646.94444 1.95635
1644.89600 1.95625
1642.84756 1.95472
1640.79912 1.95285
1638.75069 1.95164
1636.70225 1.95107
1634.65381 1.95110
1632.60537 1.95010
1630.55693 1.94838
1628.50849 1.94718
1626.46006 1.94610
1624.41162 1.94427
1622.36318 1.94316
1620.31474 1.94229
1618.26630 1.94071
1616.21786 1.93846
1614.16943 1.93588
1612.12099 1.93401
1610.07255 1.93375
1608.02411 1.93401
1605.97567 1.93301
1603.92723 1.93241
1601.87880 1.93289
1599.83036 1.93294
1597.78192 1.93272
1595.73348 1.93353
1593.68504 1.93520
1591.63660 1.93683
1589.58817 1.93911
1587.53973 1.94120
1585.49129 1.94235
1583.44285 1.94475
1581.39441 1.94736
1579.34597 1.94787
1577.29754 1.94892
1575.24910 1.95140
1573.20066 1.95129
1571.15222 1.95142
1569.10378 1.95370
1567.05534 1.95454
1565.00691 1.95396
1562.95847 1.95388
1560.91003 1.95530
1558.86159 1.95705
1556.81315 1.95384
1554.76471 1.95450
1552.71628 1.95705
1550.66784 1.95716
1548.61940 1.95542
1546.57096 1.95425
1544.52252 1.95479
1542.47408 1.95724
1540.42565 1.95859
1538.37721 1.95524
1536.32877 1.95302
1534.28033 1.95389
1532.23189 1.95575
1530.18345 1.95511
1528.13501 1.95452
1526.08658 1.95605
1524.03814 1.95985
1521.98970 1.96406
1519.94126 1.96340
1517.89282 1.95905
1515.84438 1.95360
1513.79595 1.94958
1511.74751 1.94810
1509.69907 1.94796
1507.65063 1.94302
1505.60219 1.93201
1503.55375 1.92768
1501.50532 1.92565
1499.45688 1.92411
1497.40844 1.92147
1495.36000 1.91684
1493.31156 1.91224
1491.26312 1.90828
1489.21469 1.90477
1487.16625 1.90207
1485.11781 1.90054
1483.06937 1.89908
1481.02093 1.89647
1478.97249 1.89377
1476.92406 1.89227
1474.87562 1.89181
1472.82718 1.89137
1470.77874 1.88901
1468.73030 1.88582
1466.68186 1.88312
1464.63343 1.88015
1462.58499 1.87558
1460.53655 1.87116
1458.48811 1.86925
1456.43967 1.86905
1454.39123 1.86476
1452.34280 1.85914
1450.29436 1.85380
1448.24592 1.84905
1446.19748 1.84531
1444.14904 1.84247
1442.10060 1.83927
1440.05217 1.83583
1438.00373 1.83311
1435.95529 1.83041
1433.90685 1.82752
1431.85841 1.82545
1429.80997 1.82447
1427.76154 1.82330
1425.71310 1.82171
1423.66466 1.82154
1421.61622 1.82346
1419.56778 1.82659
1417.51934 1.82913
1415.47091 1.83028
1413.42247 1.83186
1411.37403 1.83437
1409.32559 1.83760
1407.27715 1.84138
1405.22871 1.84571
1403.18028 1.84918
1401.13184 1.85131
1399.08340 1.85388
1397.03496 1.85664
1394.98652 1.85769
1392.93808 1.85794
1390.88965 1.85952
1388.84121 1.86220
1386.79277 1.86405
1384.74433 1.86390
1382.69589 1.86272
1380.64745 1.86191
1378.59901 1.86306
1376.55058 1.86578
1374.50214 1.86716
1372.45370 1.86490
1370.40526 1.86079
1368.35682 1.85687
1366.30838 1.85440
1364.25995 1.85190
1362.21151 1.84742
1360.16307 1.84375
1358.11463 1.84138
1356.06619 1.83759
1354.01775 1.83190
1351.96932 1.82665
1349.92088 1.82304
1347.87244 1.81997
1345.82400 1.81734
1343.77556 1.81520
1341.72712 1.81228
1339.67869 1.80882
1337.63025 1.80699
1335.58181 1.80657
1333.53337 1.80644
1331.48493 1.80727
1329.43649 1.80916
1327.38806 1.81136
1325.33962 1.81397
1323.29118 1.81667
1321.24274 1.81970
1319.19430 1.82407
1317.14586 1.82937
1315.09743 1.83462
1313.04899 1.83898
1311.00055 1.84237
1308.95211 1.84599
1306.90367 1.85017
1304.85523 1.85348
1302.80680 1.85518
1300.75836 1.85668
1298.70992 1.85888
1296.66148 1.86068
1294.61304 1.86141
1292.56460 1.86181
1290.51617 1.86258
1288.46773 1.86313
1286.41929 1.86264
1284.37085 1.86238
1282.32241 1.86353
1280.27397 1.86484
1278.22554 1.86560
1276.17710 1.86568
1274.12866 1.86476
1272.08022 1.86366
1270.03178 1.86255
1267.98334 1.86116
1265.93491 1.86006
1263.88647 1.85951
1261.83803 1.85953
1259.78959 1.85917
1257.74115 1.85726
1255.69271 1.85499
1253.64428 1.85329
1251.59584 1.85138
1249.54740 1.84996
1247.49896 1.84984
1245.45052 1.84947
1243.40208 1.84873
1241.35364 1.84977
1239.30521 1.85295
1237.25677 1.85720
1235.20833 1.86172
1233.15989 1.86674
1231.11145 1.87325
1229.06301 1.88041
1227.01458 1.88682
1224.96614 1.89361
1222.91770 1.90231
1220.86926 1.91134
1218.82082 1.91819
1216.77238 1.92333
1214.72395 1.92914
1212.67551 1.93634
1210.62707 1.94414
1208.57863 1.95173
1206.53019 1.95872
1204.48175 1.96490
1202.43332 1.96989
1200.38488 1.97456
1198.33644 1.97971
1196.28800 1.98481
1194.23956 1.99061
1192.19112 1.99920
1190.14269 2.00980
1188.09425 2.01900
1186.04581 2.02676
1183.99737 2.03547
1181.94893 2.04486
1179.90049 2.05438
1177.85206 2.06501
1175.80362 2.07489
1173.75518 2.08112
1171.70674 2.08580
1169.65830 2.09201
1167.60986 2.09819
1165.56143 2.10167
1163.51299 2.10383
1161.46455 2.10635
1159.41611 2.10758
1157.36767 2.10789
1155.31923 2.10925
1153.27080 2.10985
1151.22236 2.10869
1149.17392 2.10937
1147.12548 2.11206
1145.07704 2.11351
1143.02860 2.11487
1140.98017 2.11746
1138.93173 2.11988
1136.88329 2.12193
1134.83485 2.12365
1132.78641 2.12468
1130.73797 2.12627
1128.68954 2.13079
1126.64110 2.13768
1124.59266 2.14343
1122.54422 2.14929
1120.49578 2.15850
1118.44734 2.16742
1116.39891 2.17109
1114.35047 2.17274
1112.30203 2.17764
1110.25359 2.18225
1108.20515 2.18157
1106.15671 2.17877
1104.10827 2.17864
1102.05984 2.17996
1100.01140 2.17802
1097.96296 2.17362
1095.91452 2.17338
1093.86608 2.17724
1091.81764 2.17884
1089.76921 2.17766
1087.72077 2.17604
1085.67233 2.17563
1083.62389 2.17941
1081.57545 2.18643
1079.52701 2.19165
1077.47858 2.19394
1075.43014 2.19542
1073.38170 2.19626
1071.33326 2.19749
1069.28482 2.19935
1067.23638 2.19995
1065.18795 2.20028
1063.13951 2.20123
1061.09107 2.20201
1059.04263 2.20381
1056.99419 2.20727
1054.94575 2.21037
1052.89732 2.21186
1050.84888 2.21246
1048.80044 2.21461
1046.75200 2.22052
1044.70356 2.22690
1042.65512 2.23016
1040.60669 2.23144
1038.55825 2.23313
1036.50981 2.23500
1034.46137 2.23332
1032.41293 2.23186
1030.36449 2.23523
1028.31606 2.23943
1026.26762 2.24331
1024.21918 2.24784
1022.17074 2.25195
1020.12230 2.25587
1018.07386 2.25977
1016.02543 2.26072
1013.97699 2.25828
1011.92855 2.25547
1009.88011 2.25142
1007.83167 2.24796
1005.78323 2.24986
1003.73480 2.25373
1001.68636 2.25490
999.63792 2.25547
997.58948 2.25559
995.54104 2.25318
993.49260 2.24937
991.44417 2.24651
989.39573 2.24570
987.34729 2.24599
985.29885 2.24564
983.25041 2.24521
981.20197 2.24843
979.15354 2.25398
977.10510 2.25578
975.05666 2.25531
973.00822 2.25874
970.95978 2.26746
968.91134 2.27870
966.86290 2.28961
964.81447 2.29704
962.76603 2.30061
960.71759 2.30455
958.66915 2.31018
956.62071 2.31770
954.57227 2.32860
952.52384 2.33686
950.47540 2.33567
948.42696 2.33403
946.37852 2.34212
944.33008 2.35130
942.28164 2.35087
940.23321 2.34680
938.18477 2.34531
936.13633 2.34390
934.08789 2.34268
932.03945 2.34170
929.99101 2.34041
927.94258 2.34184
925.89414 2.34411
923.84570 2.34649
921.79726 2.35251
919.74882 2.35776
917.70038 2.35812
915.65195 2.35818
913.60351 2.36024
911.55507 2.35982
909.50663 2.35635
907.45819 2.35479
905.40975 2.35505
903.36132 2.35435
901.31288 2.35406
899.26444 2.35444
897.21600 2.35127
895.16756 2.34483
893.11912 2.34084
891.07069 2.34012
889.02225 2.33782
886.97381 2.33234
884.92537 2.32953
882.87693 2.33341
880.82849 2.33589
878.78006 2.33218
876.73162 2.33182
874.68318 2.33654
872.63474 2.33879
870.58630 2.33693
868.53786 2.33760
866.48943 2.34306
864.44099 2.34360
862.39255 2.33715
860.34411 2.32921
858.29567 2.32542
856.24723 2.32992
854.19880 2.33194
852.15036 2.31973
850.10192 2.30354
848.05348 2.30088
846.00504 2.30922
843.95660 2.31390
841.90817 2.31511
839.85973 2.31683
837.81129 2.31785
835.76285 2.31984
833.71441 2.32587
831.66597 2.34256
829.61753 2.36923
827.56910 2.39131
825.52066 2.39783
823.47222 2.39863
821.42378 2.40530
819.37534 2.41148
817.32690 2.41370
815.27847 2.41557
813.23003 2.41709
811.18159 2.42428
809.13315 2.43875
807.08471 2.44723
805.03627 2.44947
802.98784 2.44983
800.93940 2.44460
798.89096 2.44617
796.84252 2.45939
794.79408 2.46715
792.74564 2.46920
790.69721 2.47887
788.64877 2.48878
786.60033 2.49187
784.55189 2.49640
782.50345 2.50570
780.45501 2.51547
778.40658 2.52544
776.35814 2.54375
774.30970 2.56600
772.26126 2.57516
770.21282 2.56551
768.16438 2.55431
766.11595 2.56930
764.06751 2.61750
762.01907 2.66908
759.97063 2.68157
757.92219 2.66052
755.87375 2.65156
753.82532 2.67601
751.77688 2.71380
749.72844 2.74620
747.68000 2.78599
745.63156 2.81870
743.58312 2.82265
741.53469 2.84241
739.48625 2.87810
737.43781 2.88950
735.38937 2.89774
733.34093 2.88723
731.29249 2.86345
729.24406 2.91742
727.19562 3.07399
725.14718 3.22390
723.09874 3.24479
721.05030 3.11756
719.00186 2.97600
716.95343 2.94198
714.90499 3.01195
712.85655 3.15784
710.80811 3.24286
708.75967 3.20970
706.71123 3.27663
704.66280 3.47968
702.61436 3.59032
700.56592 3.42659
698.51748 3.18216
696.46904 3.01140
694.42060 2.98008
692.37216 3.05614
690.32373 3.07921
688.27529 3.02239
686.22685 3.01164
684.17841 3.03667
682.12997 3.03502
680.08153 3.02033
678.03310 2.95235
675.98466 2.81885
673.93622 2.71214
671.88778 2.65113
669.83934 2.59269
667.79090 2.50499
665.74247 2.44873
663.69403 2.41053
661.64559 2.33998
659.59715 2.24132
657.54871 2.14615
655.50027 2.05548
653.45184 1.97711
651.40340 1.92263
649.35496 1.87933
647.30652 1.83717
645.25808 1.79807
643.20964 1.76464
641.16121 1.73623
639.11277 1.71426
637.06433 1.69539
635.01589 1.67710
632.96745 1.66770
630.91901 1.66213
628.87058 1.64916
626.82214 1.63279
624.77370 1.61658
622.72526 1.59249
620.67682 1.56937
618.62838 1.56084
616.57995 1.55806
614.53151 1.54771
612.48307 1.53591
610.43463 1.53501
608.38619 1.53195
606.33775 1.51087
604.28932 1.48511
602.24088 1.47219
600.19244 1.46693
598.14400 1.45762
