3996.50324 61.65177
3994.45480 54.11602
3992.40636 35.22971
3990.35792 30.84380
3988.30948 52.41719
3986.26104 88.47718
3984.21261 44.52710
3982.16417 46.68894
3980.11573 204.88937
3978.06729 1164.22278
3976.01885 275.88922
3973.97041 -3244.51367
3971.92198 -100.16604
3969.87354 -87.39121
3967.82510 -370.40833
3965.77666 71.52276
3963.72822 31.94834
3961.67978 30.86278
3959.63135 37.01515
3957.58291 31.49441
3955.53447 23.35719
3953.48603 21.87616
3951.43759 32.82932
3949.38915 135.82512
3947.34072 -3397.75049
3945.29228 61.07100
3943.24384 30.34515
3941.19540 37.05375
3939.14696 78.35163
3937.09852 956.60413
3935.05009 -76.78212
3933.00165 -69.18208
3930.95321 157.25301
3928.90477 59.74942
3926.85633 163.06731
3924.80789 163.06731
3922.75946 256.42667
3920.71102 419.93381
3918.66258 -236.02824
3916.61414 -777.19696
3914.56570 59.62165
3912.51726 34.95430
3910.46883 28.37641
3908.42039 19.55562
3906.37195 16.51383
3904.32351 22.03637
3902.27507 33.50843
3900.22663 59.85101
3898.17820 101.21705
3896.12976 67.23502
3894.08132 47.75489
3892.03288 29.43200
3889.98444 23.13075
3887.93600 31.86820
3885.88756 107.17413
3883.83913 -254.82870
3881.79069 82.08748
3879.74225 36.40139
3877.69381 51.78098
3875.64537 61.92500
3873.59693 50.70373
3871.54850 30.13497
3869.50006 14.69778
3867.45162 10.99120
3865.40318 10.37012
3863.35474 11.40092
3861.30630 18.83704
3859.25787 68.61086
3857.20943 -474.05502
3855.16099 36.80841
3853.11255 14.04580
3851.06411 33.84936
3849.01567 -1056.70325
3846.96724 687.64111
3844.91880 83.93311
3842.87036 64.27406
3840.82192 -951.30743
3838.77348 -156.37346
3836.72504 34.98938
3834.67661 31.71217
3832.62817 70.02551
3830.57973 31.23801
3828.53129 14.95292
3826.48285 15.49304
3824.43441 27.01307
3822.38598 26.80929
3820.33754 24.43570
3818.28910 63.91165
3816.24066 -348.06119
3814.19222 -282.11429
3812.14378 -2569.15381
3810.09535 112.31598
3808.04691 38.74744
3805.99847 27.63016
3803.95003 29.07778
3801.90159 72.28599
3799.85315 93.36333
3797.80472 33.28571
3795.75628 29.64033
3793.70784 48.18900
3791.65940 322.01205
3789.61096 -73.99799
3787.56252 -48.18660
3785.51409 -88.76800
3783.46565 70.65631
3781.41721 44.28327
3779.36877 431.57080
3777.32033 91.11248
3775.27189 26.61522
3773.22346 32.51859
3771.17502 256.46170
3769.12658 -799.90814
3767.07814 33.18905
3765.02970 17.97691
3762.98126 25.42544
3760.93283 104.84692
3758.88439 159.84993
3756.83595 73.07317
3754.78751 41.69539
3752.73907 21.94674
3750.69063 23.04737
3748.64219 100.99438
3746.59376 118.61964
3744.54532 42.03784
3742.49688 57.78927
3740.44844 63.80489
3738.40000 47.46690
3736.35156 -131.22795
3734.30313 -22.84096
3732.25469 -51.41764
3730.20625 228.57494
3728.15781 217.88110
3726.10937 1105.59326
3724.06093 446.33466
3722.01250 -475.57413
3719.96406 1179.16968
3717.91562 78.10938
3715.86718 89.67206
3713.81874 61.92382
3711.77030 21.26201
3709.72187 18.32154
3707.67343 24.87953
3705.62499 29.46371
3703.57655 36.61018
3701.52811 70.89828
3699.47967 98.56155
3697.43124 81.63445
3695.38280 61.80888
3693.33436 50.33009
3691.28592 189.10667
3689.23748 -370.08057
3687.18904 77.04610
3685.14061 132.80453
3683.09217 -115.76447
3681.04373 -74.06458
3678.99529 238.46779
3676.94685 29.54441
3674.89841 23.99055
3672.84998 34.46807
3670.80154 48.17008
3668.75310 52.98568
3666.70466 32.26215
3664.65622 32.76113
3662.60778 54.23883
3660.55935 550.80865
3658.51091 -210.78328
3656.46247 73.77959
3654.41403 48.13202
3652.36559 881.13702
3650.31715 -52.03338
3648.26872 -157.27721
3646.22028 92.95200
3644.17184 65.62290
3642.12340 73.61604
3640.07496 778.00598
3638.02652 -124.40207
3635.97809 -469.01587
3633.92965 92.67708
3631.88121 59.78850
3629.83277 54.63201
3627.78433 33.92684
3625.73589 31.56497
3623.68746 47.07311
3621.63902 72.17973
3619.59058 51.65905
3617.54214 31.36176
3615.49370 23.45252
3613.44526 22.94968
3611.39682 23.71778
3609.34839 22.39012
3607.29995 33.31223
3605.25151 76.71652
3603.20307 204.33446
3601.15463 1945.36975
3599.10619 105.03141
3597.05776 42.93653
3595.00932 33.81397
3592.96088 36.70654
3590.91244 264.96246
3588.86400 -31.05030
3586.81556 -44.03091
3584.76713 368.02679
3582.71869 -231.35434
3580.67025 -1784.07263
3578.62181 59.24757
3576.57337 97.04147
3574.52493 -433.62985
3572.47650 91.06034
3570.42806 29.69230
3568.37962 24.88125
3566.33118 34.37769
3564.28274 47.93929
3562.23430 69.83689
3560.18587 115.77746
3558.13743 148.26759
3556.08899 69.99333
3554.04055 30.24869
3551.99211 32.74915
3549.94367 -208.42961
3547.89524 -26.42994
3545.84680 -26.01023
3543.79836 -73.68664
3541.74992 153.56711
3539.70148 71.66605
3537.65304 56.70369
3535.60461 52.12970
3533.55617 74.76792
3531.50773 145.13231
3529.45929 285.91568
3527.41085 1582.35779
3525.36241 701.31140
3523.31398 75.99892
3521.26554 40.56802
3519.21710 40.04878
3517.16866 66.65217
3515.12022 -466.71463
3513.07178 -92.25397
3511.02335 -280.35782
3508.97491 83.75669
3506.92647 35.72281
3504.87803 25.44955
3502.82959 26.64884
3500.78115 32.93922
3498.73272 29.38324
3496.68428 27.49979
3494.63584 38.64297
3492.58740 49.11589
3490.53896 44.08890
3488.49052 80.84566
3486.44209 5541.91992
3484.39365 75.99072
3482.34521 30.30003
3480.29677 30.74684
3478.24833 46.47878
3476.19989 52.46511
3474.15146 45.82691
3472.10302 68.05845
3470.05458 -887.70056
3468.00614 -92.56349
3465.95770 -92.21909
3463.90926 -95.06958
3461.86082 -317.13242
3459.81239 62.03569
3457.76395 40.91376
3455.71551 61.75809
3453.66707 127.96152
3451.61863 165.45053
3449.57019 -123.36407
3447.52176 -32.94482
3445.47332 -48.72842
3443.42488 68.67480
3441.37644 37.57145
3439.32800 96.88267
3437.27956 -1115.52954
3435.23113 -210.45912
3433.18269 -66.49394
3431.13425 -75.56995
3429.08581 105.06580
3427.03737 39.44128
3424.98893 51.22306
3422.94050 104.04768
3420.89206 772.02991
3418.84362 -172.71652
3416.79518 -765.35736
3414.74674 104.18806
3412.69830 62.99772
3410.64987 46.75404
3408.60143 33.52713
3406.55299 38.13371
3404.50455 79.88942
3402.45611 81.32901
3400.40767 41.57766
3398.35924 35.60795
3396.31080 42.22835
3394.26236 55.24309
3392.21392 62.54128
3390.16548 45.33748
3388.11704 41.58109
3386.06861 54.41355
3384.02017 44.78240
3381.97173 31.71763
3379.92329 31.24607
3377.87485 43.05278
3375.82641 58.30820
3373.77798 61.29051
3371.72954 134.40021
3369.68110 -583.53680
3367.63266 416.25888
3365.58422 120.53283
3363.53578 108.62106
3361.48735 100.76612
3359.43891 73.19615
3357.39047 73.68618
3355.34203 164.89763
3353.29359 347.22781
3351.24515 347.22781
3349.19672 263.18622
3347.14828 46.32277
3345.09984 28.73255
3343.05140 31.10003
3341.00296 47.98459
3338.95452 121.97221
3336.90609 155.32213
3334.85765 78.99664
3332.80921 60.33168
3330.76077 63.99286
3328.71233 175.30074
3326.66389 -119.25319
3324.61545 -93.31882
3322.56702 308.32632
3320.51858 81.01385
3318.47014 -445.38565
3316.42170 -45.21885
3314.37326 -54.03651
3312.32482 802.69958
3310.27639 61.30370
3308.22795 30.74736
3306.17951 21.77213
3304.13107 24.59843
3302.08263 43.98264
3300.03419 158.93884
3297.98576 430.19046
3295.93732 87.07841
3293.88888 39.90836
3291.84044 29.91286
3289.79200 32.76425
3287.74356 62.18405
3285.69513 1415.12781
3283.64669 -126.27721
3281.59825 -112.35752
3279.54981 -419.35480
3277.50137 154.22714
3275.45293 63.73489
3273.40450 39.73061
3271.35606 34.26692
3269.30762 31.59535
3267.25918 31.66289
3265.21074 45.85190
3263.16230 72.44669
3261.11387 108.91844
3259.06543 302.13107
3257.01699 155.67763
3254.96855 131.28674
3252.92011 174.90717
3250.87167 108.06986
3248.82324 87.57903
3246.77480 129.96849
3244.72636 109.19337
3242.67792 73.73685
3240.62948 83.04884
3238.58104 97.25426
3236.53261 159.09682
3234.48417 493.72363
3232.43573 551.69458
3230.38729 305.41238
3228.33885 87.39832
3226.29041 56.52234
3224.24198 59.29631
3222.19354 52.40247
3220.14510 51.86087
3218.09666 119.56953
3216.04822 -106.72839
3213.99978 -74.67873
3211.95135 209.04160
3209.90291 48.26207
3207.85447 51.16543
3205.80603 211.60683
3203.75759 -110.95957
3201.70915 -148.90434
3199.66072 530.28912
3197.61228 255.77724
3195.56384 134.26212
3193.51540 68.70971
3191.46696 48.60867
3189.41852 55.14388
3187.37008 112.48423
3185.32165 512.18146
3183.27321 241.74248
3181.22477 52.48365
3179.17633 32.08512
3177.12789 55.89660
3175.07945 -1110.79468
3173.03102 251.42943
3170.98258 55.92157
3168.93414 61.50305
3166.88570 207.54684
3164.83726 226.93280
3162.78882 59.93573
3160.74039 47.19847
3158.69195 67.90095
3156.64351 197.45975
3154.59507 -110.51010
3152.54663 -48.53284
3150.49819 -73.19666
3148.44976 218.08466
3146.40132 114.15183
3144.35288 995.68683
3142.30444 2070.81226
3140.25600 160.50192
3138.20756 83.57263
3136.15913 41.95755
3134.11069 28.65031
3132.06225 36.44459
3130.01381 98.88367
3127.96537 327.18918
3125.91693 -2242.75269
3123.86850 -161.40688
3121.82006 -95.13356
3119.77162 -77.70199
3117.72318 -108.70992
3115.67474 124.42120
3113.62630 70.29211
3111.57787 3200.29712
3109.52943 -155.88081
3107.48099 136.37715
3105.43255 37.47224
3103.38411 26.58374
3101.33567 24.87455
3099.28724 30.24381
3097.23880 47.60490
3095.19036 61.58624
3093.14192 78.49061
3091.09348 218.08394
3089.04504 146.71251
3086.99661 91.54212
3084.94817 172.09726
3082.89973 364.83139
3080.85129 1055.50610
3078.80285 -1130.26721
3076.75441 -1283.68237
3074.70598 187.54752
3072.65754 63.29884
3070.60910 47.79945
3068.56066 41.21917
3066.51222 39.59419
3064.46378 58.48019
3062.41535 144.60265
3060.36691 5627.71045
3058.31847 -158.00380
3056.27003 -82.04927
3054.22159 -72.04680
3052.17315 -180.97305
3050.12471 132.36813
3048.07628 126.37438
3046.02784 -282.08014
3043.97940 -82.57361
3041.93096 -94.61503
3039.88252 1014.27997
3037.83408 77.23800
3035.78565 66.49439
3033.73721 114.94884
3031.68877 200.39673
3029.64033 80.01182
3027.59189 33.80623
3025.54345 24.75715
3023.49502 37.29456
3021.44658 138.82106
3019.39814 165.06908
3017.34970 139.78461
3015.30126 -1072.35339
3013.25282 -119.14478
3011.20439 -125.46930
3009.15595 -623.27777
3007.10751 354.90463
3005.05907 124.14705
3003.01063 71.74793
3000.96219 50.76864
2998.91376 30.90807
2996.86532 25.53700
2994.81688 29.34800
2992.76844 38.55296
2990.72000 58.15043
2988.67156 113.35609
2986.62313 238.03424
2984.57469 857.62762
2982.52625 -266.00613
2980.47781 -170.11160
2978.42937 -332.61871
2976.38093 -530.14142
2974.33250 990.78442
2972.28406 101.12293
2970.23562 85.55541
2968.18718 178.20100
2966.13874 177.79178
2964.09030 77.25421
2962.04187 52.99870
2959.99343 79.41738
2957.94499 1014.86786
2955.89655 -990.84912
2953.84811 130.41426
2951.79967 75.86518
2949.75124 115.42314
2947.70280 187.29605
2945.65436 123.94397
2943.60592 132.96539
2941.55748 992.52545
2939.50904 1573.84253
2937.46061 486.89944
2935.41217 189.31422
2933.36373 71.25872
2931.31529 48.09525
2929.26685 44.83657
2927.21841 52.79182
2925.16998 60.05420
2923.12154 47.69622
2921.07310 52.34921
2919.02466 133.73445
2916.97622 178.19748
2914.92778 50.50973
2912.87934 35.11256
2910.83091 40.31081
2908.78247 42.79123
2906.73403 39.28383
2904.68559 46.94738
2902.63715 121.29825
2900.58871 -250.38466
2898.54028 -105.62315
2896.49184 -93.36511
2894.44340 -315.02881
2892.39496 98.15749
2890.34652 82.74113
2888.29808 3404.89673
2886.24965 -90.22180
2884.20121 -96.03495
2882.15277 -139.49994
2880.10433 -102.99773
2878.05589 -131.59793
2876.00745 342.25082
2873.95902 84.64581
2871.91058 48.86229
2869.86214 35.50737
2867.81370 38.88541
2865.76526 55.11425
2863.71682 50.61077
2861.66839 38.51238
2859.61995 43.15306
2857.57151 60.96038
2855.52307 76.37585
2853.47463 77.68884
2851.42619 75.30500
2849.37776 100.46874
2847.32932 250.09973
2845.28088 -2862.07446
2843.23244 179.47324
2841.18400 74.56070
2839.13556 98.20461
2837.08713 117.61145
2835.03869 137.67900
2832.99025 -118.09229
2830.94181 -49.66162
2828.89337 -68.69379
2826.84493 474.47229
2824.79650 60.10668
2822.74806 44.02586
2820.69962 39.20097
2818.65118 45.55036
2816.60274 82.70187
2814.55430 194.61842
2812.50587 178.69653
2810.45743 144.16711
2808.40899 272.24594
2806.36055 427.91641
2804.31211 148.61424
2802.26367 237.78137
2800.21524 -282.25815
2798.16680 -671.84229
2796.11836 509.61557
2794.06992 286.92545
2792.02148 454.09564
2789.97304 256.02371
2787.92461 54.22649
2785.87617 38.60893
2783.82773 58.13197
2781.77929 80.44916
2779.73085 59.11343
2777.68241 51.05216
2775.63397 67.10297
2773.58554 265.44482
2771.53710 -120.27228
2769.48866 -96.95235
2767.44022 -194.02979
2765.39178 1127.50159
2763.34334 416.29767
2761.29491 3842.85962
2759.24647 154.34708
2757.19803 69.45958
2755.14959 209.06332
2753.10115 -95.20967
2751.05271 -82.31336
2749.00428 -397.30789
2746.95584 118.72011
2744.90740 62.56768
2742.85896 63.55323
2740.81052 194.88721
2738.76208 -488.91583
2736.71365 467.89334
2734.66521 171.60083
2732.61677 185.57924
2730.56833 146.33417
2728.51989 105.81995
2726.47145 99.95474
2724.42302 296.10739
2722.37458 3153.41455
2720.32614 87.04836
2718.27770 47.29279
2716.22926 56.52785
2714.18082 126.48505
2712.13239 213.47858
2710.08395 156.76251
2708.03551 161.76558
2705.98707 158.94023
2703.93863 98.54099
2701.89019 54.55424
2699.84176 48.40840
2697.79332 82.63056
2695.74488 200.04251
2693.69644 -4475.83203
2691.64800 -267.93347
2689.59956 1043.87573
2687.55113 491.41547
2685.50269 -119.08413
2683.45425 -91.67791
2681.40581 -1335.81421
2679.35737 228.92682
2677.30893 119.24669
2675.26050 52.67828
2673.21206 44.27903
2671.16362 64.87582
2669.11518 104.50720
2667.06674 118.56959
2665.01830 162.73067
2662.96987 448.23822
2660.92143 146.47820
2658.87299 50.41666
2656.82455 42.98322
2654.77611 56.70264
2652.72767 105.51759
2650.67924 2002.68213
2648.63080 1081.96790
2646.58236 84.58198
2644.53392 46.71161
2642.48548 49.81149
2640.43704 92.52473
2638.38860 179.53801
2636.34017 95.89777
2634.29173 74.18265
2632.24329 123.19568
2630.19485 229.06143
2628.14641 201.09712
2626.09797 439.61975
2624.04954 -4042.01855
2622.00110 321.12363
2619.95266 424.01764
2617.90422 -652.37384
2615.85578 221.10159
2613.80734 57.51352
2611.75891 40.25853
2609.71047 42.64878
2607.66203 60.51582
2605.61359 88.89639
2603.56515 109.47343
2601.51671 133.44405
2599.46828 257.01794
2597.41984 191.82237
2595.37140 85.37652
2593.32296 73.65493
2591.27452 187.44180
2589.22608 -346.43643
2587.17765 -514.28021
2585.12921 219.66338
2583.08077 79.52371
2581.03233 60.67715
2578.98389 63.82233
2576.93545 56.23309
2574.88702 60.74535
2572.83858 78.40543
2570.79014 69.76851
2568.74170 73.11639
2566.69326 164.59140
2564.64482 -155.28154
2562.59639 -85.30514
2560.54795 -1129.40845
2558.49951 113.09161
2556.45107 178.75334
2554.40263 -750.06274
2552.35419 1591.14966
2550.30576 94.59013
2548.25732 83.69347
2546.20888 1005.87854
2544.16044 -254.06868
2542.11200 190.71625
2540.06356 105.07059
2538.01513 876.31451
2535.96669 -403.14658
2533.91825 210.39540
2531.86981 104.84913
2529.82137 113.15735
2527.77293 83.69910
2525.72450 57.18105
2523.67606 41.61760
2521.62762 34.00904
2519.57918 38.30144
2517.53074 51.16997
2515.48230 58.44145
2513.43387 69.35117
2511.38543 100.89603
2509.33699 118.14523
2507.28855 140.21922
2505.24011 283.00064
2503.19167 137.60294
2501.14324 55.42753
2499.09480 50.93151
2497.04636 144.97240
2494.99792 -856.12842
2492.94948 199.42540
2490.90104 77.21423
2488.85260 71.56725
2486.80417 160.20477
2484.75573 -204.09171
2482.70729 -145.61279
2480.65885 176.00108
2478.61041 54.73409
2476.56197 55.16313
2474.51354 72.17511
2472.46510 71.23753
2470.41666 78.26014
2468.36822 117.11035
2466.31978 232.33995
2464.27134 221.33653
2462.22291 122.36078
2460.17447 112.82973
2458.12603 154.60329
2456.07759 117.90767
2454.02915 111.69226
2451.98071 299.43002
2449.93228 464.07211
2447.88384 94.40215
2445.83540 48.65696
2443.78696 50.11183
2441.73852 112.70597
2439.69008 -683.04236
2437.64165 1347.04138
2435.59321 161.14909
2433.54477 161.62506
2431.49633 125.99825
2429.44789 71.17098
2427.39945 67.61063
2425.35102 83.44690
2423.30258 109.37077
2421.25414 120.13938
2419.20570 80.65035
2417.15726 73.87730
2415.10882 97.58034
2413.06039 68.94691
2411.01195 42.08967
2408.96351 42.57007
2406.91507 76.05574
2404.86663 240.23283
2402.81819 -1111.09802
2400.76976 -402.12653
2398.72132 179.57680
2396.67288 49.77689
2394.62444 54.39821
2392.57600 655.47577
2390.52756 -312.24060
2388.47913 398.97940
2386.43069 900.41669
2384.38225 -204.67342
2382.33381 -93.83546
2380.28537 -100.96638
2378.23693 -1786.06213
2376.18850 156.63293
2374.14006 280.38943
2372.09162 342.29340
2370.04318 60.44267
2367.99474 34.82754
2365.94630 27.91495
2363.89787 24.13511
2361.84943 68.71359
2359.80099 -48.25668
2357.75255 -141.83015
2355.70411 26.74321
2353.65567 13.73628
2351.60723 12.44263
2349.55880 13.88258
2347.51036 16.63394
2345.46192 20.23963
2343.41348 18.46216
2341.36504 14.16183
2339.31660 16.96354
2337.26817 65.54797
2335.21973 -74.90301
2333.17129 -120.33405
2331.12285 57.57130
2329.07441 21.79271
2327.02597 19.91370
2324.97754 23.75625
2322.92910 20.85988
2320.88066 18.44282
2318.83222 22.46553
2316.78378 40.93621
2314.73534 127.98547
2312.68691 1729.37366
2310.63847 -516.92029
2308.59003 -3150.66357
2306.54159 242.15242
2304.49315 116.13258
2302.44471 88.32613
2300.39628 79.88605
2298.34784 78.03430
2296.29940 136.83069
2294.25096 137.40559
2292.20252 52.46486
2290.15408 52.52686
2288.10565 171.07292
2286.05721 -345.81027
2284.00877 -128.26819
2281.96033 -282.37943
2279.91189 176.32411
2277.86345 682.87732
2275.81502 -516.79150
2273.76658 66.80668
2271.71814 36.16420
2269.66970 46.14376
2267.62126 90.20174
2265.57282 222.31641
2263.52439 376.81790
2261.47595 214.86275
2259.42751 268.37216
2257.37907 -225.56412
2255.33063 -74.79613
2253.28219 -74.88378
2251.23376 -3736.07397
2249.18532 48.51478
2247.13688 27.46662
2245.08844 24.60822
2243.04000 31.36110
2240.99156 60.21171
2238.94313 114.16962
2236.89469 107.55893
2234.84625 132.83755
2232.79781 118.20874
2230.74937 63.63860
2228.70093 64.24290
2226.65250 84.16956
2224.60406 76.80770
2222.55562 84.40170
2220.50718 127.09760
2218.45874 109.78255
2216.41030 77.51057
2214.36186 76.16847
2212.31343 83.87836
2210.26499 75.01641
2208.21655 68.51601
2206.16811 94.77341
2204.11967 148.76511
2202.07123 236.27942
2200.02280 -189.18513
2197.97436 -83.10374
2195.92592 -133.61891
2193.87748 -360.28839
2191.82904 -414.05295
2189.78060 -300.09415
2187.73217 -1835.30603
2185.68373 141.61166
2183.63529 82.56815
2181.58685 91.76558
2179.53841 125.55309
2177.48997 146.06499
2175.44154 110.35482
2173.39310 83.81833
2171.34466 88.21440
2169.29622 115.98335
2167.24778 110.37334
2165.19934 82.31123
2163.15091 97.06420
2161.10247 1226.05676
2159.05403 -294.88330
2157.00559 328.51706
2154.95715 93.30650
2152.90871 68.91500
2150.86028 95.78088
2148.81184 1015.12085
2146.76340 3405.86182
2144.71496 107.12067
2142.66652 60.25504
2140.61808 72.56147
2138.56965 238.33916
2136.52121 238.33916
2134.47277 452.74973
2132.42433 324.06866
2130.37589 204.87476
2128.32745 61.25939
2126.27902 32.49662
2124.23058 30.67454
2122.18214 42.51249
2120.13370 58.25916
2118.08526 53.89425
2116.03682 47.67134
2113.98839 58.28100
2111.93995 120.79047
2109.89151 254.15601
2107.84307 136.31790
2105.79463 120.43082
2103.74619 136.49478
2101.69776 92.41677
2099.64932 103.72015
2097.60088 280.57242
2095.55244 246.50919
2093.50400 177.19501
2091.45556 1168.09998
2089.40713 5063.97412
2087.35869 144.72551
2085.31025 130.50333
2083.26181 666.32800
2081.21337 854.70721
2079.16493 95.41990
2077.11649 49.41037
2075.06806 47.54739
2073.01962 67.83695
2070.97118 83.97771
2068.92274 66.57159
2066.87430 70.16174
2064.82586 124.50080
2062.77743 204.02275
2060.72899 163.38962
2058.68055 190.04327
2056.63211 532.00293
2054.58367 1781.03784
2052.53523 456.01593
2050.48680 132.99622
2048.43836 70.74770
2046.38992 61.95499
2044.34148 98.45997
2042.29304 170.24847
2040.24460 92.17557
2038.19617 77.32575
2036.14773 184.70309
2034.09929 1442.25671
2032.05085 97.90564
2030.00241 49.22097
2027.95397 46.25877
2025.90554 53.64232
2023.85710 66.15871
2021.80866 110.27995
2019.76022 1105.23413
2017.71178 -1862.04980
2015.66334 166.30240
2013.61491 156.75104
2011.56647 1835.88892
2009.51803 -138.67442
2007.46959 -84.18516
2005.42115 -117.18031
2003.37271 -659.77661
2001.32428 227.59029
1999.27584 96.11810
1997.22740 75.51383
1995.17896 120.79722
1993.13052 278.29953
1991.08208 126.50986
1989.03365 77.09721
1986.98521 88.06292
1984.93677 263.96402
1982.88833 -216.24471
1980.83989 -148.77119
1978.79145 -8429.55859
1976.74302 131.78699
1974.69458 138.46680
1972.64614 -417.53540
1970.59770 -127.66273
1968.54926 1402.79565
1966.50082 102.30982
1964.45239 132.32039
1962.40395 265.57022
1960.35551 336.00989
1958.30707 168.72354
1956.25863 180.03802
1954.21019 355.81461
1952.16176 192.09431
1950.11332 87.73743
1948.06488 67.59200
1946.01644 69.66230
1943.96800 82.19804
1941.91956 145.62601
1939.87112 1272.96204
1937.82269 -339.33960
1935.77425 -232.39801
1933.72581 -187.30194
1931.67737 -124.89229
1929.62893 -128.53387
1927.58049 -1707.67065
1925.53206 167.23737
1923.48362 190.55159
1921.43518 88.98012
1919.38674 36.97151
1917.33830 31.41614
1915.28986 54.31676
1913.24143 281.17984
1911.19299 -3317.21094
1909.14455 192.26212
1907.09611 58.62925
1905.04767 38.77940
1902.99923 49.78995
1900.95080 115.61918
1898.90236 232.07532
1896.85392 80.43287
1894.80548 58.27876
1892.75704 61.08786
1890.70860 58.49428
1888.66017 77.10639
1886.61173 125.40519
1884.56329 116.36485
1882.51485 168.77414
1880.46641 884.95978
1878.41797 517.73907
1876.36954 114.85142
1874.32110 82.01532
1872.27266 99.10143
1870.22422 181.41449
1868.17578 1235.83020
1866.12734 -516.90649
1864.07891 -1143.71802
1862.03047 235.22392
1859.98203 242.69089
1857.93359 605.61554
1855.88515 162.38400
1853.83671 86.32031
1851.78828 74.86620
1849.73984 73.55501
1847.69140 74.43060
1845.64296 101.16653
1843.59452 522.69507
1841.54608 1495.71667
1839.49765 253.13655
1837.44921 198.09517
1835.40077 179.04770
1833.35233 130.64845
1831.30389 245.43097
1829.25545 -171.65189
1827.20702 -167.27995
1825.15858 409.79901
1823.11014 124.78842
1821.06170 124.32456
1819.01326 241.20834
1816.96482 218.02664
1814.91639 86.32402
1812.86795 56.12251
1810.81951 44.57818
1808.77107 40.60963
1806.72263 49.05353
1804.67419 71.97956
1802.62575 94.22917
1800.57732 194.51128
1798.52888 -512.15521
1796.48044 -610.41559
1794.43200 -2653.38354
1792.38356 680.54706
1790.33512 89.13433
1788.28669 74.20164
1786.23825 142.43735
1784.18981 482.03723
1782.14137 230.00140
1780.09293 189.97774
1778.04449 2523.79565
1775.99606 -317.27951
1773.94762 -210.46021
1771.89918 -831.92377
1769.85074 133.50966
1767.80230 119.99807
1765.75386 136.62074
1763.70543 97.03041
1761.65699 88.35718
1759.60855 145.26254
1757.56011 230.04855
1755.51167 316.70853
1753.46323 443.32574
1751.41480 86.50420
1749.36636 48.73827
1747.31792 195.14526
1745.26948 -77.47053
1743.22104 -108.98458
1741.17260 147.60840
1739.12417 122.24085
1737.07573 -762.81317
1735.02729 -172.21565
1732.97885 -285.61642
1730.93041 -330.68112
1728.88197 -542.21344
1726.83354 350.77759
1724.78510 120.19571
1722.73666 65.91815
1720.68822 40.43501
1718.63978 36.67477
1716.59134 172.77667
1714.54291 4538.07227
1712.49447 57.56076
1710.44603 33.88359
1708.39759 31.20596
1706.34915 37.88312
1704.30071 70.54626
1702.25228 161.19519
1700.20384 97.99735
1698.15540 81.19998
1696.10696 -526.49127
1694.05852 -264.97281
1692.01008 141.52678
1689.96165 83.50801
1687.91321 105.42807
1685.86477 68.73453
1683.81633 55.17326
1681.76789 123.45605
1679.71945 86.30751
1677.67102 43.33496
1675.62258 35.36869
1673.57414 37.67495
1671.52570 34.98171
1669.47726 47.13725
1667.42882 607.72339
1665.38038 -105.67919
1663.33195 -399.09409
1661.28351 49.07154
1659.23507 31.06422
1657.18663 27.81827
1655.13819 20.07054
1653.08975 24.32300
1651.04132 170.41188
1648.99288 119.05595
1646.94444 63.84094
1644.89600 271.25714
1642.84756 -694.61676
1640.79912 294.16003
1638.75069 68.23045
1636.70225 40.77290
1634.65381 59.72280
1632.60537 73.24963
1630.55693 61.44751
1628.50849 66.67362
1626.46006 54.01694
1624.41162 38.51085
1622.36318 53.26031
1620.31474 418.20969
1618.26630 -173.14813
1616.21786 -539.08679
1614.16943 188.18800
1612.12099 127.41325
1610.07255 192.02406
1608.02411 267.98987
1605.97567 210.23212
1603.92723 151.39853
1601.87880 98.75838
1599.83036 92.22363
1597.78192 121.54324
1595.73348 185.46565
1593.68504 149.72736
1591.63660 115.25619
1589.58817 1727.23584
1587.53973 -211.12802
1585.49129 631.88794
1583.44285 131.41174
1581.39441 105.64550
1579.34597 60.59858
1577.29754 35.75153
1575.24910 34.42565
1573.20066 66.27170
1571.15222 415.67889
1569.10378 427.59949
1567.05534 136.14162
1565.00691 112.53725
1562.95847 77.33389
1560.91003 37.95671
1558.86159 20.87129
1556.81315 21.29903
1554.76471 26.66881
1552.71628 54.54063
1550.66784 324.73453
1548.61940 106.08353
1546.57096 33.80754
1544.52252 21.67083
1542.47408 23.07355
1540.42565 62.82365
1538.37721 -266.50702
1536.32877 -753.63696
1534.28033 629.37976
1532.23189 138.61418
1530.18345 75.00475
1528.13501 84.18761
1526.08658 142.82295
1524.03814 143.54813
1521.98970 143.34726
1519.94126 76.22241
1517.89282 42.22879
1515.84438 40.51944
1513.79595 44.30779
1511.74751 33.36863
1509.69907 24.95441
1507.65063 40.08535
1505.60219 429.06223
1503.55375 213.09825
1501.50532 108.25127
1499.45688 84.17596
1497.40844 69.53757
1495.36000 54.09990
1493.31156 46.66637
1491.26312 42.76186
1489.21469 56.95839
1487.16625 200.90434
1485.11781 669.29956
1483.06937 120.33874
1481.02093 74.21793
1478.97249 82.38866
1476.92406 59.69724
1474.87562 37.65802
1472.82718 44.50016
1470.77874 118.74167
1468.73030 205.98338
1466.68186 236.29274
1464.63343 199.41180
1462.58499 107.22633
1460.53655 146.40866
1458.48811 -157.32133
1456.43967 -202.24597
1454.39123 134.94298
1452.34280 109.79746
1450.29436 87.23593
1448.24592 61.85638
1446.19748 99.71232
1444.14904 434.78140
1442.10060 411.70343
1440.05217 321.15726
1438.00373 301.18262
1435.95529 228.93439
1433.90685 167.98680
1431.85841 175.67358
1429.80997 218.33063
1427.76154 168.12238
1425.71310 199.80777
1423.66466 2315.35425
1421.61622 221.12401
1419.56778 67.99246
1417.51934 89.10655
1415.47091 -2608.18286
1413.42247 -140.11342
1411.37403 -117.96073
1409.32559 791.95441
1407.27715 80.56322
1405.22871 119.72131
1403.18028 277.22064
1401.13184 78.19839
1399.08340 48.92573
1397.03496 65.46059
1394.98652 76.80252
1392.93808 58.01526
1390.88965 66.46355
1388.84121 67.60707
1386.79277 49.27410
1384.74433 67.87300
1382.69589 221.22992
1380.64745 132.87892
1378.59901 74.17758
1376.55058 112.12125
1374.50214 317.88553
1372.45370 342.74634
1370.40526 269.33069
1368.35682 489.24872
1366.30838 -346.33228
1364.25995 -254.74774
1362.21151 380.12750
1360.16307 178.88704
1358.11463 249.90897
1356.06619 190.36708
1354.01775 145.12079
1351.96932 151.07559
1349.92088 129.53027
1347.87244 127.17587
1345.82400 151.59380
1343.77556 113.59438
1341.72712 67.90725
1339.67869 50.28959
1337.63025 57.24401
1335.58181 91.16593
1333.53337 157.95569
1331.48493 345.26675
1329.43649 -561.78735
1327.38806 -1500.16418
1325.33962 109.69660
1323.29118 56.28381
1321.24274 44.19690
1319.19430 42.71001
1317.14586 51.53482
1315.09743 62.68769
1313.04899 89.62070
1311.00055 181.67711
1308.95211 249.37111
1306.90367 215.50443
1304.85523 162.84222
1302.80680 122.49610
1300.75836 98.61411
1298.70992 71.82995
1296.66148 67.99180
1294.61304 98.31738
1292.56460 183.38138
1290.51617 -948.61804
1288.46773 -229.84966
1286.41929 146.75479
1284.37085 46.89606
1282.32241 39.35028
1280.27397 51.40141
1278.22554 66.52659
1276.17710 52.67358
1274.12866 56.38705
1272.08022 124.18848
1270.03178 513.11633
1267.98334 735.56281
1265.93491 132.78978
1263.88647 52.40393
1261.83803 38.05047
1259.78959 41.60479
1257.74115 58.96649
1255.69271 72.36010
1253.64428 69.96291
1251.59584 82.77840
1249.54740 115.12815
1247.49896 197.00197
1245.45052 201.56464
1243.40208 122.11461
1241.35364 89.70566
1239.30521 119.60319
1237.25677 155.69435
1235.20833 108.59724
1233.15989 72.40972
1231.11145 60.95831
1229.06301 79.94856
1227.01458 153.18668
1224.96614 129.16466
1222.91770 113.76127
1220.86926 404.69092
1218.82082 -156.96429
1216.77238 -90.50160
1214.72395 -97.69694
1212.67551 444.15411
1210.62707 58.01167
1208.57863 53.45871
1206.53019 73.65090
1204.48175 111.78474
1202.43332 105.80632
1200.38488 74.46951
1198.33644 70.49190
1196.28800 62.88250
1194.23956 67.13799
1192.19112 170.95944
1190.14269 713.56903
1188.09425 148.12895
1186.04581 88.78208
1183.99737 122.94765
1181.94893 342.11734
1179.90049 830.26709
1177.85206 210.88933
1175.80362 141.83699
1173.75518 213.77083
1171.70674 426.45013
1169.65830 150.89610
1167.60986 93.22675
1165.56143 299.30585
1163.51299 -215.91020
1161.46455 -205.98978
1159.41611 -135.15787
1157.36767 -106.04800
1155.31923 532.07617
1153.27080 56.13498
1151.22236 54.53871
1149.17392 87.81467
1147.12548 143.28223
1145.07704 -2387.93188
1143.02860 -201.66687
1140.98017 313.25623
1138.93173 53.67590
1136.88329 38.80779
1134.83485 59.19658
1132.78641 -591.34814
1130.73797 -60.38552
1128.68954 -91.55974
1126.64110 133.18013
1124.59266 159.92226
1122.54422 -115.66570
1120.49578 -90.37974
1118.44734 -176.53558
1116.39891 -85.64143
1114.35047 -46.30538
1112.30203 -78.39285
1110.25359 109.27773
1108.20515 31.99927
1106.15671 26.05626
1104.10827 34.38869
1102.05984 76.81733
1100.01140 -298.70905
1097.96296 -65.27781
1095.91452 -73.86851
1093.86608 1254.71899
1091.81764 160.40417
1089.76921 197.90491
1087.72077 63.87842
1085.67233 38.07971
1083.62389 61.60598
1081.57545 1180.60132
1079.52701 -667.27704
1077.47858 -3923.83179
1075.43014 299.79385
1073.38170 66.02990
1071.33326 69.37373
1069.28482 -927.11450
1067.23638 -146.97531
1065.18795 2106.01172
1063.13951 162.99185
1061.09107 73.36733
1059.04263 35.55704
1056.99419 34.99805
1054.94575 85.26615
1052.89732 230.90363
1050.84888 53.13264
1048.80044 24.54871
1046.75200 23.64219
1044.70356 37.22849
1042.65512 45.47185
1040.60669 34.71026
1038.55825 38.05643
1036.50981 44.51374
1034.46137 39.16918
1032.41293 37.93636
1030.36449 34.37389
1028.31606 34.19041
1026.26762 52.15374
1024.21918 97.39744
1022.17074 69.22358
1020.12230 51.04597
1018.07386 62.61948
1016.02543 96.96897
1013.97699 144.24689
1011.92855 95.44435
1009.88011 91.85833
1007.83167 -274.36163
1005.78323 -97.68830
1003.73480 106.94623
1001.68636 34.30961
999.63792 37.10170
997.58948 50.26806
995.54104 66.90773
993.49260 147.03949
991.44417 89.75986
989.39573 65.24803
987.34729 585.38501
985.29885 -111.64328
983.25041 -226.47874
981.20197 180.64240
979.15354 65.77776
977.10510 42.38009
975.05666 31.49597
973.00822 26.56153
970.95978 25.53967
968.91134 28.18665
966.86290 29.05924
964.81447 26.85621
962.76603 32.99388
960.71759 69.95351
958.66915 3763.03271
956.62071 443.91544
954.57227 51.70889
952.52384 35.20220
950.47540 47.81116
948.42696 54.72829
946.37852 42.84010
944.33008 118.50042
942.28164 -80.98089
940.23321 -210.40619
938.18477 49.12792
936.13633 28.08658
934.08789 24.78531
932.03945 20.01115
929.99101 22.41726
927.94258 36.39085
925.89414 38.59315
923.84570 36.68045
921.79726 29.59339
919.74882 20.18192
917.70038 20.99089
915.65195 33.09025
913.60351 25.18653
911.55507 16.01338
909.50663 20.61341
907.45819 50.63329
905.40975 -393.88547
903.36132 -68.14387
901.31288 -92.12995
899.26444 -838.77832
897.21600 61.09869
895.16756 42.01756
893.11912 118.86135
891.07069 -1390.80957
889.02225 59.17008
886.97381 23.03153
884.92537 18.72853
882.87693 18.92131
880.82849 17.37039
878.78006 21.75649
876.73162 43.13526
874.68318 60.23814
872.63474 66.79696
870.58630 -374.10074
868.53786 -291.80481
866.48943 42.46806
864.44099 37.90141
862.39255 -416.30283
860.34411 -77.00816
858.29567 45.16531
856.24723 13.57971
854.19880 9.94725
852.15036 10.87722
850.10192 20.68820
848.05348 -158.31387
846.00504 -30.48280
843.95660 -55.94999
841.90817 78.84791
839.85973 17.78707
837.81129 9.83904
835.76285 9.89820
833.71441 32.63779
831.66597 -51.39784
829.61753 69.91237
827.56910 13.70433
825.52066 9.08367
823.47222 7.97378
821.42378 8.42972
819.37534 8.24316
817.32690 6.33242
815.27847 5.46515
813.23003 6.65638
811.18159 11.65287
809.13315 26.89515
807.08471 -86.58041
805.03627 -14.55154
802.98784 -20.71026
800.93940 11.05666
798.89096 4.98331
796.84252 5.41555
794.79408 6.07839
792.74564 4.36579
790.69721 3.54105
788.64877 4.95574
786.60033 16.32446
784.55189 139.44116
782.50345 10.55131
780.45501 3.90957
778.40658 2.89301
776.35814 3.09693
774.30970 3.51841
772.26126 3.61458
770.21282 5.48474
768.16438 24.37815
766.11595 13.49835
764.06751 3.98649
762.01907 2.61366
759.97063 2.61739
757.92219 3.91741
755.87375 5.17519
753.82532 3.24589
751.77688 2.63140
749.72844 3.74976
747.68000 6.46105
745.63156 4.28971
743.58312 2.23986
741.53469 1.78145
739.48625 1.94158
737.43781 1.71621
735.38937 1.37773
733.34093 1.32654
731.29249 1.64096
729.24406 2.28680
727.19562 2.56650
725.14718 2.07351
723.09874 1.39123
721.05030 0.78195
719.00186 0.51437
716.95343 0.56794
714.90499 1.10913
712.85655 1.29602
710.80811 0.41219
708.75967 0.27679
706.71123 0.44774
704.66280 0.80461
702.61436 0.47286
700.56592 0.37139
698.51748 0.51160
696.46904 0.99506
694.42060 1.83944
692.37216 -2.14242
690.32373 -0.61532
688.27529 7.12073
686.22685 0.56210
684.17841 2.21188
682.12997 -2.00493
680.08153 -3.89384
678.03310 1.66399
675.98466 0.81231
673.93622 0.66880
671.88778 0.73987
669.83934 0.82761
667.79090 1.04929
665.74247 2.11642
663.69403 5.64223
661.64559 13.82748
659.59715 24.54637
657.54871 34.91064
655.50027 24.52993
653.45184 9.48167
651.40340 5.79565
649.35496 6.20941
647.30652 12.79083
645.25808 -48.34793
643.20964 -14.03561
641.16121 -26.11453
639.11277 25.83502
637.06433 9.27616
635.01589 6.55412
632.96745 7.64122
630.91901 43.04723
628.87058 -29.30683
626.82214 -59.83970
624.77370 142.87564
622.72526 26.16140
620.67682 25.85144
618.62838 27.79936
616.57995 12.85336
614.53151 10.09204
612.48307 11.64500
610.43463 12.49763
608.38619 13.43639
606.33775 14.43279
604.28932 12.68732
602.24088 8.51931
600.19244 6.65442
598.14400 7.46808
