3996.50324 0.00748
3994.45480 0.00741
3992.40636 0.00739
3990.35792 0.00742
3988.30948 0.00744
3986.26104 0.00746
3984.21261 0.00744
3982.16417 0.00733
3980.11573 0.00721
3978.06729 0.00717
3976.01885 0.00718
3973.97041 0.00721
3971.92198 0.00720
3969.87354 0.00715
3967.82510 0.00711
3965.77666 0.00710
3963.72822 0.00708
3961.67978 0.00704
3959.63135 0.00702
3957.58291 0.00703
3955.53447 0.00699
3953.48603 0.00697
3951.43759 0.00703
3949.38915 0.00710
3947.34072 0.00712
3945.29228 0.00716
3943.24384 0.00715
3941.19540 0.00712
3939.14696 0.00714
3937.09852 0.00714
3935.05009 0.00710
3933.00165 0.00709
3930.95321 0.00713
3928.90477 0.00719
3926.85633 0.00719
3924.80789 0.00713
3922.75946 0.00707
3920.71102 0.00718
3918.66258 0.00738
3916.61414 0.00748
3914.56570 0.00747
3912.51726 0.00743
3910.46883 0.00739
3908.42039 0.00735
3906.37195 0.00729
3904.32351 0.00726
3902.27507 0.00730
3900.22663 0.00740
3898.17820 0.00744
3896.12976 0.00741
3894.08132 0.00735
3892.03288 0.00730
3889.98444 0.00727
3887.93600 0.00731
3885.88756 0.00734
3883.83913 0.00729
3881.79069 0.00722
3879.74225 0.00720
3877.69381 0.00721
3875.64537 0.00724
3873.59693 0.00724
3871.54850 0.00718
3869.50006 0.00714
3867.45162 0.00717
3865.40318 0.00718
3863.35474 0.00717
3861.30630 0.00717
3859.25787 0.00721
3857.20943 0.00725
3855.16099 0.00722
3853.11255 0.00707
3851.06411 0.00704
3849.01567 0.00708
3846.96724 0.00709
3844.91880 0.00710
3842.87036 0.00710
3840.82192 0.00720
3838.77348 0.00736
3836.72504 0.00734
3834.67661 0.00722
3832.62817 0.00723
3830.57973 0.00739
3828.53129 0.00751
3826.48285 0.00746
3824.43441 0.00741
3822.38598 0.00745
3820.33754 0.00744
3818.28910 0.00736
3816.24066 0.00738
3814.19222 0.00751
3812.14378 0.00761
3810.09535 0.00770
3808.04691 0.00778
3805.99847 0.00782
3803.95003 0.00785
3801.90159 0.00785
3799.85315 0.00782
3797.80472 0.00784
3795.75628 0.00788
3793.70784 0.00792
3791.65940 0.00795
3789.61096 0.00796
3787.56252 0.00793
3785.51409 0.00788
3783.46565 0.00790
3781.41721 0.00797
3779.36877 0.00795
3777.32033 0.00788
3775.27189 0.00784
3773.22346 0.00778
3771.17502 0.00771
3769.12658 0.00774
3767.07814 0.00782
3765.02970 0.00786
3762.98126 0.00790
3760.93283 0.00797
3758.88439 0.00794
3756.83595 0.00778
3754.78751 0.00764
3752.73907 0.00754
3750.69063 0.00746
3748.64219 0.00749
3746.59376 0.00756
3744.54532 0.00750
3742.49688 0.00739
3740.44844 0.00737
3738.40000 0.00735
3736.35156 0.00736
3734.30313 0.00744
3732.25469 0.00745
3730.20625 0.00746
3728.15781 0.00748
3726.10937 0.00746
3724.06093 0.00745
3722.01250 0.00749
3719.96406 0.00745
3717.91562 0.00737
3715.86718 0.00737
3713.81874 0.00746
3711.77030 0.00763
3709.72187 0.00759
3707.67343 0.00741
3705.62499 0.00732
3703.57655 0.00724
3701.52811 0.00717
3699.47967 0.00722
3697.43124 0.00731
3695.38280 0.00738
3693.33436 0.00744
3691.28592 0.00745
3689.23748 0.00746
3687.18904 0.00753
3685.14061 0.00752
3683.09217 0.00747
3681.04373 0.00745
3678.99529 0.00748
3676.94685 0.00749
3674.89841 0.00735
3672.84998 0.00718
3670.80154 0.00703
3668.75310 0.00695
3666.70466 0.00700
3664.65622 0.00704
3662.60778 0.00702
3660.55935 0.00700
3658.51091 0.00696
3656.46247 0.00686
3654.41403 0.00677
3652.36559 0.00679
3650.31715 0.00683
3648.26872 0.00660
3646.22028 0.00635
3644.17184 0.00630
3642.12340 0.00627
3640.07496 0.00616
3638.02652 0.00606
3635.97809 0.00602
3633.92965 0.00599
3631.88121 0.00596
3629.83277 0.00595
3627.78433 0.00590
3625.73589 0.00586
3623.68746 0.00583
3621.63902 0.00584
3619.59058 0.00583
3617.54214 0.00580
3615.49370 0.00583
3613.44526 0.00584
3611.39682 0.00584
3609.34839 0.00588
3607.29995 0.00585
3605.25151 0.00579
3603.20307 0.00587
3601.15463 0.00602
3599.10619 0.00612
3597.05776 0.00619
3595.00932 0.00618
3592.96088 0.00612
3590.91244 0.00610
3588.86400 0.00609
3586.81556 0.00611
3584.76713 0.00616
3582.71869 0.00614
3580.67025 0.00615
3578.62181 0.00622
3576.57337 0.00622
3574.52493 0.00616
3572.47650 0.00613
3570.42806 0.00613
3568.37962 0.00618
3566.33118 0.00617
3564.28274 0.00607
3562.23430 0.00598
3560.18587 0.00592
3558.13743 0.00596
3556.08899 0.00602
3554.04055 0.00600
3551.99211 0.00594
3549.94367 0.00590
3547.89524 0.00583
3545.84680 0.00576
3543.79836 0.00575
3541.74992 0.00573
3539.70148 0.00564
3537.65304 0.00555
3535.60461 0.00552
3533.55617 0.00557
3531.50773 0.00556
3529.45929 0.00548
3527.41085 0.00534
3525.36241 0.00519
3523.31398 0.00512
3521.26554 0.00513
3519.21710 0.00515
3517.16866 0.00517
3515.12022 0.00515
3513.07178 0.00515
3511.02335 0.00519
3508.97491 0.00525
3506.92647 0.00534
3504.87803 0.00545
3502.82959 0.00550
3500.78115 0.00543
3498.73272 0.00535
3496.68428 0.00534
3494.63584 0.00539
3492.58740 0.00545
3490.53896 0.00552
3488.49052 0.00559
3486.44209 0.00561
3484.39365 0.00560
3482.34521 0.00566
3480.29677 0.00574
3478.24833 0.00577
3476.19989 0.00580
3474.15146 0.00583
3472.10302 0.00582
3470.05458 0.00578
3468.00614 0.00576
3465.95770 0.00577
3463.90926 0.00581
3461.86082 0.00582
3459.81239 0.00582
3457.76395 0.00581
3455.71551 0.00574
3453.66707 0.00565
3451.61863 0.00565
3449.57019 0.00570
3447.52176 0.00568
3445.47332 0.00558
3443.42488 0.00551
3441.37644 0.00549
3439.32800 0.00553
3437.27956 0.00561
3435.23113 0.00564
3433.18269 0.00558
3431.13425 0.00546
3429.08581 0.00536
3427.03737 0.00534
3424.98893 0.00536
3422.94050 0.00535
3420.89206 0.00526
3418.84362 0.00514
3416.79518 0.00503
3414.74674 0.00493
3412.69830 0.00492
3410.64987 0.00497
3408.60143 0.00499
3406.55299 0.00497
3404.50455 0.00495
3402.45611 0.00496
3400.40767 0.00501
3398.35924 0.00505
3396.31080 0.00504
3394.26236 0.00505
3392.21392 0.00508
3390.16548 0.00511
3388.11704 0.00519
3386.06861 0.00526
3384.02017 0.00527
3381.97173 0.00529
3379.92329 0.00538
3377.87485 0.00546
3375.82641 0.00549
3373.77798 0.00546
3371.72954 0.00548
3369.68110 0.00560
3367.63266 0.00569
3365.58422 0.00569
3363.53578 0.00565
3361.48735 0.00562
3359.43891 0.00565
3357.39047 0.00576
3355.34203 0.00586
3353.29359 0.00591
3351.24515 0.00592
3349.19672 0.00590
3347.14828 0.00586
3345.09984 0.00579
3343.05140 0.00574
3341.00296 0.00576
3338.95452 0.00578
3336.90609 0.00576
3334.85765 0.00572
3332.80921 0.00568
3330.76077 0.00562
3328.71233 0.00558
3326.66389 0.00556
3324.61545 0.00556
3322.56702 0.00561
3320.51858 0.00566
3318.47014 0.00562
3316.42170 0.00551
3314.37326 0.00543
3312.32482 0.00540
3310.27639 0.00536
3308.22795 0.00529
3306.17951 0.00523
3304.13107 0.00522
3302.08263 0.00527
3300.03419 0.00532
3297.98576 0.00536
3295.93732 0.00539
3293.88888 0.00541
3291.84044 0.00540
3289.79200 0.00541
3287.74356 0.00543
3285.69513 0.00546
3283.64669 0.00549
3281.59825 0.00553
3279.54981 0.00556
3277.50137 0.00559
3275.45293 0.00569
3273.40450 0.00584
3271.35606 0.00593
3269.30762 0.00594
3267.25918 0.00596
3265.21074 0.00599
3263.16230 0.00599
3261.11387 0.00597
3259.06543 0.00604
3257.01699 0.00619
3254.96855 0.00628
3252.92011 0.00629
3250.87167 0.00630
3248.82324 0.00626
3246.77480 0.00620
3244.72636 0.00619
3242.67792 0.00622
3240.62948 0.00625
3238.58104 0.00626
3236.53261 0.00625
3234.48417 0.00624
3232.43573 0.00622
3230.38729 0.00619
3228.33885 0.00620
3226.29041 0.00621
3224.24198 0.00614
3222.19354 0.00606
3220.14510 0.00605
3218.09666 0.00611
3216.04822 0.00613
3213.99978 0.00607
3211.95135 0.00598
3209.90291 0.00594
3207.85447 0.00594
3205.80603 0.00590
3203.75759 0.00579
3201.70915 0.00569
3199.66072 0.00567
3197.61228 0.00570
3195.56384 0.00571
3193.51540 0.00569
3191.46696 0.00565
3189.41852 0.00562
3187.37008 0.00565
3185.32165 0.00569
3183.27321 0.00568
3181.22477 0.00563
3179.17633 0.00563
3177.12789 0.00567
3175.07945 0.00568
3173.03102 0.00567
3170.98258 0.00568
3168.93414 0.00575
3166.88570 0.00585
3164.83726 0.00594
3162.78882 0.00602
3160.74039 0.00603
3158.69195 0.00604
3156.64351 0.00613
3154.59507 0.00624
3152.54663 0.00626
3150.49819 0.00621
3148.44976 0.00622
3146.40132 0.00633
3144.35288 0.00644
3142.30444 0.00648
3140.25600 0.00649
3138.20756 0.00651
3136.15913 0.00651
3134.11069 0.00652
3132.06225 0.00655
3130.01381 0.00654
3127.96537 0.00649
3125.91693 0.00646
3123.86850 0.00642
3121.82006 0.00637
3119.77162 0.00636
3117.72318 0.00638
3115.67474 0.00640
3113.62630 0.00640
3111.57787 0.00636
3109.52943 0.00632
3107.48099 0.00631
3105.43255 0.00629
3103.38411 0.00624
3101.33567 0.00617
3099.28724 0.00614
3097.23880 0.00614
3095.19036 0.00617
3093.14192 0.00615
3091.09348 0.00609
3089.04504 0.00607
3086.99661 0.00607
3084.94817 0.00609
3082.89973 0.00612
3080.85129 0.00613
3078.80285 0.00613
3076.75441 0.00615
3074.70598 0.00618
3072.65754 0.00619
3070.60910 0.00620
3068.56066 0.00619
3066.51222 0.00619
3064.46378 0.00623
3062.41535 0.00628
3060.36691 0.00631
3058.31847 0.00637
3056.27003 0.00648
3054.22159 0.00658
3052.17315 0.00668
3050.12471 0.00673
3048.07628 0.00676
3046.02784 0.00682
3043.97940 0.00694
3041.93096 0.00702
3039.88252 0.00705
3037.83408 0.00708
3035.78565 0.00714
3033.73721 0.00721
3031.68877 0.00726
3029.64033 0.00729
3027.59189 0.00733
3025.54345 0.00737
3023.49502 0.00738
3021.44658 0.00740
3019.39814 0.00745
3017.34970 0.00747
3015.30126 0.00745
3013.25282 0.00745
3011.20439 0.00746
3009.15595 0.00740
3007.10751 0.00735
3005.05907 0.00732
3003.01063 0.00729
3000.96219 0.00726
2998.91376 0.00727
2996.86532 0.00726
2994.81688 0.00724
2992.76844 0.00722
2990.72000 0.00719
2988.67156 0.00714
2986.62313 0.00706
2984.57469 0.00703
2982.52625 0.00701
2980.47781 0.00696
2978.42937 0.00693
2976.38093 0.00692
2974.33250 0.00691
2972.28406 0.00687
2970.23562 0.00683
2968.18718 0.00681
2966.13874 0.00683
2964.09030 0.00683
2962.04187 0.00679
2959.99343 0.00678
2957.94499 0.00681
2955.89655 0.00683
2953.84811 0.00687
2951.79967 0.00693
2949.75124 0.00696
2947.70280 0.00700
2945.65436 0.00709
2943.60592 0.00715
2941.55748 0.00718
2939.50904 0.00722
2937.46061 0.00729
2935.41217 0.00731
2933.36373 0.00729
2931.31529 0.00731
2929.26685 0.00735
2927.21841 0.00738
2925.16998 0.00740
2923.12154 0.00742
2921.07310 0.00746
2919.02466 0.00749
2916.97622 0.00754
2914.92778 0.00757
2912.87934 0.00756
2910.83091 0.00756
2908.78247 0.00762
2906.73403 0.00774
2904.68559 0.00780
2902.63715 0.00776
2900.58871 0.00773
2898.54028 0.00776
2896.49184 0.00775
2894.44340 0.00770
2892.39496 0.00766
2890.34652 0.00761
2888.29808 0.00754
2886.24965 0.00751
2884.20121 0.00748
2882.15277 0.00745
2880.10433 0.00742
2878.05589 0.00736
2876.00745 0.00729
2873.95902 0.00727
2871.91058 0.00727
2869.86214 0.00721
2867.81370 0.00717
2865.76526 0.00717
2863.71682 0.00715
2861.66839 0.00712
2859.61995 0.00708
2857.57151 0.00707
2855.52307 0.00709
2853.47463 0.00711
2851.42619 0.00716
2849.37776 0.00722
2847.32932 0.00727
2845.28088 0.00732
2843.23244 0.00739
2841.18400 0.00746
2839.13556 0.00754
2837.08713 0.00763
2835.03869 0.00770
2832.99025 0.00775
2830.94181 0.00784
2828.89337 0.00795
2826.84493 0.00805
2824.79650 0.00809
2822.74806 0.00811
2820.69962 0.00817
2818.65118 0.00824
2816.60274 0.00829
2814.55430 0.00835
2812.50587 0.00843
2810.45743 0.00848
2808.40899 0.00851
2806.36055 0.00856
2804.31211 0.00860
2802.26367 0.00862
2800.21524 0.00861
2798.16680 0.00863
2796.11836 0.00868
2794.06992 0.00869
2792.02148 0.00867
2789.97304 0.00867
2787.92461 0.00869
2785.87617 0.00869
2783.82773 0.00865
2781.77929 0.00862
2779.73085 0.00859
2777.68241 0.00857
2775.63397 0.00857
2773.58554 0.00858
2771.53710 0.00855
2769.48866 0.00851
2767.44022 0.00848
2765.39178 0.00845
2763.34334 0.00842
2761.29491 0.00838
2759.24647 0.00833
2757.19803 0.00825
2755.14959 0.00822
2753.10115 0.00826
2751.05271 0.00832
2749.00428 0.00833
2746.95584 0.00826
2744.90740 0.00820
2742.85896 0.00822
2740.81052 0.00830
2738.76208 0.00837
2736.71365 0.00839
2734.66521 0.00843
2732.61677 0.00849
2730.56833 0.00858
2728.51989 0.00865
2726.47145 0.00871
2724.42302 0.00877
2722.37458 0.00884
2720.32614 0.00891
2718.27770 0.00897
2716.22926 0.00906
2714.18082 0.00915
2712.13239 0.00920
2710.08395 0.00920
2708.03551 0.00921
2705.98707 0.00926
2703.93863 0.00935
2701.89019 0.00939
2699.84176 0.00941
2697.79332 0.00947
2695.74488 0.00953
2693.69644 0.00955
2691.64800 0.00959
2689.59956 0.00962
2687.55113 0.00959
2685.50269 0.00953
2683.45425 0.00951
2681.40581 0.00953
2679.35737 0.00951
2677.30893 0.00943
2675.26050 0.00936
2673.21206 0.00933
2671.16362 0.00934
2669.11518 0.00936
2667.06674 0.00932
2665.01830 0.00927
2662.96987 0.00922
2660.92143 0.00914
2658.87299 0.00909
2656.82455 0.00905
2654.77611 0.00900
2652.72767 0.00896
2650.67924 0.00894
2648.63080 0.00892
2646.58236 0.00892
2644.53392 0.00890
2642.48548 0.00885
2640.43704 0.00884
2638.38860 0.00887
2636.34017 0.00892
2634.29173 0.00898
2632.24329 0.00901
2630.19485 0.00904
2628.14641 0.00905
2626.09797 0.00906
2624.04954 0.00912
2622.00110 0.00922
2619.95266 0.00930
2617.90422 0.00933
2615.85578 0.00939
2613.80734 0.00947
2611.75891 0.00957
2609.71047 0.00967
2607.66203 0.00976
2605.61359 0.00983
2603.56515 0.00990
2601.51671 0.01001
2599.46828 0.01012
2597.41984 0.01017
2595.37140 0.01019
2593.32296 0.01021
2591.27452 0.01022
2589.22608 0.01027
2587.17765 0.01035
2585.12921 0.01040
2583.08077 0.01044
2581.03233 0.01046
2578.98389 0.01046
2576.93545 0.01041
2574.88702 0.01038
2572.83858 0.01039
2570.79014 0.01042
2568.74170 0.01041
2566.69326 0.01038
2564.64482 0.01034
2562.59639 0.01029
2560.54795 0.01023
2558.49951 0.01019
2556.45107 0.01017
2554.40263 0.01015
2552.35419 0.01011
2550.30576 0.01008
2548.25732 0.01009
2546.20888 0.01009
2544.16044 0.01006
2542.11200 0.01004
2540.06356 0.01004
2538.01513 0.01003
2535.96669 0.01002
2533.91825 0.01002
2531.86981 0.01001
2529.82137 0.01000
2527.77293 0.01001
2525.72450 0.01004
2523.67606 0.01009
2521.62762 0.01017
2519.57918 0.01025
2517.53074 0.01031
2515.48230 0.01038
2513.43387 0.01045
2511.38543 0.01048
2509.33699 0.01053
2507.28855 0.01060
2505.24011 0.01066
2503.19167 0.01072
2501.14324 0.01079
2499.09480 0.01090
2497.04636 0.01101
2494.99792 0.01108
2492.94948 0.01111
2490.90104 0.01114
2488.85260 0.01117
2486.80417 0.01121
2484.75573 0.01125
2482.70729 0.01128
2480.65885 0.01129
2478.61041 0.01129
2476.56197 0.01126
2474.51354 0.01122
2472.46510 0.01121
2470.41666 0.01117
2468.36822 0.01113
2466.31978 0.01114
2464.27134 0.01118
2462.22291 0.01119
2460.17447 0.01114
2458.12603 0.01110
2456.07759 0.01107
2454.02915 0.01101
2451.98071 0.01095
2449.93228 0.01090
2447.88384 0.01084
2445.83540 0.01079
2443.78696 0.01074
2441.73852 0.01067
2439.69008 0.01061
2437.64165 0.01061
2435.59321 0.01062
2433.54477 0.01057
2431.49633 0.01053
2429.44789 0.01053
2427.39945 0.01052
2425.35102 0.01052
2423.30258 0.01051
2421.25414 0.01046
2419.20570 0.01044
2417.15726 0.01047
2415.10882 0.01051
2413.06039 0.01054
2411.01195 0.01059
2408.96351 0.01068
2406.91507 0.01075
2404.86663 0.01080
2402.81819 0.01087
2400.76976 0.01095
2398.72132 0.01099
2396.67288 0.01102
2394.62444 0.01107
2392.57600 0.01110
2390.52756 0.01112
2388.47913 0.01117
2386.43069 0.01124
2384.38225 0.01129
2382.33381 0.01135
2380.28537 0.01139
2378.23693 0.01143
2376.18850 0.01147
2374.14006 0.01147
2372.09162 0.01141
2370.04318 0.01124
2367.99474 0.01109
2365.94630 0.01127
2363.89787 0.01163
2361.84943 0.01169
2359.80099 0.01158
2357.75255 0.01165
2355.70411 0.01176
2353.65567 0.01169
2351.60723 0.01157
2349.55880 0.01157
2347.51036 0.01162
2345.46192 0.01164
2343.41348 0.01160
2341.36504 0.01160
2339.31660 0.01160
2337.26817 0.01155
2335.21973 0.01149
2333.17129 0.01149
2331.12285 0.01151
2329.07441 0.01146
2327.02597 0.01138
2324.97754 0.01132
2322.92910 0.01129
2320.88066 0.01131
2318.83222 0.01131
2316.78378 0.01125
2314.73534 0.01124
2312.68691 0.01130
2310.63847 0.01135
2308.59003 0.01137
2306.54159 0.01137
2304.49315 0.01141
2302.44471 0.01149
2300.39628 0.01158
2298.34784 0.01166
2296.29940 0.01173
2294.25096 0.01177
2292.20252 0.01181
2290.15408 0.01188
2288.10565 0.01193
2286.05721 0.01196
2284.00877 0.01202
2281.96033 0.01213
2279.91189 0.01223
2277.86345 0.01229
2275.81502 0.01229
2273.76658 0.01227
2271.71814 0.01228
2269.66970 0.01229
2267.62126 0.01231
2265.57282 0.01235
2263.52439 0.01240
2261.47595 0.01243
2259.42751 0.01243
2257.37907 0.01242
2255.33063 0.01239
2253.28219 0.01240
2251.23376 0.01242
2249.18532 0.01243
2247.13688 0.01246
2245.08844 0.01246
2243.04000 0.01240
2240.99156 0.01232
2238.94313 0.01226
2236.89469 0.01226
2234.84625 0.01228
2232.79781 0.01226
2230.74937 0.01223
2228.70093 0.01220
2226.65250 0.01215
2224.60406 0.01209
2222.55562 0.01200
2220.50718 0.01193
2218.45874 0.01191
2216.41030 0.01189
2214.36186 0.01186
2212.31343 0.01187
2210.26499 0.01187
2208.21655 0.01183
2206.16811 0.01182
2204.11967 0.01183
2202.07123 0.01184
2200.02280 0.01184
2197.97436 0.01184
2195.92592 0.01189
2193.87748 0.01195
2191.82904 0.01201
2189.78060 0.01205
2187.73217 0.01205
2185.68373 0.01208
2183.63529 0.01218
2181.58685 0.01226
2179.53841 0.01230
2177.48997 0.01236
2175.44154 0.01243
2173.39310 0.01244
2171.34466 0.01244
2169.29622 0.01248
2167.24778 0.01248
2165.19934 0.01246
2163.15091 0.01244
2161.10247 0.01244
2159.05403 0.01242
2157.00559 0.01239
2154.95715 0.01239
2152.90871 0.01238
2150.86028 0.01236
2148.81184 0.01236
2146.76340 0.01237
2144.71496 0.01235
2142.66652 0.01229
2140.61808 0.01225
2138.56965 0.01221
2136.52121 0.01218
2134.47277 0.01215
2132.42433 0.01213
2130.37589 0.01209
2128.32745 0.01206
2126.27902 0.01203
2124.23058 0.01200
2122.18214 0.01203
2120.13370 0.01206
2118.08526 0.01204
2116.03682 0.01200
2113.98839 0.01198
2111.93995 0.01200
2109.89151 0.01203
2107.84307 0.01203
2105.79463 0.01203
2103.74619 0.01204
2101.69776 0.01207
2099.64932 0.01215
2097.60088 0.01222
2095.55244 0.01227
2093.50400 0.01231
2091.45556 0.01235
2089.40713 0.01240
2087.35869 0.01248
2085.31025 0.01254
2083.26181 0.01255
2081.21337 0.01260
2079.16493 0.01270
2077.11649 0.01282
2075.06806 0.01292
2073.01962 0.01298
2070.97118 0.01303
2068.92274 0.01310
2066.87430 0.01315
2064.82586 0.01315
2062.77743 0.01318
2060.72899 0.01323
2058.68055 0.01323
2056.63211 0.01323
2054.58367 0.01326
2052.53523 0.01329
2050.48680 0.01328
2048.43836 0.01325
2046.38992 0.01324
2044.34148 0.01325
2042.29304 0.01324
2040.24460 0.01321
2038.19617 0.01319
2036.14773 0.01318
2034.09929 0.01316
2032.05085 0.01316
2030.00241 0.01317
2027.95397 0.01317
2025.90554 0.01315
2023.85710 0.01317
2021.80866 0.01320
2019.76022 0.01319
2017.71178 0.01314
2015.66334 0.01310
2013.61491 0.01312
2011.56647 0.01317
2009.51803 0.01318
2007.46959 0.01319
2005.42115 0.01321
2003.37271 0.01321
2001.32428 0.01319
1999.27584 0.01316
1997.22740 0.01315
1995.17896 0.01316
1993.13052 0.01320
1991.08208 0.01327
1989.03365 0.01333
1986.98521 0.01336
1984.93677 0.01338
1982.88833 0.01339
1980.83989 0.01340
1978.79145 0.01341
1976.74302 0.01343
1974.69458 0.01348
1972.64614 0.01351
1970.59770 0.01352
1968.54926 0.01352
1966.50082 0.01353
1964.45239 0.01355
1962.40395 0.01355
1960.35551 0.01353
1958.30707 0.01348
1956.25863 0.01344
1954.21019 0.01341
1952.16176 0.01338
1950.11332 0.01338
1948.06488 0.01338
1946.01644 0.01336
1943.96800 0.01333
1941.91956 0.01329
1939.87112 0.01329
1937.82269 0.01336
1935.77425 0.01344
1933.72581 0.01348
1931.67737 0.01349
1929.62893 0.01355
1927.58049 0.01364
1925.53206 0.01372
1923.48362 0.01376
1921.43518 0.01376
1919.38674 0.01379
1917.33830 0.01384
1915.28986 0.01386
1913.24143 0.01384
1911.19299 0.01383
1909.14455 0.01381
1907.09611 0.01376
1905.04767 0.01371
1902.99923 0.01368
1900.95080 0.01368
1898.90236 0.01369
1896.85392 0.01370
1894.80548 0.01367
1892.75704 0.01362
1890.70860 0.01362
1888.66017 0.01364
1886.61173 0.01363
1884.56329 0.01362
1882.51485 0.01364
1880.46641 0.01367
1878.41797 0.01368
1876.36954 0.01369
1874.32110 0.01374
1872.27266 0.01381
1870.22422 0.01385
1868.17578 0.01385
1866.12734 0.01385
1864.07891 0.01388
1862.03047 0.01393
1859.98203 0.01396
1857.93359 0.01396
1855.88515 0.01391
1853.83671 0.01385
1851.78828 0.01382
1849.73984 0.01382
1847.69140 0.01385
1845.64296 0.01388
1843.59452 0.01389
1841.54608 0.01386
1839.49765 0.01389
1837.44921 0.01393
1835.40077 0.01392
1833.35233 0.01390
1831.30389 0.01390
1829.25545 0.01390
1827.20702 0.01392
1825.15858 0.01396
1823.11014 0.01400
1821.06170 0.01404
1819.01326 0.01408
1816.96482 0.01410
1814.91639 0.01414
1812.86795 0.01418
1810.81951 0.01422
1808.77107 0.01425
1806.72263 0.01427
1804.67419 0.01429
1802.62575 0.01432
1800.57732 0.01438
1798.52888 0.01443
1796.48044 0.01448
1794.43200 0.01452
1792.38356 0.01449
1790.33512 0.01441
1788.28669 0.01437
1786.23825 0.01435
1784.18981 0.01433
1782.14137 0.01431
1780.09293 0.01427
1778.04449 0.01425
1775.99606 0.01427
1773.94762 0.01432
1771.89918 0.01433
1769.85074 0.01428
1767.80230 0.01427
1765.75386 0.01428
1763.70543 0.01429
1761.65699 0.01426
1759.60855 0.01421
1757.56011 0.01420
1755.51167 0.01421
1753.46323 0.01427
1751.41480 0.01434
1749.36636 0.01429
1747.31792 0.01422
1745.26948 0.01422
1743.22104 0.01426
1741.17260 0.01429
1739.12417 0.01425
1737.07573 0.01421
1735.02729 0.01423
1732.97885 0.01420
1730.93041 0.01414
1728.88197 0.01414
1726.83354 0.01413
1724.78510 0.01409
1722.73666 0.01406
1720.68822 0.01405
1718.63978 0.01399
1716.59134 0.01387
1714.54291 0.01380
1712.49447 0.01379
1710.44603 0.01376
1708.39759 0.01371
1706.34915 0.01361
1704.30071 0.01352
1702.25228 0.01352
1700.20384 0.01347
1698.15540 0.01320
1696.10696 0.01293
1694.05852 0.01285
1692.01008 0.01284
1689.96165 0.01276
1687.91321 0.01262
1685.86477 0.01246
1683.81633 0.01220
1681.76789 0.01200
1679.71945 0.01193
1677.67102 0.01186
1675.62258 0.01173
1673.57414 0.01159
1671.52570 0.01146
1669.47726 0.01123
1667.42882 0.01108
1665.38038 0.01106
1663.33195 0.01103
1661.28351 0.01096
1659.23507 0.01091
1657.18663 0.01090
1655.13819 0.01091
1653.08975 0.01093
1651.04132 0.01097
1648.99288 0.01102
1646.94444 0.01106
1644.89600 0.01106
1642.84756 0.01110
1640.79912 0.01115
1638.75069 0.01118
1636.70225 0.01119
1634.65381 0.01119
1632.60537 0.01122
1630.55693 0.01126
1628.50849 0.01129
1626.46006 0.01132
1624.41162 0.01137
1622.36318 0.01140
1620.31474 0.01142
1618.26630 0.01146
1616.21786 0.01152
1614.16943 0.01159
1612.12099 0.01164
1610.07255 0.01165
1608.02411 0.01164
1605.97567 0.01167
1603.92723 0.01168
1601.87880 0.01167
1599.83036 0.01167
1597.78192 0.01168
1595.73348 0.01165
1593.68504 0.01161
1591.63660 0.01157
1589.58817 0.01151
1587.53973 0.01145
1585.49129 0.01142
1583.44285 0.01136
1581.39441 0.01129
1579.34597 0.01128
1577.29754 0.01125
1575.24910 0.01118
1573.20066 0.01119
1571.15222 0.01118
1569.10378 0.01112
1567.05534 0.01110
1565.00691 0.01112
1562.95847 0.01112
1560.91003 0.01108
1558.86159 0.01104
1556.81315 0.01112
1554.76471 0.01110
1552.71628 0.01104
1550.66784 0.01104
1548.61940 0.01108
1546.57096 0.01111
1544.52252 0.01110
1542.47408 0.01103
1540.42565 0.01100
1538.37721 0.01109
1536.32877 0.01114
1534.28033 0.01112
1532.23189 0.01107
1530.18345 0.01109
1528.13501 0.01110
1526.08658 0.01106
1524.03814 0.01097
1521.98970 0.01086
1519.94126 0.01088
1517.89282 0.01099
1515.84438 0.01113
1513.79595 0.01123
1511.74751 0.01127
1509.69907 0.01127
1507.65063 0.01140
1505.60219 0.01169
1503.55375 0.01181
1501.50532 0.01187
1499.45688 0.01191
1497.40844 0.01198
1495.36000 0.01211
1493.31156 0.01224
1491.26312 0.01235
1489.21469 0.01245
1487.16625 0.01253
1485.11781 0.01257
1483.06937 0.01262
1481.02093 0.01269
1478.97249 0.01277
1476.92406 0.01282
1474.87562 0.01283
1472.82718 0.01284
1470.77874 0.01291
1468.73030 0.01301
1466.68186 0.01309
1464.63343 0.01318
1462.58499 0.01332
1460.53655 0.01345
1458.48811 0.01351
1456.43967 0.01352
1454.39123 0.01365
1452.34280 0.01383
1450.29436 0.01400
1448.24592 0.01416
1446.19748 0.01428
1444.14904 0.01437
1442.10060 0.01448
1440.05217 0.01459
1438.00373 0.01469
1435.95529 0.01478
1433.90685 0.01488
1431.85841 0.01495
1429.80997 0.01498
1427.76154 0.01502
1425.71310 0.01508
1423.66466 0.01508
1421.61622 0.01502
1419.56778 0.01491
1417.51934 0.01482
1415.47091 0.01478
1413.42247 0.01473
1411.37403 0.01464
1409.32559 0.01453
1407.27715 0.01441
1405.22871 0.01427
1403.18028 0.01415
1401.13184 0.01408
1399.08340 0.01400
1397.03496 0.01391
1394.98652 0.01388
1392.93808 0.01387
1390.88965 0.01382
1388.84121 0.01373
1386.79277 0.01368
1384.74433 0.01368
1382.69589 0.01372
1380.64745 0.01374
1378.59901 0.01371
1376.55058 0.01362
1374.50214 0.01358
1372.45370 0.01365
1370.40526 0.01378
1368.35682 0.01390
1366.30838 0.01398
1364.25995 0.01406
1362.21151 0.01421
1360.16307 0.01433
1358.11463 0.01441
1356.06619 0.01453
1354.01775 0.01473
1351.96932 0.01491
1349.92088 0.01503
1347.87244 0.01514
1345.82400 0.01523
1343.77556 0.01530
1341.72712 0.01541
1339.67869 0.01553
1337.63025 0.01560
1335.58181 0.01561
1333.53337 0.01562
1331.48493 0.01559
1329.43649 0.01552
1327.38806 0.01544
1325.33962 0.01535
1323.29118 0.01525
1321.24274 0.01515
1319.19430 0.01499
1317.14586 0.01481
1315.09743 0.01463
1313.04899 0.01449
1311.00055 0.01438
1308.95211 0.01426
1306.90367 0.01412
1304.85523 0.01401
1302.80680 0.01396
1300.75836 0.01391
1298.70992 0.01384
1296.66148 0.01378
1294.61304 0.01376
1292.56460 0.01375
1290.51617 0.01372
1288.46773 0.01370
1286.41929 0.01372
1284.37085 0.01373
1282.32241 0.01369
1280.27397 0.01365
1278.22554 0.01363
1276.17710 0.01362
1274.12866 0.01365
1272.08022 0.01369
1270.03178 0.01372
1267.98334 0.01377
1265.93491 0.01380
1263.88647 0.01382
1261.83803 0.01382
1259.78959 0.01383
1257.74115 0.01389
1255.69271 0.01396
1253.64428 0.01402
1251.59584 0.01408
1249.54740 0.01413
1247.49896 0.01413
1245.45052 0.01414
1243.40208 0.01417
1241.35364 0.01413
1239.30521 0.01403
1237.25677 0.01389
1235.20833 0.01375
1233.15989 0.01359
1231.11145 0.01339
1229.06301 0.01317
1227.01458 0.01298
1224.96614 0.01278
1222.91770 0.01252
1220.86926 0.01226
1218.82082 0.01207
1216.77238 0.01193
1214.72395 0.01177
1212.67551 0.01158
1210.62707 0.01137
1208.57863 0.01118
1206.53019 0.01100
1204.48175 0.01084
1202.43332 0.01072
1200.38488 0.01060
1198.33644 0.01048
1196.28800 0.01036
1194.23956 0.01022
1192.19112 0.01002
1190.14269 0.00978
1188.09425 0.00957
1186.04581 0.00940
1183.99737 0.00922
1181.94893 0.00902
1179.90049 0.00882
1177.85206 0.00861
1175.80362 0.00842
1173.75518 0.00830
1171.70674 0.00821
1169.65830 0.00809
1167.60986 0.00798
1165.56143 0.00791
1163.51299 0.00787
1161.46455 0.00783
1159.41611 0.00781
1157.36767 0.00780
1155.31923 0.00778
1153.27080 0.00777
1151.22236 0.00779
1149.17392 0.00777
1147.12548 0.00773
1145.07704 0.00770
1143.02860 0.00768
1140.98017 0.00763
1138.93173 0.00759
1136.88329 0.00755
1134.83485 0.00752
1132.78641 0.00750
1130.73797 0.00748
1128.68954 0.00740
1126.64110 0.00728
1124.59266 0.00719
1122.54422 0.00709
1120.49578 0.00694
1118.44734 0.00680
1116.39891 0.00674
1114.35047 0.00672
1112.30203 0.00664
1110.25359 0.00657
1108.20515 0.00658
1106.15671 0.00663
1104.10827 0.00663
1102.05984 0.00661
1100.01140 0.00664
1097.96296 0.00670
1095.91452 0.00671
1093.86608 0.00665
1091.81764 0.00662
1089.76921 0.00664
1087.72077 0.00667
1085.67233 0.00667
1083.62389 0.00662
1081.57545 0.00651
1079.52701 0.00643
1077.47858 0.00640
1075.43014 0.00638
1073.38170 0.00636
1071.33326 0.00635
1069.28482 0.00632
1067.23638 0.00631
1065.18795 0.00631
1063.13951 0.00629
1061.09107 0.00628
1059.04263 0.00625
1056.99419 0.00620
1054.94575 0.00616
1052.89732 0.00614
1050.84888 0.00613
1048.80044 0.00610
1046.75200 0.00602
1044.70356 0.00593
1042.65512 0.00589
1040.60669 0.00587
1038.55825 0.00585
1036.50981 0.00582
1034.46137 0.00584
1032.41293 0.00586
1030.36449 0.00582
1028.31606 0.00576
1026.26762 0.00571
1024.21918 0.00565
1022.17074 0.00560
1020.12230 0.00555
1018.07386 0.00550
1016.02543 0.00549
1013.97699 0.00552
1011.92855 0.00555
1009.88011 0.00560
1007.83167 0.00565
1005.78323 0.00563
1003.73480 0.00558
1001.68636 0.00556
999.63792 0.00555
997.58948 0.00555
995.54104 0.00558
993.49260 0.00563
991.44417 0.00567
989.39573 0.00568
987.34729 0.00568
985.29885 0.00568
983.25041 0.00569
981.20197 0.00564
979.15354 0.00557
977.10510 0.00555
975.05666 0.00556
973.00822 0.00551
970.95978 0.00540
968.91134 0.00526
966.86290 0.00513
964.81447 0.00505
962.76603 0.00500
960.71759 0.00496
958.66915 0.00490
956.62071 0.00481
954.57227 0.00469
952.52384 0.00460
950.47540 0.00462
948.42696 0.00463
946.37852 0.00455
944.33008 0.00445
942.28164 0.00446
940.23321 0.00450
938.18477 0.00452
936.13633 0.00453
934.08789 0.00454
932.03945 0.00455
929.99101 0.00457
927.94258 0.00455
925.89414 0.00453
923.84570 0.00450
921.79726 0.00444
919.74882 0.00439
917.70038 0.00438
915.65195 0.00438
913.60351 0.00436
911.55507 0.00437
909.50663 0.00440
907.45819 0.00442
905.40975 0.00442
903.36132 0.00442
901.31288 0.00443
899.26444 0.00442
897.21600 0.00445
895.16756 0.00452
893.11912 0.00456
891.07069 0.00457
889.02225 0.00459
886.97381 0.00465
884.92537 0.00468
882.87693 0.00464
880.82849 0.00461
878.78006 0.00465
876.73162 0.00466
874.68318 0.00461
872.63474 0.00458
870.58630 0.00460
868.53786 0.00460
866.48943 0.00454
864.44099 0.00453
862.39255 0.00460
860.34411 0.00469
858.29567 0.00473
856.24723 0.00468
854.19880 0.00466
852.15036 0.00479
850.10192 0.00497
848.05348 0.00500
846.00504 0.00491
843.95660 0.00485
841.90817 0.00484
839.85973 0.00482
837.81129 0.00481
835.76285 0.00479
833.71441 0.00472
831.66597 0.00454
829.61753 0.00427
827.56910 0.00406
825.52066 0.00400
823.47222 0.00399
821.42378 0.00393
819.37534 0.00388
817.32690 0.00386
815.27847 0.00384
813.23003 0.00383
811.18159 0.00376
809.13315 0.00364
807.08471 0.00357
805.03627 0.00355
802.98784 0.00355
800.93940 0.00359
798.89096 0.00358
796.84252 0.00347
794.79408 0.00341
792.74564 0.00339
790.69721 0.00332
788.64877 0.00325
786.60033 0.00322
784.55189 0.00319
782.50345 0.00312
780.45501 0.00305
778.40658 0.00298
776.35814 0.00286
774.30970 0.00272
772.26126 0.00266
770.21282 0.00272
768.16438 0.00279
766.11595 0.00270
764.06751 0.00241
762.01907 0.00214
759.97063 0.00208
757.92219 0.00219
755.87375 0.00223
753.82532 0.00211
751.77688 0.00193
749.72844 0.00179
747.68000 0.00164
745.63156 0.00152
743.58312 0.00150
741.53469 0.00144
739.48625 0.00132
737.43781 0.00129
735.38937 0.00127
733.34093 0.00130
731.29249 0.00137
729.24406 0.00121
727.19562 0.00084
725.14718 0.00060
723.09874 0.00057
721.05030 0.00076
719.00186 0.00106
716.95343 0.00114
714.90499 0.00097
712.85655 0.00070
710.80811 0.00057
708.75967 0.00062
706.71123 0.00053
704.66280 0.00033
702.61436 0.00026
700.56592 0.00037
698.51748 0.00066
696.46904 0.00097
694.42060 0.00105
692.37216 0.00088
690.32373 0.00083
688.27529 0.00095
686.22685 0.00097
684.17841 0.00092
682.12997 0.00092
680.08153 0.00095
678.03310 0.00112
675.98466 0.00152
673.93622 0.00194
671.88778 0.00223
669.83934 0.00255
667.79090 0.00313
665.74247 0.00356
663.69403 0.00389
661.64559 0.00457
659.59715 0.00574
657.54871 0.00714
655.50027 0.00880
653.45184 0.01054
651.40340 0.01195
649.35496 0.01320
647.30652 0.01455
645.25808 0.01592
643.20964 0.01719
641.16121 0.01836
639.11277 0.01931
637.06433 0.02017
635.01589 0.02103
632.96745 0.02149
630.91901 0.02177
628.87058 0.02243
626.82214 0.02329
624.77370 0.02418
622.72526 0.02556
620.67682 0.02695
618.62838 0.02749
616.57995 0.02767
614.53151 0.02833
612.48307 0.02911
610.43463 0.02917
608.38619 0.02938
606.33775 0.03084
604.28932 0.03273
602.24088 0.03371
600.19244 0.03412
598.14400 0.03486
