3996.50324 1.59491
3994.45480 1.59613
3992.40636 1.59580
3990.35792 1.59419
3988.30948 1.59258
3986.26104 1.59226
3984.21261 1.59291
3982.16417 1.59310
3980.11573 1.59342
3978.06729 1.59474
3976.01885 1.59578
3973.97041 1.59591
3971.92198 1.59590
3969.87354 1.59580
3967.82510 1.59555
3965.77666 1.59569
3963.72822 1.59625
3961.67978 1.59644
3959.63135 1.59598
3957.58291 1.59589
3955.53447 1.59642
3953.48603 1.59674
3951.43759 1.59645
3949.38915 1.59634
3947.34072 1.59687
3945.29228 1.59782
3943.24384 1.59870
3941.19540 1.59759
3939.14696 1.59513
3937.09852 1.59347
3935.05009 1.59380
3933.00165 1.59608
3930.95321 1.59684
3928.90477 1.59451
3926.85633 1.59306
3924.80789 1.59335
3922.75946 1.59272
3920.71102 1.59301
3918.66258 1.59560
3916.61414 1.59589
3914.56570 1.59265
3912.51726 1.59021
3910.46883 1.58914
3908.42039 1.58892
3906.37195 1.59195
3904.32351 1.59822
3902.27507 1.60263
3900.22663 1.60218
3898.17820 1.59757
3896.12976 1.59380
3894.08132 1.59391
3892.03288 1.59623
3889.98444 1.59601
3887.93600 1.59425
3885.88756 1.59463
3883.83913 1.59668
3881.79069 1.59860
3879.74225 1.59729
3877.69381 1.59334
3875.64537 1.59345
3873.59693 1.59801
3871.54850 1.60139
3869.50006 1.60050
3867.45162 1.59919
3865.40318 1.60167
3863.35474 1.60297
3861.30630 1.59861
3859.25787 1.59533
3857.20943 1.59723
3855.16099 1.60416
3853.11255 1.60970
3851.06411 1.60359
3849.01567 1.59648
3846.96724 1.59316
3844.91880 1.59384
3842.87036 1.59721
3840.82192 1.60235
3838.77348 1.60604
3836.72504 1.60278
3834.67661 1.59819
3832.62817 1.59613
3830.57973 1.59450
3828.53129 1.59319
3826.48285 1.59299
3824.43441 1.59405
3822.38598 1.59956
3820.33754 1.60651
3818.28910 1.60503
3816.24066 1.59943
3814.19222 1.59282
3812.14378 1.58956
3810.09535 1.59079
3808.04691 1.59458
3805.99847 1.59649
3803.95003 1.59629
3801.90159 1.59781
3799.85315 1.59900
3797.80472 1.59829
3795.75628 1.59563
3793.70784 1.59162
3791.65940 1.58919
3789.61096 1.58958
3787.56252 1.59176
3785.51409 1.59334
3783.46565 1.59303
3781.41721 1.59360
3779.36877 1.59547
3777.32033 1.59395
3775.27189 1.59184
3773.22346 1.59368
3771.17502 1.59770
3769.12658 1.59927
3767.07814 1.59853
3765.02970 1.59773
3762.98126 1.59745
3760.93283 1.59931
3758.88439 1.60181
3756.83595 1.60223
3754.78751 1.60341
3752.73907 1.60920
3750.69063 1.61683
3748.64219 1.61433
3746.59376 1.60942
3744.54532 1.60822
3742.49688 1.60690
3740.44844 1.60443
3738.40000 1.60492
3736.35156 1.61026
3734.30313 1.61292
3732.25469 1.60869
3730.20625 1.60591
3728.15781 1.60703
3726.10937 1.60974
3724.06093 1.60959
3722.01250 1.60712
3719.96406 1.60488
3717.91562 1.60218
3715.86718 1.60136
3713.81874 1.60595
3711.77030 1.61359
3709.72187 1.61322
3707.67343 1.60787
3705.62499 1.60521
3703.57655 1.60607
3701.52811 1.60755
3699.47967 1.60681
3697.43124 1.60647
3695.38280 1.60752
3693.33436 1.61065
3691.28592 1.61774
3689.23748 1.62180
3687.18904 1.61525
3685.14061 1.60908
3683.09217 1.60673
3681.04373 1.60749
3678.99529 1.61155
3676.94685 1.61880
3674.89841 1.62318
3672.84998 1.62111
3670.80154 1.61961
3668.75310 1.61621
3666.70466 1.61188
3664.65622 1.61002
3662.60778 1.60988
3660.55935 1.61141
3658.51091 1.61487
3656.46247 1.61826
3654.41403 1.61945
3652.36559 1.62274
3650.31715 1.63233
3648.26872 1.63774
3646.22028 1.63097
3644.17184 1.62556
3642.12340 1.62353
3640.07496 1.62306
3638.02652 1.62404
3635.97809 1.62645
3633.92965 1.62965
3631.88121 1.63347
3629.83277 1.63993
3627.78433 1.64530
3625.73589 1.64226
3623.68746 1.63845
3621.63902 1.63917
3619.59058 1.64476
3617.54214 1.64710
3615.49370 1.64586
3613.44526 1.64649
3611.39682 1.64734
3609.34839 1.64718
3607.29995 1.64372
3605.25151 1.63847
3603.20307 1.63736
3601.15463 1.64038
3599.10619 1.64320
3597.05776 1.64474
3595.00932 1.64566
3592.96088 1.64502
3590.91244 1.64578
3588.86400 1.65072
3586.81556 1.65362
3584.76713 1.64996
3582.71869 1.64667
3580.67025 1.64496
3578.62181 1.64430
3576.57337 1.64506
3574.52493 1.64619
3572.47650 1.64693
3570.42806 1.64838
3568.37962 1.65285
3566.33118 1.65738
3564.28274 1.65577
3562.23430 1.65281
3560.18587 1.65129
3558.13743 1.65077
3556.08899 1.65115
3554.04055 1.65191
3551.99211 1.65221
3549.94367 1.65268
3547.89524 1.65551
3545.84680 1.65922
3543.79836 1.65857
3541.74992 1.65420
3539.70148 1.65125
3537.65304 1.65228
3535.60461 1.65497
3533.55617 1.65652
3531.50773 1.65803
3529.45929 1.66037
3527.41085 1.66221
3525.36241 1.66316
3523.31398 1.66274
3521.26554 1.66053
3519.21710 1.65874
3517.16866 1.65779
3515.12022 1.65648
3513.07178 1.65564
3511.02335 1.65637
3508.97491 1.65713
3506.92647 1.65724
3504.87803 1.65842
3502.82959 1.65921
3500.78115 1.65821
3498.73272 1.65775
3496.68428 1.65833
3494.63584 1.65879
3492.58740 1.65908
3490.53896 1.65954
3488.49052 1.65967
3486.44209 1.65869
3484.39365 1.65798
3482.34521 1.65882
3480.29677 1.65930
3478.24833 1.65960
3476.19989 1.66101
3474.15146 1.66196
3472.10302 1.66191
3470.05458 1.66194
3468.00614 1.66253
3465.95770 1.66310
3463.90926 1.66353
3461.86082 1.66384
3459.81239 1.66355
3457.76395 1.66291
3455.71551 1.66189
3453.66707 1.66076
3451.61863 1.66115
3449.57019 1.66360
3447.52176 1.66567
3445.47332 1.66529
3443.42488 1.66518
3441.37644 1.66678
3439.32800 1.66716
3437.27956 1.66596
3435.23113 1.66530
3433.18269 1.66546
3431.13425 1.66616
3429.08581 1.66668
3427.03737 1.66543
3424.98893 1.66420
3422.94050 1.66499
3420.89206 1.66485
3418.84362 1.66284
3416.79518 1.66207
3414.74674 1.66250
3412.69830 1.66221
3410.64987 1.66173
3408.60143 1.66182
3406.55299 1.66162
3404.50455 1.66130
3402.45611 1.66163
3400.40767 1.66161
3398.35924 1.66122
3396.31080 1.66187
3394.26236 1.66333
3392.21392 1.66387
3390.16548 1.66224
3388.11704 1.66012
3386.06861 1.65999
3384.02017 1.66076
3381.97173 1.66080
3379.92329 1.66089
3377.87485 1.66091
3375.82641 1.66025
3373.77798 1.65939
3371.72954 1.65883
3369.68110 1.65849
3367.63266 1.65796
3365.58422 1.65760
3363.53578 1.65811
3361.48735 1.65878
3359.43891 1.65860
3357.39047 1.65815
3355.34203 1.65783
3353.29359 1.65695
3351.24515 1.65532
3349.19672 1.65415
3347.14828 1.65485
3345.09984 1.65636
3343.05140 1.65649
3341.00296 1.65540
3338.95452 1.65541
3336.90609 1.65663
3334.85765 1.65707
3332.80921 1.65670
3330.76077 1.65641
3328.71233 1.65697
3326.66389 1.65744
3324.61545 1.65611
3322.56702 1.65431
3320.51858 1.65358
3318.47014 1.65311
3316.42170 1.65229
3314.37326 1.65197
3312.32482 1.65251
3310.27639 1.65285
3308.22795 1.65261
3306.17951 1.65238
3304.13107 1.65238
3302.08263 1.65291
3300.03419 1.65381
3297.98576 1.65438
3295.93732 1.65391
3293.88888 1.65274
3291.84044 1.65224
3289.79200 1.65242
3287.74356 1.65245
3285.69513 1.65253
3283.64669 1.65258
3281.59825 1.65266
3279.54981 1.65355
3277.50137 1.65466
3275.45293 1.65516
3273.40450 1.65507
3271.35606 1.65500
3269.30762 1.65543
3267.25918 1.65517
3265.21074 1.65465
3263.16230 1.65466
3261.11387 1.65418
3259.06543 1.65323
3257.01699 1.65290
3254.96855 1.65365
3252.92011 1.65385
3250.87167 1.65287
3248.82324 1.65272
3246.77480 1.65391
3244.72636 1.65477
3242.67792 1.65384
3240.62948 1.65182
3238.58104 1.65117
3236.53261 1.65251
3234.48417 1.65347
3232.43573 1.65294
3230.38729 1.65195
3228.33885 1.65114
3226.29041 1.65116
3224.24198 1.65183
3222.19354 1.65237
3220.14510 1.65285
3218.09666 1.65319
3216.04822 1.65311
3213.99978 1.65261
3211.95135 1.65222
3209.90291 1.65206
3207.85447 1.65191
3205.80603 1.65271
3203.75759 1.65440
3201.70915 1.65510
3199.66072 1.65488
3197.61228 1.65510
3195.56384 1.65530
3193.51540 1.65509
3191.46696 1.65473
3189.41852 1.65410
3187.37008 1.65335
3185.32165 1.65310
3183.27321 1.65376
3181.22477 1.65433
3179.17633 1.65398
3177.12789 1.65267
3175.07945 1.65072
3173.03102 1.64918
3170.98258 1.64833
3168.93414 1.64811
3166.88570 1.64850
3164.83726 1.64859
3162.78882 1.64852
3160.74039 1.64870
3158.69195 1.64852
3156.64351 1.64838
3154.59507 1.64860
3152.54663 1.64827
3150.49819 1.64770
3148.44976 1.64799
3146.40132 1.64837
3144.35288 1.64812
3142.30444 1.64758
3140.25600 1.64726
3138.20756 1.64758
3136.15913 1.64816
3134.11069 1.64886
3132.06225 1.64979
3130.01381 1.65032
3127.96537 1.64971
3125.91693 1.64892
3123.86850 1.64932
3121.82006 1.64986
3119.77162 1.64941
3117.72318 1.64892
3115.67474 1.64909
3113.62630 1.64917
3111.57787 1.64852
3109.52943 1.64740
3107.48099 1.64635
3105.43255 1.64552
3103.38411 1.64506
3101.33567 1.64516
3099.28724 1.64564
3097.23880 1.64603
3095.19036 1.64561
3093.14192 1.64466
3091.09348 1.64348
3089.04504 1.64202
3086.99661 1.64139
3084.94817 1.64154
3082.89973 1.64138
3080.85129 1.64175
3078.80285 1.64252
3076.75441 1.64245
3074.70598 1.64188
3072.65754 1.64142
3070.60910 1.64164
3068.56066 1.64261
3066.51222 1.64313
3064.46378 1.64284
3062.41535 1.64242
3060.36691 1.64219
3058.31847 1.64232
3056.27003 1.64222
3054.22159 1.64151
3052.17315 1.64128
3050.12471 1.64150
3048.07628 1.64087
3046.02784 1.63975
3043.97940 1.63955
3041.93096 1.64031
3039.88252 1.64075
3037.83408 1.64071
3035.78565 1.64066
3033.73721 1.64018
3031.68877 1.63982
3029.64033 1.64006
3027.59189 1.63972
3025.54345 1.63891
3023.49502 1.63825
3021.44658 1.63759
3019.39814 1.63741
3017.34970 1.63732
3015.30126 1.63663
3013.25282 1.63620
3011.20439 1.63675
3009.15595 1.63749
3007.10751 1.63760
3005.05907 1.63727
3003.01063 1.63684
3000.96219 1.63690
2998.91376 1.63750
2996.86532 1.63743
2994.81688 1.63712
2992.76844 1.63753
2990.72000 1.63725
2988.67156 1.63605
2986.62313 1.63539
2984.57469 1.63561
2982.52625 1.63630
2980.47781 1.63715
2978.42937 1.63801
2976.38093 1.63830
2974.33250 1.63776
2972.28406 1.63765
2970.23562 1.63819
2968.18718 1.63841
2966.13874 1.63855
2964.09030 1.63914
2962.04187 1.63968
2959.99343 1.63916
2957.94499 1.63820
2955.89655 1.63797
2953.84811 1.63778
2951.79967 1.63717
2949.75124 1.63690
2947.70280 1.63718
2945.65436 1.63764
2943.60592 1.63810
2941.55748 1.63799
2939.50904 1.63723
2937.46061 1.63709
2935.41217 1.63784
2933.36373 1.63834
2931.31529 1.63800
2929.26685 1.63727
2927.21841 1.63668
2925.16998 1.63648
2923.12154 1.63663
2921.07310 1.63710
2919.02466 1.63794
2916.97622 1.63899
2914.92778 1.63947
2912.87934 1.63819
2910.83091 1.63628
2908.78247 1.63546
2906.73403 1.63530
2904.68559 1.63534
2902.63715 1.63533
2900.58871 1.63514
2898.54028 1.63524
2896.49184 1.63603
2894.44340 1.63720
2892.39496 1.63790
2890.34652 1.63806
2888.29808 1.63799
2886.24965 1.63767
2884.20121 1.63758
2882.15277 1.63807
2880.10433 1.63889
2878.05589 1.63963
2876.00745 1.64054
2873.95902 1.64200
2871.91058 1.64301
2869.86214 1.64300
2867.81370 1.64293
2865.76526 1.64274
2863.71682 1.64176
2861.66839 1.64071
2859.61995 1.64040
2857.57151 1.64025
2855.52307 1.63976
2853.47463 1.63958
2851.42619 1.63986
2849.37776 1.63964
2847.32932 1.63843
2845.28088 1.63715
2843.23244 1.63666
2841.18400 1.63638
2839.13556 1.63574
2837.08713 1.63521
2835.03869 1.63506
2832.99025 1.63523
2830.94181 1.63569
2828.89337 1.63607
2826.84493 1.63612
2824.79650 1.63618
2822.74806 1.63649
2820.69962 1.63664
2818.65118 1.63659
2816.60274 1.63666
2814.55430 1.63680
2812.50587 1.63728
2810.45743 1.63877
2808.40899 1.64084
2806.36055 1.64158
2804.31211 1.64062
2802.26367 1.64012
2800.21524 1.64142
2798.16680 1.64338
2796.11836 1.64480
2794.06992 1.64540
2792.02148 1.64506
2789.97304 1.64435
2787.92461 1.64358
2785.87617 1.64275
2783.82773 1.64224
2781.77929 1.64193
2779.73085 1.64154
2777.68241 1.64101
2775.63397 1.64033
2773.58554 1.63966
2771.53710 1.63893
2769.48866 1.63805
2767.44022 1.63718
2765.39178 1.63644
2763.34334 1.63594
2761.29491 1.63561
2759.24647 1.63502
2757.19803 1.63408
2755.14959 1.63358
2753.10115 1.63385
2751.05271 1.63376
2749.00428 1.63271
2746.95584 1.63213
2744.90740 1.63252
2742.85896 1.63285
2740.81052 1.63369
2738.76208 1.63519
2736.71365 1.63622
2734.66521 1.63691
2732.61677 1.63734
2730.56833 1.63727
2728.51989 1.63727
2726.47145 1.63769
2724.42302 1.63820
2722.37458 1.63890
2720.32614 1.64007
2718.27770 1.64079
2716.22926 1.64007
2714.18082 1.63869
2712.13239 1.63780
2710.08395 1.63713
2708.03551 1.63611
2705.98707 1.63543
2703.93863 1.63527
2701.89019 1.63504
2699.84176 1.63464
2697.79332 1.63400
2695.74488 1.63337
2693.69644 1.63304
2691.64800 1.63265
2689.59956 1.63215
2687.55113 1.63162
2685.50269 1.63138
2683.45425 1.63166
2681.40581 1.63165
2679.35737 1.63115
2677.30893 1.63118
2675.26050 1.63216
2673.21206 1.63325
2671.16362 1.63371
2669.11518 1.63413
2667.06674 1.63496
2665.01830 1.63595
2662.96987 1.63716
2660.92143 1.63861
2658.87299 1.63996
2656.82455 1.64081
2654.77611 1.64083
2652.72767 1.64095
2650.67924 1.64176
2648.63080 1.64224
2646.58236 1.64224
2644.53392 1.64242
2642.48548 1.64259
2640.43704 1.64231
2638.38860 1.64174
2636.34017 1.64129
2634.29173 1.64044
2632.24329 1.63895
2630.19485 1.63770
2628.14641 1.63710
2626.09797 1.63698
2624.04954 1.63677
2622.00110 1.63637
2619.95266 1.63648
2617.90422 1.63698
2615.85578 1.63689
2613.80734 1.63627
2611.75891 1.63620
2609.71047 1.63656
2607.66203 1.63640
2605.61359 1.63637
2603.56515 1.63712
2601.51671 1.63801
2599.46828 1.63876
2597.41984 1.63936
2595.37140 1.63954
2593.32296 1.63996
2591.27452 1.64132
2589.22608 1.64265
2587.17765 1.64333
2585.12921 1.64400
2583.08077 1.64490
2581.03233 1.64529
2578.98389 1.64509
2576.93545 1.64505
2574.88702 1.64498
2572.83858 1.64461
2570.79014 1.64455
2568.74170 1.64510
2566.69326 1.64556
2564.64482 1.64556
2562.59639 1.64551
2560.54795 1.64527
2558.49951 1.64491
2556.45107 1.64451
2554.40263 1.64390
2552.35419 1.64346
2550.30576 1.64330
2548.25732 1.64299
2546.20888 1.64226
2544.16044 1.64137
2542.11200 1.64079
2540.06356 1.64074
2538.01513 1.64091
2535.96669 1.64090
2533.91825 1.64112
2531.86981 1.64193
2529.82137 1.64298
2527.77293 1.64399
2525.72450 1.64446
2523.67606 1.64447
2521.62762 1.64471
2519.57918 1.64473
2517.53074 1.64419
2515.48230 1.64386
2513.43387 1.64382
2511.38543 1.64362
2509.33699 1.64351
2507.28855 1.64365
2505.24011 1.64356
2503.19167 1.64314
2501.14324 1.64287
2499.09480 1.64283
2497.04636 1.64222
2494.99792 1.64120
2492.94948 1.64112
2490.90104 1.64165
2488.85260 1.64124
2486.80417 1.63989
2484.75573 1.63894
2482.70729 1.63907
2480.65885 1.63916
2478.61041 1.63889
2476.56197 1.63930
2474.51354 1.64045
2472.46510 1.64126
2470.41666 1.64119
2468.36822 1.64108
2466.31978 1.64138
2464.27134 1.64128
2462.22291 1.64091
2460.17447 1.64168
2458.12603 1.64303
2456.07759 1.64329
2454.02915 1.64309
2451.98071 1.64295
2449.93228 1.64241
2447.88384 1.64159
2445.83540 1.64062
2443.78696 1.63966
2441.73852 1.63925
2439.69008 1.63971
2437.64165 1.64036
2435.59321 1.64018
2433.54477 1.63977
2431.49633 1.63963
2429.44789 1.63889
2427.39945 1.63818
2425.35102 1.63798
2423.30258 1.63737
2421.25414 1.63671
2419.20570 1.63657
2417.15726 1.63627
2415.10882 1.63593
2413.06039 1.63630
2411.01195 1.63736
2408.96351 1.63876
2406.91507 1.63996
2404.86663 1.64012
2402.81819 1.63934
2400.76976 1.63941
2398.72132 1.64083
2396.67288 1.64196
2394.62444 1.64230
2392.57600 1.64250
2390.52756 1.64275
2388.47913 1.64327
2386.43069 1.64444
2384.38225 1.64665
2382.33381 1.65017
2380.28537 1.65470
2378.23693 1.65946
2376.18850 1.66415
2374.14006 1.66968
2372.09162 1.67626
2370.04318 1.68288
2367.99474 1.68857
2365.94630 1.69225
2363.89787 1.69374
2361.84943 1.69486
2359.80099 1.69650
2357.75255 1.69653
2355.70411 1.69413
2353.65567 1.68793
2351.60723 1.67761
2349.55880 1.67003
2347.51036 1.66975
2345.46192 1.67571
2343.41348 1.68244
2341.36504 1.68426
2339.31660 1.68151
2337.26817 1.67786
2335.21973 1.67575
2333.17129 1.67679
2331.12285 1.67881
2329.07441 1.67850
2327.02597 1.67724
2324.97754 1.67649
2322.92910 1.67576
2320.88066 1.67458
2318.83222 1.67231
2316.78378 1.66921
2314.73534 1.66686
2312.68691 1.66571
2310.63847 1.66431
2308.59003 1.66116
2306.54159 1.65681
2304.49315 1.65339
2302.44471 1.65135
2300.39628 1.64918
2298.34784 1.64619
2296.29940 1.64323
2294.25096 1.64115
2292.20252 1.63998
2290.15408 1.63909
2288.10565 1.63815
2286.05721 1.63707
2284.00877 1.63556
2281.96033 1.63446
2279.91189 1.63500
2277.86345 1.63596
2275.81502 1.63555
2273.76658 1.63494
2271.71814 1.63517
2269.66970 1.63542
2267.62126 1.63598
2265.57282 1.63702
2263.52439 1.63734
2261.47595 1.63711
2259.42751 1.63770
2257.37907 1.63880
2255.33063 1.63916
2253.28219 1.63899
2251.23376 1.63914
2249.18532 1.63970
2247.13688 1.64035
2245.08844 1.64036
2243.04000 1.63955
2240.99156 1.63885
2238.94313 1.63846
2236.89469 1.63778
2234.84625 1.63759
2232.79781 1.63834
2230.74937 1.63830
2228.70093 1.63689
2226.65250 1.63568
2224.60406 1.63483
2222.55562 1.63347
2220.50718 1.63233
2218.45874 1.63218
2216.41030 1.63244
2214.36186 1.63253
2212.31343 1.63218
2210.26499 1.63147
2208.21655 1.63118
2206.16811 1.63124
2204.11967 1.63065
2202.07123 1.62997
2200.02280 1.63029
2197.97436 1.63095
2195.92592 1.63120
2193.87748 1.63147
2191.82904 1.63202
2189.78060 1.63259
2187.73217 1.63304
2185.68373 1.63336
2183.63529 1.63407
2181.58685 1.63540
2179.53841 1.63640
2177.48997 1.63643
2175.44154 1.63579
2173.39310 1.63482
2171.34466 1.63378
2169.29622 1.63329
2167.24778 1.63369
2165.19934 1.63395
2163.15091 1.63334
2161.10247 1.63288
2159.05403 1.63283
2157.00559 1.63243
2154.95715 1.63195
2152.90871 1.63163
2150.86028 1.63111
2148.81184 1.63082
2146.76340 1.63081
2144.71496 1.63078
2142.66652 1.63098
2140.61808 1.63148
2138.56965 1.63175
2136.52121 1.63126
2134.47277 1.63022
2132.42433 1.62962
2130.37589 1.63022
2128.32745 1.63095
2126.27902 1.63092
2124.23058 1.63103
2122.18214 1.63167
2120.13370 1.63207
2118.08526 1.63168
2116.03682 1.63108
2113.98839 1.63118
2111.93995 1.63215
2109.89151 1.63306
2107.84307 1.63319
2105.79463 1.63302
2103.74619 1.63280
2101.69776 1.63300
2099.64932 1.63411
2097.60088 1.63487
2095.55244 1.63463
2093.50400 1.63461
2091.45556 1.63498
2089.40713 1.63501
2087.35869 1.63470
2085.31025 1.63424
2083.26181 1.63432
2081.21337 1.63513
2079.16493 1.63553
2077.11649 1.63531
2075.06806 1.63518
2073.01962 1.63506
2070.97118 1.63479
2068.92274 1.63483
2066.87430 1.63550
2064.82586 1.63588
2062.77743 1.63560
2060.72899 1.63580
2058.68055 1.63659
2056.63211 1.63755
2054.58367 1.63855
2052.53523 1.63903
2050.48680 1.63945
2048.43836 1.64023
2046.38992 1.64032
2044.34148 1.63970
2042.29304 1.63943
2040.24460 1.63879
2038.19617 1.63701
2036.14773 1.63547
2034.09929 1.63455
2032.05085 1.63340
2030.00241 1.63210
2027.95397 1.63119
2025.90554 1.63112
2023.85710 1.63183
2021.80866 1.63273
2019.76022 1.63369
2017.71178 1.63488
2015.66334 1.63574
2013.61491 1.63612
2011.56647 1.63662
2009.51803 1.63751
2007.46959 1.63844
2005.42115 1.63941
2003.37271 1.64111
2001.32428 1.64310
1999.27584 1.64397
1997.22740 1.64407
1995.17896 1.64517
1993.13052 1.64713
1991.08208 1.64789
1989.03365 1.64720
1986.98521 1.64639
1984.93677 1.64578
1982.88833 1.64535
1980.83989 1.64542
1978.79145 1.64579
1976.74302 1.64507
1974.69458 1.64309
1972.64614 1.64174
1970.59770 1.64152
1968.54926 1.64201
1966.50082 1.64225
1964.45239 1.64119
1962.40395 1.64015
1960.35551 1.63981
1958.30707 1.63939
1956.25863 1.63854
1954.21019 1.63726
1952.16176 1.63636
1950.11332 1.63631
1948.06488 1.63662
1946.01644 1.63764
1943.96800 1.63924
1941.91956 1.63886
1939.87112 1.63654
1937.82269 1.63519
1935.77425 1.63521
1933.72581 1.63581
1931.67737 1.63648
1929.62893 1.63708
1927.58049 1.63775
1925.53206 1.63913
1923.48362 1.64134
1921.43518 1.64306
1919.38674 1.64485
1917.33830 1.64693
1915.28986 1.64752
1913.24143 1.64780
1911.19299 1.64887
1909.14455 1.64914
1907.09611 1.64763
1905.04767 1.64610
1902.99923 1.64546
1900.95080 1.64468
1898.90236 1.64402
1896.85392 1.64429
1894.80548 1.64420
1892.75704 1.64343
1890.70860 1.64358
1888.66017 1.64354
1886.61173 1.64255
1884.56329 1.64216
1882.51485 1.64224
1880.46641 1.64280
1878.41797 1.64384
1876.36954 1.64459
1874.32110 1.64538
1872.27266 1.64772
1870.22422 1.65259
1868.17578 1.65646
1866.12734 1.65467
1864.07891 1.65168
1862.03047 1.65116
1859.98203 1.65244
1857.93359 1.65333
1855.88515 1.65296
1853.83671 1.65273
1851.78828 1.65379
1849.73984 1.65641
1847.69140 1.65994
1845.64296 1.66303
1843.59452 1.66302
1841.54608 1.65930
1839.49765 1.65620
1837.44921 1.65453
1835.40077 1.65284
1833.35233 1.65227
1831.30389 1.65443
1829.25545 1.65684
1827.20702 1.65719
1825.15858 1.65778
1823.11014 1.65746
1821.06170 1.65589
1819.01326 1.65507
1816.96482 1.65499
1814.91639 1.65537
1812.86795 1.65664
1810.81951 1.65774
1808.77107 1.65723
1806.72263 1.65603
1804.67419 1.65576
1802.62575 1.65747
1800.57732 1.66014
1798.52888 1.66223
1796.48044 1.66480
1794.43200 1.66891
1792.38356 1.67305
1790.33512 1.67262
1788.28669 1.67044
1786.23825 1.67103
1784.18981 1.67439
1782.14137 1.67810
1780.09293 1.67993
1778.04449 1.68010
1775.99606 1.68203
1773.94762 1.68762
1771.89918 1.69162
1769.85074 1.68783
1767.80230 1.68217
1765.75386 1.67908
1763.70543 1.67972
1761.65699 1.68222
1759.60855 1.68375
1757.56011 1.68554
1755.51167 1.68726
1753.46323 1.68952
1751.41480 1.69549
1749.36636 1.70220
1747.31792 1.70311
1745.26948 1.70156
1743.22104 1.70032
1741.17260 1.69942
1739.12417 1.69883
1737.07573 1.69912
1735.02729 1.70298
1732.97885 1.70718
1730.93041 1.70422
1728.88197 1.69843
1726.83354 1.69442
1724.78510 1.69444
1722.73666 1.69645
1720.68822 1.69958
1718.63978 1.70745
1716.59134 1.71522
1714.54291 1.71035
1712.49447 1.70410
1710.44603 1.70227
1708.39759 1.70425
1706.34915 1.70918
1704.30071 1.71350
1702.25228 1.71598
1700.20384 1.72095
1698.15540 1.72592
1696.10696 1.72424
1694.05852 1.71882
1692.01008 1.71751
1689.96165 1.72168
1687.91321 1.72704
1685.86477 1.73245
1683.81633 1.73993
1681.76789 1.74056
1679.71945 1.73782
1677.67102 1.73739
1675.62258 1.74034
1673.57414 1.74432
1671.52570 1.74889
1669.47726 1.75175
1667.42882 1.74857
1665.38038 1.74680
1663.33195 1.74843
1661.28351 1.74844
1659.23507 1.74657
1657.18663 1.74753
1655.13819 1.75266
1653.08975 1.75641
1651.04132 1.75265
1648.99288 1.75355
1646.94444 1.75582
1644.89600 1.74897
1642.84756 1.74176
1640.79912 1.74001
1638.75069 1.74386
1636.70225 1.75076
1634.65381 1.74958
1632.60537 1.74441
1630.55693 1.74418
1628.50849 1.74717
1626.46006 1.74977
1624.41162 1.75096
1622.36318 1.74874
1620.31474 1.74467
1618.26630 1.74355
1616.21786 1.74277
1614.16943 1.73841
1612.12099 1.73616
1610.07255 1.73743
1608.02411 1.73852
1605.97567 1.73878
1603.92723 1.74032
1601.87880 1.74227
1599.83036 1.74358
1597.78192 1.74537
1595.73348 1.74845
1593.68504 1.75141
1591.63660 1.75256
1589.58817 1.75187
1587.53973 1.75041
1585.49129 1.74925
1583.44285 1.74834
1581.39441 1.74747
1579.34597 1.74865
1577.29754 1.75264
1575.24910 1.75234
1573.20066 1.74860
1571.15222 1.74907
1569.10378 1.75094
1567.05534 1.74998
1565.00691 1.75069
1562.95847 1.75399
1560.91003 1.76033
1558.86159 1.77039
1556.81315 1.76712
1554.76471 1.76163
1552.71628 1.75982
1550.66784 1.75977
1548.61940 1.76010
1546.57096 1.76362
1544.52252 1.77356
1542.47408 1.78583
1540.42565 1.78821
1538.37721 1.77938
1536.32877 1.77582
1534.28033 1.77753
1532.23189 1.77914
1530.18345 1.77880
1528.13501 1.78126
1526.08658 1.78640
1524.03814 1.79158
1521.98970 1.79674
1519.94126 1.79735
1517.89282 1.79514
1515.84438 1.79167
1513.79595 1.78878
1511.74751 1.79042
1509.69907 1.79772
1507.65063 1.80613
1505.60219 1.79459
1503.55375 1.78256
1501.50532 1.77891
1499.45688 1.77869
1497.40844 1.77603
1495.36000 1.76725
1493.31156 1.76114
1491.26312 1.76194
1489.21469 1.76363
1487.16625 1.75840
1485.11781 1.75281
1483.06937 1.75117
1481.02093 1.75222
1478.97249 1.75434
1476.92406 1.75962
1474.87562 1.76871
1472.82718 1.77463
1470.77874 1.77139
1468.73030 1.76845
1466.68186 1.77004
1464.63343 1.77301
1462.58499 1.77395
1460.53655 1.77792
1458.48811 1.78930
1456.43967 1.79529
1454.39123 1.78830
1452.34280 1.78509
1450.29436 1.78685
1448.24592 1.78964
1446.19748 1.78914
1444.14904 1.78664
1442.10060 1.78498
1440.05217 1.78552
1438.00373 1.78865
1435.95529 1.78891
1433.90685 1.78379
1431.85841 1.78047
1429.80997 1.77840
1427.76154 1.77516
1425.71310 1.77332
1423.66466 1.77336
1421.61622 1.77406
1419.56778 1.77578
1417.51934 1.77409
1415.47091 1.76901
1413.42247 1.76608
1411.37403 1.76516
1409.32559 1.76419
1407.27715 1.76477
1405.22871 1.76794
1403.18028 1.77018
1401.13184 1.77246
1399.08340 1.77771
1397.03496 1.78308
1394.98652 1.78411
1392.93808 1.78049
1390.88965 1.77788
1388.84121 1.77944
1386.79277 1.78215
1384.74433 1.78291
1382.69589 1.78496
1380.64745 1.78942
1378.59901 1.79382
1376.55058 1.79751
1374.50214 1.79964
1372.45370 1.79815
1370.40526 1.79652
1368.35682 1.79556
1366.30838 1.79363
1364.25995 1.79335
1362.21151 1.79346
1360.16307 1.78956
1358.11463 1.78502
1356.06619 1.78298
1354.01775 1.78316
1351.96932 1.78506
1349.92088 1.78792
1347.87244 1.79004
1345.82400 1.79105
1343.77556 1.79263
1341.72712 1.79635
1339.67869 1.79932
1337.63025 1.79580
1335.58181 1.78952
1333.53337 1.78630
1331.48493 1.78568
1329.43649 1.78561
1327.38806 1.78639
1325.33962 1.78852
1323.29118 1.79147
1321.24274 1.79560
1319.19430 1.80044
1317.14586 1.80413
1315.09743 1.80692
1313.04899 1.80912
1311.00055 1.80971
1308.95211 1.80987
1306.90367 1.81145
1304.85523 1.81479
1302.80680 1.81904
1300.75836 1.82272
1298.70992 1.82631
1296.66148 1.83063
1294.61304 1.83397
1292.56460 1.83557
1290.51617 1.83656
1288.46773 1.83783
1286.41929 1.83933
1284.37085 1.84053
1282.32241 1.84131
1280.27397 1.84106
1278.22554 1.83985
1276.17710 1.83907
1274.12866 1.83919
1272.08022 1.83958
1270.03178 1.83904
1267.98334 1.83790
1265.93491 1.83734
1263.88647 1.83705
1261.83803 1.83668
1259.78959 1.83657
1257.74115 1.83746
1255.69271 1.83982
1253.64428 1.84289
1251.59584 1.84681
1249.54740 1.85184
1247.49896 1.85769
1245.45052 1.86477
1243.40208 1.87195
1241.35364 1.87772
1239.30521 1.88273
1237.25677 1.88713
1235.20833 1.89052
1233.15989 1.89352
1231.11145 1.89621
1229.06301 1.89831
1227.01458 1.90016
1224.96614 1.90217
1222.91770 1.90593
1220.86926 1.91213
1218.82082 1.91865
1216.77238 1.92380
1214.72395 1.92753
1212.67551 1.93073
1210.62707 1.93397
1208.57863 1.93605
1206.53019 1.93627
1204.48175 1.93481
1202.43332 1.93208
1200.38488 1.92909
1198.33644 1.92588
1196.28800 1.92234
1194.23956 1.92021
1192.19112 1.92085
1190.14269 1.92324
1188.09425 1.92571
1186.04581 1.92843
1183.99737 1.93291
1181.94893 1.93865
1179.90049 1.94365
1177.85206 1.94847
1175.80362 1.95463
1173.75518 1.96157
1171.70674 1.96872
1169.65830 1.97697
1167.60986 1.98600
1165.56143 1.99503
1163.51299 2.00436
1161.46455 2.01184
1159.41611 2.01531
1157.36767 2.01708
1155.31923 2.01978
1153.27080 2.02255
1151.22236 2.02355
1149.17392 2.02310
1147.12548 2.02314
1145.07704 2.02568
1143.02860 2.02945
1140.98017 2.03030
1138.93173 2.02748
1136.88329 2.02404
1134.83485 2.02189
1132.78641 2.02056
1130.73797 2.01871
1128.68954 2.01469
1126.64110 2.00942
1124.59266 2.00470
1122.54422 2.00043
1120.49578 1.99722
1118.44734 1.99492
1116.39891 1.99318
1114.35047 1.99280
1112.30203 1.99248
1110.25359 1.99067
1108.20515 1.98990
1106.15671 1.99355
1104.10827 1.99996
1102.05984 2.00604
1100.01140 2.01330
1097.96296 2.02287
1095.91452 2.03274
1093.86608 2.04229
1091.81764 2.05067
1089.76921 2.05613
1087.72077 2.06039
1085.67233 2.06599
1083.62389 2.07122
1081.57545 2.07254
1079.52701 2.06947
1077.47858 2.06517
1075.43014 2.06317
1073.38170 2.06033
1071.33326 2.05161
1069.28482 2.04045
1067.23638 2.03105
1065.18795 2.02161
1063.13951 2.01106
1061.09107 2.00000
1059.04263 1.98929
1056.99419 1.98134
1054.94575 1.97509
1052.89732 1.96722
1050.84888 1.95979
1048.80044 1.95600
1046.75200 1.95418
1044.70356 1.95040
1042.65512 1.94374
1040.60669 1.93757
1038.55825 1.93414
1036.50981 1.93245
1034.46137 1.93233
1032.41293 1.93449
1030.36449 1.93768
1028.31606 1.94078
1026.26762 1.94435
1024.21918 1.94801
1022.17074 1.95112
1020.12230 1.95437
1018.07386 1.95811
1016.02543 1.96139
1013.97699 1.96388
1011.92855 1.96669
1009.88011 1.97014
1007.83167 1.97327
1005.78323 1.97528
1003.73480 1.97640
1001.68636 1.97784
999.63792 1.97990
997.58948 1.98143
995.54104 1.98220
993.49260 1.98204
991.44417 1.98122
989.39573 1.98233
987.34729 1.98484
985.29885 1.98727
983.25041 1.99081
981.20197 1.99587
979.15354 2.00207
977.10510 2.00719
975.05666 2.01067
973.00822 2.01549
970.95978 2.02139
968.91134 2.02576
966.86290 2.02826
964.81447 2.03034
962.76603 2.03194
960.71759 2.03122
958.66915 2.02905
956.62071 2.02695
954.57227 2.02369
952.52384 2.02073
950.47540 2.02036
948.42696 2.02050
946.37852 2.02020
944.33008 2.02013
942.28164 2.01828
940.23321 2.01504
938.18477 2.01375
936.13633 2.01480
934.08789 2.01688
932.03945 2.01765
929.99101 2.01640
927.94258 2.01577
925.89414 2.01629
923.84570 2.01636
921.79726 2.01687
919.74882 2.01850
917.70038 2.02005
915.65195 2.02233
913.60351 2.02519
911.55507 2.02724
909.50663 2.02817
907.45819 2.02904
905.40975 2.03183
903.36132 2.03501
901.31288 2.03674
899.26444 2.03781
897.21600 2.03804
895.16756 2.03860
893.11912 2.04089
891.07069 2.04220
889.02225 2.04286
886.97381 2.04381
884.92537 2.04175
882.87693 2.03890
880.82849 2.03898
878.78006 2.04019
876.73162 2.03964
874.68318 2.03637
872.63474 2.03197
870.58630 2.02791
868.53786 2.02433
866.48943 2.02241
864.44099 2.02058
862.39255 2.01617
860.34411 2.01289
858.29567 2.01191
856.24723 2.01067
854.19880 2.01047
852.15036 2.01057
850.10192 2.01048
848.05348 2.01391
846.00504 2.02071
843.95660 2.02879
841.90817 2.03803
839.85973 2.04676
837.81129 2.05280
835.76285 2.05680
833.71441 2.06254
831.66597 2.07085
829.61753 2.07796
827.56910 2.08608
825.52066 2.09799
823.47222 2.10330
821.42378 2.10181
819.37534 2.10839
817.32690 2.12089
815.27847 2.12958
813.23003 2.13708
811.18159 2.14615
809.13315 2.15037
807.08471 2.14755
805.03627 2.14327
802.98784 2.14025
800.93940 2.14388
798.89096 2.15739
796.84252 2.16926
794.79408 2.17471
792.74564 2.18542
790.69721 2.20052
788.64877 2.20866
786.60033 2.21073
784.55189 2.21354
782.50345 2.21610
780.45501 2.21994
778.40658 2.22784
776.35814 2.23315
774.30970 2.23938
772.26126 2.24872
770.21282 2.25136
768.16438 2.25381
766.11595 2.26174
764.06751 2.27183
762.01907 2.28935
759.97063 2.30798
757.92219 2.31436
755.87375 2.31562
753.82532 2.32974
751.77688 2.35255
749.72844 2.36304
747.68000 2.36402
745.63156 2.36812
743.58312 2.37752
741.53469 2.39135
739.48625 2.41725
737.43781 2.45996
735.38937 2.49682
733.34093 2.50050
731.29249 2.48452
729.24406 2.48266
727.19562 2.50618
725.14718 2.54633
723.09874 2.57415
721.05030 2.58313
719.00186 2.60208
716.95343 2.62299
714.90499 2.61225
712.85655 2.58249
710.80811 2.57507
708.75967 2.59400
706.71123 2.62402
704.66280 2.64546
702.61436 2.64292
700.56592 2.64524
698.51748 2.68928
696.46904 2.74443
694.42060 2.74969
692.37216 2.74876
690.32373 2.77097
688.27529 2.77458
686.22685 2.78186
684.17841 2.82292
682.12997 2.86373
680.08153 2.96493
678.03310 3.17656
675.98466 3.19588
673.93622 3.03903
671.88778 2.96186
669.83934 2.87109
667.79090 2.66939
665.74247 2.54387
663.69403 2.47105
661.64559 2.38140
659.59715 2.28311
657.54871 2.16792
655.50027 2.05318
653.45184 1.96026
651.40340 1.88327
649.35496 1.81705
647.30652 1.76084
645.25808 1.71862
643.20964 1.69307
641.16121 1.67280
639.11277 1.64727
637.06433 1.61856
635.01589 1.59268
632.96745 1.57125
630.91901 1.55171
628.87058 1.53223
626.82214 1.51166
624.77370 1.49539
622.72526 1.48189
620.67682 1.46554
618.62838 1.45141
616.57995 1.43794
614.53151 1.42108
612.48307 1.40794
610.43463 1.40010
608.38619 1.39304
606.33775 1.38859
604.28932 1.38637
602.24088 1.38337
600.19244 1.38256
598.14400 1.38216
