3996.50324 1.97395
3994.45480 1.97655
3992.40636 1.98009
3990.35792 1.98027
3988.30948 1.97545
3986.26104 1.97036
3984.21261 1.96993
3982.16417 1.97155
3980.11573 1.96985
3978.06729 1.96816
3976.01885 1.97118
3973.97041 1.97399
3971.92198 1.97334
3969.87354 1.97306
3967.82510 1.97360
3965.77666 1.97345
3963.72822 1.97295
3961.67978 1.97142
3959.63135 1.96908
3957.58291 1.96738
3955.53447 1.96489
3953.48603 1.96278
3951.43759 1.96397
3949.38915 1.96585
3947.34072 1.96652
3945.29228 1.96845
3943.24384 1.97132
3941.19540 1.97192
3939.14696 1.97152
3937.09852 1.97090
3935.05009 1.96737
3933.00165 1.96345
3930.95321 1.96342
3928.90477 1.96395
3926.85633 1.96327
3924.80789 1.96314
3922.75946 1.96236
3920.71102 1.96120
3918.66258 1.96169
3916.61414 1.96373
3914.56570 1.96430
3912.51726 1.96280
3910.46883 1.96158
3908.42039 1.95957
3906.37195 1.95631
3904.32351 1.95576
3902.27507 1.95771
3900.22663 1.95747
3898.17820 1.95723
3896.12976 1.95736
3894.08132 1.95629
3892.03288 1.95700
3889.98444 1.95886
3887.93600 1.95660
3885.88756 1.95341
3883.83913 1.95154
3881.79069 1.95050
3879.74225 1.95445
3877.69381 1.95896
3875.64537 1.96022
3873.59693 1.96077
3871.54850 1.96058
3869.50006 1.96063
3867.45162 1.96155
3865.40318 1.96265
3863.35474 1.96437
3861.30630 1.96401
3859.25787 1.96020
3857.20943 1.95368
3855.16099 1.94735
3853.11255 1.95071
3851.06411 1.95782
3849.01567 1.95801
3846.96724 1.95621
3844.91880 1.95414
3842.87036 1.95274
3840.82192 1.95326
3838.77348 1.95174
3836.72504 1.94928
3834.67661 1.95218
3832.62817 1.95499
3830.57973 1.95554
3828.53129 1.95651
3826.48285 1.95680
3824.43441 1.95319
3822.38598 1.94673
3820.33754 1.94619
3818.28910 1.95092
3816.24066 1.95204
3814.19222 1.95160
3812.14378 1.95179
3810.09535 1.95192
3808.04691 1.95201
3805.99847 1.95292
3803.95003 1.95450
3801.90159 1.95674
3799.85315 1.95702
3797.80472 1.95620
3795.75628 1.95706
3793.70784 1.95612
3791.65940 1.95233
3789.61096 1.94876
3787.56252 1.94773
3785.51409 1.94895
3783.46565 1.95059
3781.41721 1.95277
3779.36877 1.95625
3777.32033 1.95639
3775.27189 1.95314
3773.22346 1.95089
3771.17502 1.94940
3769.12658 1.94752
3767.07814 1.94783
3765.02970 1.95135
3762.98126 1.95498
3760.93283 1.95675
3758.88439 1.95598
3756.83595 1.95387
3754.78751 1.95432
3752.73907 1.95773
3750.69063 1.96256
3748.64219 1.96328
3746.59376 1.95889
3744.54532 1.95339
3742.49688 1.95494
3740.44844 1.95855
3738.40000 1.95716
3736.35156 1.95070
3734.30313 1.94909
3732.25469 1.95592
3730.20625 1.95991
3728.15781 1.96021
3726.10937 1.95969
3724.06093 1.95911
3722.01250 1.95926
3719.96406 1.96154
3717.91562 1.96547
3715.86718 1.96797
3713.81874 1.96824
3711.77030 1.97409
3709.72187 1.99119
3707.67343 2.00504
3705.62499 2.01404
3703.57655 2.02305
3701.52811 2.03465
3699.47967 2.04379
3697.43124 2.04696
3695.38280 2.04680
3693.33436 2.04581
3691.28592 2.04352
3689.23748 2.03556
3687.18904 2.02807
3685.14061 2.02796
3683.09217 2.03123
3681.04373 2.03297
3678.99529 2.03114
3676.94685 2.03080
3674.89841 2.03870
3672.84998 2.04487
3670.80154 2.04970
3668.75310 2.06008
3666.70466 2.06610
3664.65622 2.06650
3662.60778 2.06660
3660.55935 2.07025
3658.51091 2.07745
3656.46247 2.08700
3654.41403 2.09355
3652.36559 2.09382
3650.31715 2.09785
3648.26872 2.11380
3646.22028 2.11966
3644.17184 2.12110
3642.12340 2.12376
3640.07496 2.12791
3638.02652 2.13406
3635.97809 2.13940
3633.92965 2.14430
3631.88121 2.14924
3629.83277 2.15295
3627.78433 2.15830
3625.73589 2.16512
3623.68746 2.17204
3621.63902 2.17933
3619.59058 2.18658
3617.54214 2.18639
3615.49370 2.17713
3613.44526 2.17135
3611.39682 2.17610
3609.34839 2.18566
3607.29995 2.19774
3605.25151 2.20851
3603.20307 2.21391
3601.15463 2.21076
3599.10619 2.20323
3597.05776 2.20342
3595.00932 2.21133
3592.96088 2.21827
3590.91244 2.21886
3588.86400 2.21699
3586.81556 2.21881
3584.76713 2.22596
3582.71869 2.23304
3580.67025 2.23350
3578.62181 2.23007
3576.57337 2.23143
3574.52493 2.23604
3572.47650 2.23762
3570.42806 2.23755
3568.37962 2.23992
3566.33118 2.24246
3564.28274 2.24366
3562.23430 2.24800
3560.18587 2.25403
3558.13743 2.25658
3556.08899 2.25447
3554.04055 2.25316
3551.99211 2.25800
3549.94367 2.26599
3547.89524 2.27294
3545.84680 2.27684
3543.79836 2.27606
3541.74992 2.27629
3539.70148 2.27983
3537.65304 2.28443
3535.60461 2.29026
3533.55617 2.29565
3531.50773 2.29726
3529.45929 2.29411
3527.41085 2.29027
3525.36241 2.29221
3523.31398 2.29734
3521.26554 2.30148
3519.21710 2.30495
3517.16866 2.30363
3515.12022 2.29808
3513.07178 2.29676
3511.02335 2.30088
3508.97491 2.30320
3506.92647 2.30140
3504.87803 2.30091
3502.82959 2.30110
3500.78115 2.29762
3498.73272 2.29657
3496.68428 2.30455
3494.63584 2.31472
3492.58740 2.31855
3490.53896 2.31641
3488.49052 2.31182
3486.44209 2.30892
3484.39365 2.30927
3482.34521 2.31597
3480.29677 2.32236
3478.24833 2.31933
3476.19989 2.31432
3474.15146 2.31219
3472.10302 2.30927
3470.05458 2.30640
3468.00614 2.31007
3465.95770 2.31921
3463.90926 2.32623
3461.86082 2.32774
3459.81239 2.32659
3457.76395 2.32358
3455.71551 2.31833
3453.66707 2.31762
3451.61863 2.32427
3449.57019 2.33139
3447.52176 2.32958
3445.47332 2.32325
3443.42488 2.32668
3441.37644 2.33571
3439.32800 2.33760
3437.27956 2.33404
3435.23113 2.33154
3433.18269 2.33012
3431.13425 2.33099
3429.08581 2.33572
3427.03737 2.33974
3424.98893 2.33947
3422.94050 2.33719
3420.89206 2.33639
3418.84362 2.33604
3416.79518 2.33391
3414.74674 2.33227
3412.69830 2.33371
3410.64987 2.33855
3408.60143 2.34167
3406.55299 2.34035
3404.50455 2.33611
3402.45611 2.32846
3400.40767 2.32566
3398.35924 2.33086
3396.31080 2.33413
3394.26236 2.33284
3392.21392 2.32929
3390.16548 2.32503
3388.11704 2.32124
3386.06861 2.31993
3384.02017 2.32623
3381.97173 2.33217
3379.92329 2.32929
3377.87485 2.32617
3375.82641 2.32938
3373.77798 2.33447
3371.72954 2.33204
3369.68110 2.32643
3367.63266 2.32659
3365.58422 2.32951
3363.53578 2.33097
3361.48735 2.32771
3359.43891 2.32374
3357.39047 2.32599
3355.34203 2.33075
3353.29359 2.33295
3351.24515 2.33322
3349.19672 2.33051
3347.14828 2.32654
3345.09984 2.32849
3343.05140 2.33365
3341.00296 2.33246
3338.95452 2.32698
3336.90609 2.32316
3334.85765 2.32062
3332.80921 2.32058
3330.76077 2.32374
3328.71233 2.32736
3326.66389 2.32851
3324.61545 2.32613
3322.56702 2.32369
3320.51858 2.32355
3318.47014 2.32385
3316.42170 2.32454
3314.37326 2.32791
3312.32482 2.33173
3310.27639 2.33262
3308.22795 2.32844
3306.17951 2.32039
3304.13107 2.31992
3302.08263 2.33075
3300.03419 2.33632
3297.98576 2.32819
3295.93732 2.31929
3293.88888 2.31600
3291.84044 2.31472
3289.79200 2.31494
3287.74356 2.31583
3285.69513 2.31519
3283.64669 2.31485
3281.59825 2.31511
3279.54981 2.31103
3277.50137 2.30729
3275.45293 2.31138
3273.40450 2.31840
3271.35606 2.32068
3269.30762 2.31684
3267.25918 2.31549
3265.21074 2.32116
3263.16230 2.32407
3261.11387 2.32023
3259.06543 2.31626
3257.01699 2.31385
3254.96855 2.30998
3252.92011 2.30751
3250.87167 2.30855
3248.82324 2.31002
3246.77480 2.31070
3244.72636 2.30873
3242.67792 2.30522
3240.62948 2.30516
3238.58104 2.30736
3236.53261 2.30905
3234.48417 2.31204
3232.43573 2.31613
3230.38729 2.31869
3228.33885 2.31766
3226.29041 2.31283
3224.24198 2.30748
3222.19354 2.30429
3220.14510 2.30308
3218.09666 2.30395
3216.04822 2.30323
3213.99978 2.29643
3211.95135 2.29393
3209.90291 2.30206
3207.85447 2.30855
3205.80603 2.30774
3203.75759 2.30371
3201.70915 2.29956
3199.66072 2.29893
3197.61228 2.29998
3195.56384 2.29871
3193.51540 2.29746
3191.46696 2.29699
3189.41852 2.29544
3187.37008 2.29588
3185.32165 2.29797
3183.27321 2.29727
3181.22477 2.29578
3179.17633 2.29379
3177.12789 2.28906
3175.07945 2.28369
3173.03102 2.27972
3170.98258 2.27922
3168.93414 2.28131
3166.88570 2.28347
3164.83726 2.28476
3162.78882 2.28341
3160.74039 2.28140
3158.69195 2.28339
3156.64351 2.28762
3154.59507 2.28833
3152.54663 2.28557
3150.49819 2.28288
3148.44976 2.28148
3146.40132 2.28066
3144.35288 2.27987
3142.30444 2.27968
3140.25600 2.27797
3138.20756 2.27382
3136.15913 2.27276
3134.11069 2.27202
3132.06225 2.26592
3130.01381 2.26086
3127.96537 2.26006
3125.91693 2.26062
3123.86850 2.26123
3121.82006 2.26022
3119.77162 2.25571
3117.72318 2.25157
3115.67474 2.25235
3113.62630 2.25597
3111.57787 2.25769
3109.52943 2.25625
3107.48099 2.25728
3105.43255 2.26094
3103.38411 2.26046
3101.33567 2.25687
3099.28724 2.25469
3097.23880 2.25325
3095.19036 2.25218
3093.14192 2.25076
3091.09348 2.24735
3089.04504 2.24384
3086.99661 2.24240
3084.94817 2.24361
3082.89973 2.24516
3080.85129 2.24475
3078.80285 2.24360
3076.75441 2.24339
3074.70598 2.24291
3072.65754 2.24002
3070.60910 2.23714
3068.56066 2.23717
3066.51222 2.23700
3064.46378 2.23384
3062.41535 2.23231
3060.36691 2.23403
3058.31847 2.23544
3056.27003 2.23545
3054.22159 2.23379
3052.17315 2.23058
3050.12471 2.22611
3048.07628 2.22313
3046.02784 2.22490
3043.97940 2.22690
3041.93096 2.22558
3039.88252 2.22463
3037.83408 2.22611
3035.78565 2.22783
3033.73721 2.22666
3031.68877 2.22299
3029.64033 2.21889
3027.59189 2.21547
3025.54345 2.21338
3023.49502 2.21113
3021.44658 2.20927
3019.39814 2.21053
3017.34970 2.21477
3015.30126 2.21863
3013.25282 2.21679
3011.20439 2.20918
3009.15595 2.20331
3007.10751 2.20237
3005.05907 2.20188
3003.01063 2.19921
3000.96219 2.19756
2998.91376 2.19940
2996.86532 2.20369
2994.81688 2.20722
2992.76844 2.20682
2990.72000 2.20510
2988.67156 2.20419
2986.62313 2.20427
2984.57469 2.20658
2982.52625 2.20759
2980.47781 2.20535
2978.42937 2.20237
2976.38093 2.19964
2974.33250 2.19780
2972.28406 2.19658
2970.23562 2.19615
2968.18718 2.19756
2966.13874 2.19824
2964.09030 2.19656
2962.04187 2.19372
2959.99343 2.19088
2957.94499 2.19106
2955.89655 2.19347
2953.84811 2.19363
2951.79967 2.19172
2949.75124 2.19065
2947.70280 2.19159
2945.65436 2.19240
2943.60592 2.19175
2941.55748 2.19227
2939.50904 2.19384
2937.46061 2.19386
2935.41217 2.19472
2933.36373 2.19839
2931.31529 2.20039
2929.26685 2.19855
2927.21841 2.19545
2925.16998 2.19165
2923.12154 2.18710
2921.07310 2.18314
2919.02466 2.17974
2916.97622 2.17809
2914.92778 2.17956
2912.87934 2.18021
2910.83091 2.17741
2908.78247 2.17215
2906.73403 2.16477
2904.68559 2.15831
2902.63715 2.15715
2900.58871 2.16000
2898.54028 2.16058
2896.49184 2.15703
2894.44340 2.15276
2892.39496 2.15002
2890.34652 2.14950
2888.29808 2.15122
2886.24965 2.15280
2884.20121 2.15109
2882.15277 2.14832
2880.10433 2.14927
2878.05589 2.15241
2876.00745 2.15252
2873.95902 2.14960
2871.91058 2.14638
2869.86214 2.14405
2867.81370 2.14325
2865.76526 2.14230
2863.71682 2.13956
2861.66839 2.13712
2859.61995 2.13715
2857.57151 2.13854
2855.52307 2.13964
2853.47463 2.13985
2851.42619 2.13855
2849.37776 2.13505
2847.32932 2.12923
2845.28088 2.12247
2843.23244 2.11722
2841.18400 2.11420
2839.13556 2.11196
2837.08713 2.11084
2835.03869 2.11066
2832.99025 2.10908
2830.94181 2.10658
2828.89337 2.10451
2826.84493 2.10243
2824.79650 2.10121
2822.74806 2.10230
2820.69962 2.10389
2818.65118 2.10396
2816.60274 2.10340
2814.55430 2.10163
2812.50587 2.09795
2810.45743 2.09608
2808.40899 2.09681
2806.36055 2.09582
2804.31211 2.09271
2802.26367 2.08996
2800.21524 2.08818
2798.16680 2.08650
2796.11836 2.08419
2794.06992 2.08221
2792.02148 2.08084
2789.97304 2.07967
2787.92461 2.07873
2785.87617 2.07605
2783.82773 2.07239
2781.77929 2.07095
2779.73085 2.07019
2777.68241 2.06785
2775.63397 2.06593
2773.58554 2.06545
2771.53710 2.06444
2769.48866 2.06316
2767.44022 2.06211
2765.39178 2.06124
2763.34334 2.06128
2761.29491 2.06036
2759.24647 2.05877
2757.19803 2.05932
2755.14959 2.06108
2753.10115 2.06172
2751.05271 2.06100
2749.00428 2.05989
2746.95584 2.05901
2744.90740 2.05808
2742.85896 2.05707
2740.81052 2.05642
2738.76208 2.05465
2736.71365 2.05113
2734.66521 2.04834
2732.61677 2.04762
2730.56833 2.04877
2728.51989 2.05064
2726.47145 2.05134
2724.42302 2.05057
2722.37458 2.04950
2720.32614 2.04922
2718.27770 2.04867
2716.22926 2.04615
2714.18082 2.04283
2712.13239 2.03889
2710.08395 2.03455
2708.03551 2.03230
2705.98707 2.03213
2703.93863 2.03209
2701.89019 2.03067
2699.84176 2.02739
2697.79332 2.02415
2695.74488 2.02277
2693.69644 2.02254
2691.64800 2.02247
2689.59956 2.02253
2687.55113 2.02245
2685.50269 2.02280
2683.45425 2.02317
2681.40581 2.02214
2679.35737 2.02139
2677.30893 2.02199
2675.26050 2.02222
2673.21206 2.02095
2671.16362 2.01892
2669.11518 2.01808
2667.06674 2.01689
2665.01830 2.01444
2662.96987 2.01509
2660.92143 2.01821
2658.87299 2.01914
2656.82455 2.01859
2654.77611 2.01775
2652.72767 2.01649
2650.67924 2.01586
2648.63080 2.01547
2646.58236 2.01503
2644.53392 2.01376
2642.48548 2.01082
2640.43704 2.00862
2638.38860 2.00824
2636.34017 2.00764
2634.29173 2.00595
2632.24329 2.00395
2630.19485 2.00220
2628.14641 2.00050
2626.09797 1.99876
2624.04954 1.99720
2622.00110 1.99702
2619.95266 1.99813
2617.90422 1.99788
2615.85578 1.99608
2613.80734 1.99545
2611.75891 1.99629
2609.71047 1.99556
2607.66203 1.99192
2605.61359 1.98955
2603.56515 1.99073
2601.51671 1.99054
2599.46828 1.98694
2597.41984 1.98517
2595.37140 1.98700
2593.32296 1.98821
2591.27452 1.98661
2589.22608 1.98428
2587.17765 1.98319
2585.12921 1.98333
2583.08077 1.98413
2581.03233 1.98422
2578.98389 1.98340
2576.93545 1.98308
2574.88702 1.98272
2572.83858 1.98113
2570.79014 1.97926
2568.74170 1.97925
2566.69326 1.98099
2564.64482 1.98232
2562.59639 1.98260
2560.54795 1.98174
2558.49951 1.97902
2556.45107 1.97542
2554.40263 1.97344
2552.35419 1.97331
2550.30576 1.97321
2548.25732 1.97306
2546.20888 1.97338
2544.16044 1.97420
2542.11200 1.97498
2540.06356 1.97448
2538.01513 1.97258
2535.96669 1.97034
2533.91825 1.96985
2531.86981 1.97076
2529.82137 1.97021
2527.77293 1.96792
2525.72450 1.96584
2523.67606 1.96590
2521.62762 1.96681
2519.57918 1.96623
2517.53074 1.96500
2515.48230 1.96445
2513.43387 1.96490
2511.38543 1.96583
2509.33699 1.96628
2507.28855 1.96649
2505.24011 1.96698
2503.19167 1.96711
2501.14324 1.96650
2499.09480 1.96485
2497.04636 1.96254
2494.99792 1.96074
2492.94948 1.95995
2490.90104 1.96003
2488.85260 1.96010
2486.80417 1.95964
2484.75573 1.95852
2482.70729 1.95717
2480.65885 1.95709
2478.61041 1.95791
2476.56197 1.95898
2474.51354 1.96086
2472.46510 1.96218
2470.41666 1.96183
2468.36822 1.95995
2466.31978 1.95840
2464.27134 1.95949
2462.22291 1.96001
2460.17447 1.95837
2458.12603 1.95757
2456.07759 1.95685
2454.02915 1.95536
2451.98071 1.95496
2449.93228 1.95604
2447.88384 1.95695
2445.83540 1.95643
2443.78696 1.95545
2441.73852 1.95523
2439.69008 1.95603
2437.64165 1.95645
2435.59321 1.95464
2433.54477 1.95238
2431.49633 1.95195
2429.44789 1.95194
2427.39945 1.95110
2425.35102 1.95081
2423.30258 1.95164
2421.25414 1.95195
2419.20570 1.95066
2417.15726 1.94827
2415.10882 1.94666
2413.06039 1.94734
2411.01195 1.94879
2408.96351 1.94926
2406.91507 1.94940
2404.86663 1.94961
2402.81819 1.95021
2400.76976 1.95128
2398.72132 1.95115
2396.67288 1.94949
2394.62444 1.94728
2392.57600 1.94536
2390.52756 1.94450
2388.47913 1.94434
2386.43069 1.94418
2384.38225 1.94361
2382.33381 1.94295
2380.28537 1.94259
2378.23693 1.94135
2376.18850 1.93903
2374.14006 1.93712
2372.09162 1.93530
2370.04318 1.93117
2367.99474 1.92413
2365.94630 1.91834
2363.89787 1.91680
2361.84943 1.91572
2359.80099 1.91691
2357.75255 1.92250
2355.70411 1.92650
2353.65567 1.92851
2351.60723 1.93098
2349.55880 1.93364
2347.51036 1.93456
2345.46192 1.93439
2343.41348 1.93533
2341.36504 1.93547
2339.31660 1.93253
2337.26817 1.92521
2335.21973 1.91895
2333.17129 1.91962
2331.12285 1.92427
2329.07441 1.92600
2327.02597 1.92407
2324.97754 1.92452
2322.92910 1.92631
2320.88066 1.92461
2318.83222 1.92303
2316.78378 1.92482
2314.73534 1.92649
2312.68691 1.92719
2310.63847 1.92984
2308.59003 1.93244
2306.54159 1.93132
2304.49315 1.92867
2302.44471 1.92792
2300.39628 1.92774
2298.34784 1.92601
2296.29940 1.92430
2294.25096 1.92451
2292.20252 1.92587
2290.15408 1.92622
2288.10565 1.92548
2286.05721 1.92555
2284.00877 1.92576
2281.96033 1.92508
2279.91189 1.92510
2277.86345 1.92637
2275.81502 1.92701
2273.76658 1.92565
2271.71814 1.92371
2269.66970 1.92340
2267.62126 1.92402
2265.57282 1.92401
2263.52439 1.92442
2261.47595 1.92536
2259.42751 1.92547
2257.37907 1.92545
2255.33063 1.92672
2253.28219 1.92879
2251.23376 1.92988
2249.18532 1.93056
2247.13688 1.93229
2245.08844 1.93358
2243.04000 1.93277
2240.99156 1.93148
2238.94313 1.93114
2236.89469 1.93116
2234.84625 1.93115
2232.79781 1.93068
2230.74937 1.92979
2228.70093 1.92830
2226.65250 1.92625
2224.60406 1.92542
2222.55562 1.92652
2220.50718 1.92833
2218.45874 1.92980
2216.41030 1.93033
2214.36186 1.92927
2212.31343 1.92680
2210.26499 1.92444
2208.21655 1.92304
2206.16811 1.92157
2204.11967 1.91946
2202.07123 1.91786
2200.02280 1.91688
2197.97436 1.91588
2195.92592 1.91596
2193.87748 1.91775
2191.82904 1.91924
2189.78060 1.91956
2187.73217 1.92090
2185.68373 1.92333
2183.63529 1.92484
2181.58685 1.92539
2179.53841 1.92484
2177.48997 1.92430
2175.44154 1.92520
2173.39310 1.92519
2171.34466 1.92416
2169.29622 1.92439
2167.24778 1.92532
2165.19934 1.92631
2163.15091 1.92598
2161.10247 1.92379
2159.05403 1.92231
2157.00559 1.92151
2154.95715 1.91994
2152.90871 1.91888
2150.86028 1.91871
2148.81184 1.91804
2146.76340 1.91743
2144.71496 1.91754
2142.66652 1.91694
2140.61808 1.91567
2138.56965 1.91503
2136.52121 1.91503
2134.47277 1.91534
2132.42433 1.91546
2130.37589 1.91522
2128.32745 1.91500
2126.27902 1.91462
2124.23058 1.91301
2122.18214 1.90999
2120.13370 1.90784
2118.08526 1.90769
2116.03682 1.90776
2113.98839 1.90804
2111.93995 1.90882
2109.89151 1.90902
2107.84307 1.90886
2105.79463 1.90764
2103.74619 1.90568
2101.69776 1.90471
2099.64932 1.90353
2097.60088 1.90120
2095.55244 1.89902
2093.50400 1.89787
2091.45556 1.89753
2089.40713 1.89646
2087.35869 1.89416
2085.31025 1.89238
2083.26181 1.89160
2081.21337 1.89131
2079.16493 1.89183
2077.11649 1.89305
2075.06806 1.89464
2073.01962 1.89566
2070.97118 1.89503
2068.92274 1.89306
2066.87430 1.89063
2064.82586 1.88891
2062.77743 1.88952
2060.72899 1.89107
2058.68055 1.89048
2056.63211 1.88857
2054.58367 1.88829
2052.53523 1.88964
2050.48680 1.89024
2048.43836 1.88955
2046.38992 1.88904
2044.34148 1.88923
2042.29304 1.88968
2040.24460 1.88939
2038.19617 1.88838
2036.14773 1.88728
2034.09929 1.88592
2032.05085 1.88540
2030.00241 1.88537
2027.95397 1.88432
2025.90554 1.88292
2023.85710 1.88131
2021.80866 1.87910
2019.76022 1.87686
2017.71178 1.87596
2015.66334 1.87707
2013.61491 1.87839
2011.56647 1.87801
2009.51803 1.87691
2007.46959 1.87742
2005.42115 1.87886
2003.37271 1.87990
2001.32428 1.88041
1999.27584 1.88006
1997.22740 1.87961
1995.17896 1.88012
1993.13052 1.88151
1991.08208 1.88264
1989.03365 1.88356
1986.98521 1.88487
1984.93677 1.88546
1982.88833 1.88503
1980.83989 1.88455
1978.79145 1.88456
1976.74302 1.88419
1974.69458 1.88264
1972.64614 1.88137
1970.59770 1.88120
1968.54926 1.88064
1966.50082 1.87928
1964.45239 1.87800
1962.40395 1.87688
1960.35551 1.87638
1958.30707 1.87634
1956.25863 1.87484
1954.21019 1.87171
1952.16176 1.86925
1950.11332 1.86848
1948.06488 1.86773
1946.01644 1.86586
1943.96800 1.86382
1941.91956 1.86224
1939.87112 1.86098
1937.82269 1.86042
1935.77425 1.86035
1933.72581 1.86035
1931.67737 1.86123
1929.62893 1.86254
1927.58049 1.86289
1925.53206 1.86317
1923.48362 1.86419
1921.43518 1.86498
1919.38674 1.86507
1917.33830 1.86549
1915.28986 1.86607
1913.24143 1.86511
1911.19299 1.86387
1909.14455 1.86444
1907.09611 1.86531
1905.04767 1.86556
1902.99923 1.86605
1900.95080 1.86664
1898.90236 1.86647
1896.85392 1.86520
1894.80548 1.86381
1892.75704 1.86299
1890.70860 1.86222
1888.66017 1.86111
1886.61173 1.86024
1884.56329 1.86002
1882.51485 1.86033
1880.46641 1.86096
1878.41797 1.86168
1876.36954 1.86259
1874.32110 1.86309
1872.27266 1.86223
1870.22422 1.86002
1868.17578 1.85765
1866.12734 1.85765
1864.07891 1.85982
1862.03047 1.86215
1859.98203 1.86361
1857.93359 1.86469
1855.88515 1.86569
1853.83671 1.86627
1851.78828 1.86675
1849.73984 1.86748
1847.69140 1.86759
1845.64296 1.86663
1843.59452 1.86596
1841.54608 1.86654
1839.49765 1.86712
1837.44921 1.86620
1835.40077 1.86431
1833.35233 1.86286
1831.30389 1.86108
1829.25545 1.85954
1827.20702 1.85940
1825.15858 1.85972
1823.11014 1.86067
1821.06170 1.86127
1819.01326 1.86059
1816.96482 1.85964
1814.91639 1.85868
1812.86795 1.85713
1810.81951 1.85632
1808.77107 1.85684
1806.72263 1.85726
1804.67419 1.85719
1802.62575 1.85634
1800.57732 1.85524
1798.52888 1.85467
1796.48044 1.85375
1794.43200 1.85296
1792.38356 1.85512
1790.33512 1.85909
1788.28669 1.86028
1786.23825 1.86024
1784.18981 1.86119
1782.14137 1.86195
1780.09293 1.86232
1778.04449 1.86359
1775.99606 1.86397
1773.94762 1.86304
1771.89918 1.86496
1769.85074 1.87015
1767.80230 1.87412
1765.75386 1.87677
1763.70543 1.87842
1761.65699 1.87929
1759.60855 1.87998
1757.56011 1.88109
1755.51167 1.88266
1753.46323 1.88361
1751.41480 1.88398
1749.36636 1.88491
1747.31792 1.88735
1745.26948 1.88968
1743.22104 1.89122
1741.17260 1.89420
1739.12417 1.89818
1737.07573 1.89822
1735.02729 1.89495
1732.97885 1.89640
1730.93041 1.90130
1728.88197 1.90368
1726.83354 1.90537
1724.78510 1.90834
1722.73666 1.91133
1720.68822 1.91214
1718.63978 1.91400
1716.59134 1.92268
1714.54291 1.93158
1712.49447 1.93653
1710.44603 1.94098
1708.39759 1.94611
1706.34915 1.95196
1704.30071 1.95651
1702.25228 1.95908
1700.20384 1.96485
1698.15540 1.97197
1696.10696 1.97629
1694.05852 1.98279
1692.01008 1.98892
1689.96165 1.99498
1687.91321 2.00085
1685.86477 2.00656
1683.81633 2.01699
1681.76789 2.02639
1679.71945 2.03312
1677.67102 2.03851
1675.62258 2.04225
1673.57414 2.04595
1671.52570 2.05030
1669.47726 2.05694
1667.42882 2.06174
1665.38038 2.06444
1663.33195 2.06965
1661.28351 2.07580
1659.23507 2.08003
1657.18663 2.08403
1655.13819 2.08835
1653.08975 2.09537
1651.04132 2.10052
1648.99288 2.10192
1646.94444 2.10467
1644.89600 2.10767
1642.84756 2.10838
1640.79912 2.10809
1638.75069 2.10666
1636.70225 2.10195
1634.65381 2.09489
1632.60537 2.09337
1630.55693 2.09380
1628.50849 2.09238
1626.46006 2.08881
1624.41162 2.08560
1622.36318 2.08151
1620.31474 2.07501
1618.26630 2.06797
1616.21786 2.06261
1614.16943 2.06123
1612.12099 2.06041
1610.07255 2.05772
1608.02411 2.05198
1605.97567 2.04527
1603.92723 2.04018
1601.87880 2.03662
1599.83036 2.03439
1597.78192 2.03325
1595.73348 2.03189
1593.68504 2.02903
1591.63660 2.02573
1589.58817 2.02477
1587.53973 2.02625
1585.49129 2.02678
1583.44285 2.02635
1581.39441 2.02737
1579.34597 2.02818
1577.29754 2.02845
1575.24910 2.03210
1573.20066 2.03446
1571.15222 2.03506
1569.10378 2.03866
1567.05534 2.04214
1565.00691 2.04265
1562.95847 2.04125
1560.91003 2.03736
1558.86159 2.03119
1556.81315 2.03419
1554.76471 2.03963
1552.71628 2.04252
1550.66784 2.04330
1548.61940 2.04264
1546.57096 2.04109
1544.52252 2.03934
1542.47408 2.03859
1540.42565 2.04018
1538.37721 2.04047
1536.32877 2.03793
1534.28033 2.03540
1532.23189 2.03586
1530.18345 2.03765
1528.13501 2.03815
1526.08658 2.03656
1524.03814 2.03404
1521.98970 2.03042
1519.94126 2.02672
1517.89282 2.02428
1515.84438 2.02062
1513.79595 2.01837
1511.74751 2.01813
1509.69907 2.01770
1507.65063 2.01497
1505.60219 2.00850
1503.55375 2.00399
1501.50532 2.00135
1499.45688 1.99980
1497.40844 1.99828
1495.36000 1.99547
1493.31156 1.99353
1491.26312 1.99356
1489.21469 1.99314
1487.16625 1.99056
1485.11781 1.98886
1483.06937 1.98743
1481.02093 1.98454
1478.97249 1.98177
1476.92406 1.98103
1474.87562 1.98156
1472.82718 1.98328
1470.77874 1.98592
1468.73030 1.98688
1466.68186 1.98759
1464.63343 1.99029
1462.58499 1.99249
1460.53655 1.99284
1458.48811 1.99447
1456.43967 1.99881
1454.39123 1.99835
1452.34280 1.99583
1450.29436 1.99412
1448.24592 1.99269
1446.19748 1.99166
1444.14904 1.99237
1442.10060 1.99453
1440.05217 1.99623
1438.00373 1.99640
1435.95529 1.99551
1433.90685 1.99492
1431.85841 1.99463
1429.80997 1.99280
1427.76154 1.98964
1425.71310 1.98801
1423.66466 1.98841
1421.61622 1.98969
1419.56778 1.99233
1417.51934 1.99373
1415.47091 1.99213
1413.42247 1.99050
1411.37403 1.98847
1409.32559 1.98630
1407.27715 1.98583
1405.22871 1.98712
1403.18028 1.98686
1401.13184 1.98469
1399.08340 1.98446
1397.03496 1.98574
1394.98652 1.98527
1392.93808 1.98360
1390.88965 1.98196
1388.84121 1.98121
1386.79277 1.98172
1384.74433 1.98161
1382.69589 1.98052
1380.64745 1.97947
1378.59901 1.97865
1376.55058 1.97822
1374.50214 1.97657
1372.45370 1.97302
1370.40526 1.97053
1368.35682 1.96915
1366.30838 1.96761
1364.25995 1.96569
1362.21151 1.96456
1360.16307 1.96541
1358.11463 1.96563
1356.06619 1.96340
1354.01775 1.96053
1351.96932 1.95842
1349.92088 1.95582
1347.87244 1.95357
1345.82400 1.95314
1343.77556 1.95291
1341.72712 1.95243
1339.67869 1.95310
1337.63025 1.95332
1335.58181 1.95248
1333.53337 1.95352
1331.48493 1.95648
1329.43649 1.95835
1327.38806 1.95899
1325.33962 1.96056
1323.29118 1.96221
1321.24274 1.96241
1319.19430 1.96221
1317.14586 1.96297
1315.09743 1.96417
1313.04899 1.96562
1311.00055 1.96844
1308.95211 1.97124
1306.90367 1.97169
1304.85523 1.97102
1302.80680 1.97172
1300.75836 1.97352
1298.70992 1.97494
1296.66148 1.97607
1294.61304 1.97716
1292.56460 1.97782
1290.51617 1.97764
1288.46773 1.97690
1286.41929 1.97626
1284.37085 1.97529
1282.32241 1.97319
1280.27397 1.97049
1278.22554 1.96882
1276.17710 1.96855
1274.12866 1.96901
1272.08022 1.96967
1270.03178 1.97092
1267.98334 1.97234
1265.93491 1.97305
1263.88647 1.97442
1261.83803 1.97655
1259.78959 1.97810
1257.74115 1.97984
1255.69271 1.98407
1253.64428 1.99071
1251.59584 1.99734
1249.54740 2.00388
1247.49896 2.01012
1245.45052 2.01449
1243.40208 2.01887
1241.35364 2.02471
1239.30521 2.02912
1237.25677 2.03152
1235.20833 2.03511
1233.15989 2.04061
1231.11145 2.04637
1229.06301 2.05183
1227.01458 2.05639
1224.96614 2.05899
1222.91770 2.06149
1220.86926 2.06639
1218.82082 2.07205
1216.77238 2.07687
1214.72395 2.08313
1212.67551 2.09258
1210.62707 2.10419
1208.57863 2.11642
1206.53019 2.12790
1204.48175 2.13873
1202.43332 2.15133
1200.38488 2.16588
1198.33644 2.17985
1196.28800 2.19254
1194.23956 2.20392
1192.19112 2.21430
1190.14269 2.22521
1188.09425 2.23584
1186.04581 2.24415
1183.99737 2.25234
1181.94893 2.26315
1179.90049 2.27335
1177.85206 2.28046
1175.80362 2.28888
1173.75518 2.30039
1171.70674 2.31044
1169.65830 2.31722
1167.60986 2.32461
1165.56143 2.33493
1163.51299 2.34481
1161.46455 2.35178
1159.41611 2.35923
1157.36767 2.36891
1155.31923 2.37692
1153.27080 2.38317
1151.22236 2.39141
1149.17392 2.40229
1147.12548 2.41507
1145.07704 2.42445
1143.02860 2.42785
1140.98017 2.43266
1138.93173 2.43989
1136.88329 2.44424
1134.83485 2.44747
1132.78641 2.45022
1130.73797 2.45120
1128.68954 2.45575
1126.64110 2.46394
1124.59266 2.47106
1122.54422 2.47760
1120.49578 2.48415
1118.44734 2.48834
1116.39891 2.48846
1114.35047 2.48911
1112.30203 2.49481
1110.25359 2.50305
1108.20515 2.50960
1106.15671 2.51193
1104.10827 2.50951
1102.05984 2.50731
1100.01140 2.51095
1097.96296 2.51659
1095.91452 2.51978
1093.86608 2.52426
1091.81764 2.53193
1089.76921 2.54109
1087.72077 2.55229
1085.67233 2.55878
1083.62389 2.55627
1081.57545 2.55595
1079.52701 2.56323
1077.47858 2.57283
1075.43014 2.57931
1073.38170 2.58174
1071.33326 2.58106
1069.28482 2.57538
1067.23638 2.56460
1065.18795 2.55290
1063.13951 2.54280
1061.09107 2.53352
1059.04263 2.52377
1056.99419 2.51182
1054.94575 2.50044
1052.89732 2.49188
1050.84888 2.48538
1048.80044 2.47964
1046.75200 2.47083
1044.70356 2.46135
1042.65512 2.45404
1040.60669 2.44533
1038.55825 2.43577
1036.50981 2.43057
1034.46137 2.43033
1032.41293 2.42899
1030.36449 2.42282
1028.31606 2.41578
1026.26762 2.41524
1024.21918 2.42003
1022.17074 2.42022
1020.12230 2.41974
1018.07386 2.42652
1016.02543 2.43237
1013.97699 2.43275
1011.92855 2.43146
1009.88011 2.42853
1007.83167 2.42598
1005.78323 2.42979
1003.73480 2.44085
1001.68636 2.44859
999.63792 2.44892
997.58948 2.45252
995.54104 2.46039
993.49260 2.46572
991.44417 2.46741
989.39573 2.46755
987.34729 2.47201
985.29885 2.47964
983.25041 2.48437
981.20197 2.48678
979.15354 2.48694
977.10510 2.48553
975.05666 2.48867
973.00822 2.50175
970.95978 2.51677
968.91134 2.52319
966.86290 2.52423
964.81447 2.52529
962.76603 2.53056
960.71759 2.53728
958.66915 2.53865
956.62071 2.54105
954.57227 2.54743
952.52384 2.54754
950.47540 2.53998
948.42696 2.53335
946.37852 2.53723
944.33008 2.55072
942.28164 2.55360
940.23321 2.54128
938.18477 2.53315
936.13633 2.53550
934.08789 2.53755
932.03945 2.52966
929.99101 2.51846
927.94258 2.51500
925.89414 2.51709
923.84570 2.51787
921.79726 2.51765
919.74882 2.52194
917.70038 2.52816
915.65195 2.52681
913.60351 2.52103
911.55507 2.51800
909.50663 2.51644
907.45819 2.51778
905.40975 2.52263
903.36132 2.52561
901.31288 2.52777
899.26444 2.53400
897.21600 2.53856
895.16756 2.53616
893.11912 2.53388
891.07069 2.53508
889.02225 2.53688
886.97381 2.53856
884.92537 2.53801
882.87693 2.53857
880.82849 2.54165
878.78006 2.53413
876.73162 2.52071
874.68318 2.51893
872.63474 2.52628
870.58630 2.53263
868.53786 2.53040
866.48943 2.52691
864.44099 2.53427
862.39255 2.54519
860.34411 2.54640
858.29567 2.53475
856.24723 2.52455
854.19880 2.52657
852.15036 2.52685
850.10192 2.51526
848.05348 2.50593
846.00504 2.50142
843.95660 2.49307
841.90817 2.48510
839.85973 2.47746
837.81129 2.47567
835.76285 2.48157
833.71441 2.48097
831.66597 2.47732
829.61753 2.48098
827.56910 2.49554
825.52066 2.51433
823.47222 2.51655
821.42378 2.50673
819.37534 2.50747
817.32690 2.51854
815.27847 2.52587
813.23003 2.52728
811.18159 2.52634
809.13315 2.52475
807.08471 2.53039
805.03627 2.53804
802.98784 2.53781
800.93940 2.53790
798.89096 2.55278
796.84252 2.57694
794.79408 2.57702
792.74564 2.56110
790.69721 2.56302
788.64877 2.58227
786.60033 2.60416
784.55189 2.61149
782.50345 2.60488
780.45501 2.59808
778.40658 2.60006
776.35814 2.61816
774.30970 2.64094
772.26126 2.65688
770.21282 2.67834
768.16438 2.69945
766.11595 2.69000
764.06751 2.65951
762.01907 2.64442
759.97063 2.65852
757.92219 2.68811
755.87375 2.70209
753.82532 2.70302
751.77688 2.70771
749.72844 2.70167
747.68000 2.68963
745.63156 2.70097
743.58312 2.74844
741.53469 2.79002
739.48625 2.78660
737.43781 2.77478
735.38937 2.77289
733.34093 2.78783
731.29249 2.83189
729.24406 2.85854
727.19562 2.84517
725.14718 2.86161
723.09874 2.90982
721.05030 2.94505
719.00186 2.96724
716.95343 2.96285
714.90499 2.95934
712.85655 2.97160
710.80811 3.00492
708.75967 3.07948
706.71123 3.10433
704.66280 3.06020
702.61436 3.01953
700.56592 2.97556
698.51748 2.97880
696.46904 3.07575
694.42060 3.18128
692.37216 3.16436
690.32373 3.06118
688.27529 2.95122
686.22685 2.92352
684.17841 2.99183
682.12997 3.05469
680.08153 3.05776
678.03310 3.02443
675.98466 3.00573
673.93622 3.03977
671.88778 3.02507
669.83934 2.89921
667.79090 2.80667
665.74247 2.85301
663.69403 2.88666
661.64559 2.80115
659.59715 2.64980
657.54871 2.54964
655.50027 2.48575
653.45184 2.39032
651.40340 2.30295
649.35496 2.26074
647.30652 2.25113
645.25808 2.25981
643.20964 2.25788
641.16121 2.21312
639.11277 2.15111
637.06433 2.12059
635.01589 2.11072
632.96745 2.07999
630.91901 2.03544
628.87058 2.00669
626.82214 1.99823
624.77370 1.98862
622.72526 1.95727
620.67682 1.93079
618.62838 1.93519
616.57995 1.92492
614.53151 1.86262
612.48307 1.81352
610.43463 1.81747
608.38619 1.84837
606.33775 1.87391
604.28932 1.86163
602.24088 1.81561
600.19244 1.78804
598.14400 1.78144
