3996.50324 2.32496
3994.45480 2.32890
3992.40636 2.33150
3990.35792 2.32654
3988.30948 2.32357
3986.26104 2.32440
3984.21261 2.31878
3982.16417 2.31551
3980.11573 2.32012
3978.06729 2.31855
3976.01885 2.30945
3973.97041 2.30391
3971.92198 2.30657
3969.87354 2.31417
3967.82510 2.31696
3965.77666 2.31323
3963.72822 2.31261
3961.67978 2.31796
3959.63135 2.32258
3957.58291 2.32085
3955.53447 2.31448
3953.48603 2.30971
3951.43759 2.30790
3949.38915 2.30982
3947.34072 2.31542
3945.29228 2.31770
3943.24384 2.31655
3941.19540 2.31592
3939.14696 2.31777
3937.09852 2.32419
3935.05009 2.33077
3933.00165 2.32962
3930.95321 2.32549
3928.90477 2.32871
3926.85633 2.33402
3924.80789 2.33573
3922.75946 2.33888
3920.71102 2.34389
3918.66258 2.33928
3916.61414 2.32473
3914.56570 2.31856
3912.51726 2.32055
3910.46883 2.31864
3908.42039 2.31737
3906.37195 2.32630
3904.32351 2.33564
3902.27507 2.33037
3900.22663 2.32335
3898.17820 2.32412
3896.12976 2.32684
3894.08132 2.32912
3892.03288 2.33252
3889.98444 2.33436
3887.93600 2.33264
3885.88756 2.33257
3883.83913 2.33674
3881.79069 2.33566
3879.74225 2.32752
3877.69381 2.32470
3875.64537 2.32526
3873.59693 2.32176
3871.54850 2.31876
3869.50006 2.31730
3867.45162 2.31536
3865.40318 2.31676
3863.35474 2.31745
3861.30630 2.31535
3859.25787 2.31282
3857.20943 2.30875
3855.16099 2.30906
3853.11255 2.32593
3851.06411 2.33219
3849.01567 2.32474
3846.96724 2.32010
3844.91880 2.31994
3842.87036 2.31720
3840.82192 2.31015
3838.77348 2.31223
3836.72504 2.31505
3834.67661 2.30758
3832.62817 2.30819
3830.57973 2.31972
3828.53129 2.32843
3826.48285 2.32811
3824.43441 2.32667
3822.38598 2.33163
3820.33754 2.33889
3818.28910 2.34419
3816.24066 2.34423
3814.19222 2.33285
3812.14378 2.32141
3810.09535 2.31853
3808.04691 2.32300
3805.99847 2.32405
3803.95003 2.32609
3801.90159 2.33836
3799.85315 2.34166
3797.80472 2.33571
3795.75628 2.33392
3793.70784 2.33273
3791.65940 2.32943
3789.61096 2.32857
3787.56252 2.32875
3785.51409 2.32238
3783.46565 2.31866
3781.41721 2.32577
3779.36877 2.32947
3777.32033 2.32235
3775.27189 2.31943
3773.22346 2.32475
3771.17502 2.33062
3769.12658 2.32962
3767.07814 2.32459
3765.02970 2.32300
3762.98126 2.32694
3760.93283 2.33307
3758.88439 2.33483
3756.83595 2.33208
3754.78751 2.33181
3752.73907 2.33355
3750.69063 2.33703
3748.64219 2.33784
3746.59376 2.32857
3744.54532 2.31493
3742.49688 2.30916
3740.44844 2.31072
3738.40000 2.31255
3736.35156 2.30291
3734.30313 2.29134
3732.25469 2.30309
3730.20625 2.32210
3728.15781 2.33508
3726.10937 2.34039
3724.06093 2.33842
3722.01250 2.33319
3719.96406 2.32939
3717.91562 2.32937
3715.86718 2.33077
3713.81874 2.33136
3711.77030 2.33371
3709.72187 2.33471
3707.67343 2.33486
3705.62499 2.33647
3703.57655 2.33890
3701.52811 2.34378
3699.47967 2.34302
3697.43124 2.33764
3695.38280 2.33623
3693.33436 2.33749
3691.28592 2.33964
3689.23748 2.34251
3687.18904 2.34296
3685.14061 2.34295
3683.09217 2.34000
3681.04373 2.33576
3678.99529 2.33708
3676.94685 2.35039
3674.89841 2.37574
3672.84998 2.38636
3670.80154 2.38222
3668.75310 2.35609
3666.70466 2.33212
3664.65622 2.32606
3662.60778 2.32583
3660.55935 2.32808
3658.51091 2.33508
3656.46247 2.34176
3654.41403 2.34587
3652.36559 2.35099
3650.31715 2.34992
3648.26872 2.33114
3646.22028 2.32328
3644.17184 2.32808
3642.12340 2.33505
3640.07496 2.34062
3638.02652 2.34356
3635.97809 2.34644
3633.92965 2.35429
3631.88121 2.36808
3629.83277 2.38139
3627.78433 2.37128
3625.73589 2.34974
3623.68746 2.34243
3621.63902 2.34973
3619.59058 2.36305
3617.54214 2.37045
3615.49370 2.37414
3613.44526 2.37514
3611.39682 2.37310
3609.34839 2.37135
3607.29995 2.36931
3605.25151 2.37405
3603.20307 2.38476
3601.15463 2.39173
3599.10619 2.39315
3597.05776 2.39448
3595.00932 2.39407
3592.96088 2.38910
3590.91244 2.38648
3588.86400 2.38748
3586.81556 2.38134
3584.76713 2.37398
3582.71869 2.37665
3580.67025 2.38434
3578.62181 2.39285
3576.57337 2.39827
3574.52493 2.39497
3572.47650 2.38973
3570.42806 2.39112
3568.37962 2.39850
3566.33118 2.40074
3564.28274 2.38898
3562.23430 2.37760
3560.18587 2.37335
3558.13743 2.37059
3556.08899 2.36761
3554.04055 2.36751
3551.99211 2.36880
3549.94367 2.37322
3547.89524 2.37887
3545.84680 2.37797
3543.79836 2.37383
3541.74992 2.37190
3539.70148 2.37101
3537.65304 2.36955
3535.60461 2.36928
3533.55617 2.37310
3531.50773 2.37871
3529.45929 2.38662
3527.41085 2.39906
3525.36241 2.40824
3523.31398 2.40874
3521.26554 2.40464
3519.21710 2.39564
3517.16866 2.38396
3515.12022 2.37769
3513.07178 2.37961
3511.02335 2.38439
3508.97491 2.38348
3506.92647 2.38076
3504.87803 2.38631
3502.82959 2.39582
3500.78115 2.39803
3498.73272 2.39967
3496.68428 2.40442
3494.63584 2.40240
3492.58740 2.39594
3490.53896 2.39060
3488.49052 2.38374
3486.44209 2.37972
3484.39365 2.38918
3482.34521 2.40851
3480.29677 2.41919
3478.24833 2.41814
3476.19989 2.41449
3474.15146 2.40846
3472.10302 2.40186
3470.05458 2.39659
3468.00614 2.39070
3465.95770 2.38841
3463.90926 2.39148
3461.86082 2.39794
3459.81239 2.40556
3457.76395 2.40898
3455.71551 2.40823
3453.66707 2.40777
3451.61863 2.40938
3449.57019 2.41263
3447.52176 2.41616
3445.47332 2.41663
3443.42488 2.41307
3441.37644 2.40599
3439.32800 2.39871
3437.27956 2.39591
3435.23113 2.39633
3433.18269 2.39427
3431.13425 2.38837
3429.08581 2.38788
3427.03737 2.39404
3424.98893 2.39580
3422.94050 2.39226
3420.89206 2.39032
3418.84362 2.38921
3416.79518 2.38747
3414.74674 2.38831
3412.69830 2.39148
3410.64987 2.39487
3408.60143 2.39831
3406.55299 2.40416
3404.50455 2.41087
3402.45611 2.41042
3400.40767 2.40431
3398.35924 2.40115
3396.31080 2.40432
3394.26236 2.41162
3392.21392 2.41337
3390.16548 2.40830
3388.11704 2.40572
3386.06861 2.40740
3384.02017 2.41088
3381.97173 2.41564
3379.92329 2.42368
3377.87485 2.42864
3375.82641 2.42388
3373.77798 2.42196
3371.72954 2.42701
3369.68110 2.42631
3367.63266 2.42136
3365.58422 2.41920
3363.53578 2.41691
3361.48735 2.41300
3359.43891 2.40939
3357.39047 2.40852
3355.34203 2.40741
3353.29359 2.40487
3351.24515 2.40845
3349.19672 2.41507
3347.14828 2.41038
3345.09984 2.39769
3343.05140 2.39299
3341.00296 2.39759
3338.95452 2.40105
3336.90609 2.39658
3334.85765 2.39295
3332.80921 2.39653
3330.76077 2.39746
3328.71233 2.39484
3326.66389 2.39508
3324.61545 2.39527
3322.56702 2.39365
3320.51858 2.39261
3318.47014 2.39389
3316.42170 2.40012
3314.37326 2.40752
3312.32482 2.40536
3310.27639 2.39525
3308.22795 2.39127
3306.17951 2.39472
3304.13107 2.39663
3302.08263 2.39944
3300.03419 2.40814
3297.98576 2.41385
3295.93732 2.40951
3293.88888 2.40202
3291.84044 2.39619
3289.79200 2.39468
3287.74356 2.39884
3285.69513 2.40473
3283.64669 2.41056
3281.59825 2.41345
3279.54981 2.41088
3277.50137 2.40788
3275.45293 2.40830
3273.40450 2.40810
3271.35606 2.40439
3269.30762 2.40226
3267.25918 2.40531
3265.21074 2.40884
3263.16230 2.40798
3261.11387 2.40506
3259.06543 2.40233
3257.01699 2.39765
3254.96855 2.39518
3252.92011 2.39865
3250.87167 2.40182
3248.82324 2.40372
3246.77480 2.40694
3244.72636 2.40709
3242.67792 2.40208
3240.62948 2.39727
3238.58104 2.39744
3236.53261 2.39864
3234.48417 2.39435
3232.43573 2.38762
3230.38729 2.38713
3228.33885 2.39286
3226.29041 2.39624
3224.24198 2.39555
3222.19354 2.39419
3220.14510 2.39381
3218.09666 2.39428
3216.04822 2.39156
3213.99978 2.38785
3211.95135 2.39218
3209.90291 2.40012
3207.85447 2.39735
3205.80603 2.38790
3203.75759 2.38347
3201.70915 2.38284
3199.66072 2.38367
3197.61228 2.38615
3195.56384 2.38718
3193.51540 2.38724
3191.46696 2.38842
3189.41852 2.38995
3187.37008 2.39436
3185.32165 2.40058
3183.27321 2.40225
3181.22477 2.39907
3179.17633 2.39626
3177.12789 2.39872
3175.07945 2.40305
3173.03102 2.40400
3170.98258 2.40281
3168.93414 2.40033
3166.88570 2.39959
3164.83726 2.40361
3162.78882 2.40597
3160.74039 2.39935
3158.69195 2.39143
3156.64351 2.39190
3154.59507 2.39529
3152.54663 2.39677
3150.49819 2.39463
3148.44976 2.38786
3146.40132 2.38457
3144.35288 2.38692
3142.30444 2.38969
3140.25600 2.39130
3138.20756 2.38931
3136.15913 2.38287
3134.11069 2.37834
3132.06225 2.38001
3130.01381 2.38401
3127.96537 2.38459
3125.91693 2.38287
3123.86850 2.38534
3121.82006 2.38947
3119.77162 2.38744
3117.72318 2.38000
3115.67474 2.37212
3113.62630 2.36825
3111.57787 2.36847
3109.52943 2.36974
3107.48099 2.37199
3105.43255 2.37418
3103.38411 2.37407
3101.33567 2.37147
3099.28724 2.36748
3097.23880 2.36467
3095.19036 2.36545
3093.14192 2.36742
3091.09348 2.36698
3089.04504 2.36742
3086.99661 2.37153
3084.94817 2.37660
3082.89973 2.37910
3080.85129 2.37688
3078.80285 2.37319
3076.75441 2.37285
3074.70598 2.37544
3072.65754 2.37688
3070.60910 2.37538
3068.56066 2.37564
3066.51222 2.38057
3064.46378 2.38496
3062.41535 2.38567
3060.36691 2.38714
3058.31847 2.39024
3056.27003 2.38744
3054.22159 2.38135
3052.17315 2.38082
3050.12471 2.38376
3048.07628 2.38496
3046.02784 2.38168
3043.97940 2.37708
3041.93096 2.37508
3039.88252 2.37561
3037.83408 2.37740
3035.78565 2.37653
3033.73721 2.37477
3031.68877 2.37713
3029.64033 2.37832
3027.59189 2.37483
3025.54345 2.37228
3023.49502 2.37096
3021.44658 2.36751
3019.39814 2.36136
3017.34970 2.35432
3015.30126 2.35161
3013.25282 2.35667
3011.20439 2.36343
3009.15595 2.36391
3007.10751 2.36009
3005.05907 2.35848
3003.01063 2.35952
3000.96219 2.35662
2998.91376 2.35153
2996.86532 2.35263
2994.81688 2.35789
2992.76844 2.36065
2990.72000 2.36114
2988.67156 2.36191
2986.62313 2.36471
2984.57469 2.36850
2982.52625 2.36768
2980.47781 2.36422
2978.42937 2.36366
2976.38093 2.36453
2974.33250 2.36772
2972.28406 2.37534
2970.23562 2.38129
2968.18718 2.38254
2966.13874 2.38231
2964.09030 2.38000
2962.04187 2.37630
2959.99343 2.37483
2957.94499 2.37787
2955.89655 2.38323
2953.84811 2.38512
2951.79967 2.38091
2949.75124 2.37525
2947.70280 2.37527
2945.65436 2.38094
2943.60592 2.38411
2941.55748 2.38094
2939.50904 2.37720
2937.46061 2.37543
2935.41217 2.37321
2933.36373 2.37149
2931.31529 2.37348
2929.26685 2.37409
2927.21841 2.36796
2925.16998 2.36126
2923.12154 2.35942
2921.07310 2.36142
2919.02466 2.36307
2916.97622 2.36391
2914.92778 2.36462
2912.87934 2.36279
2910.83091 2.35969
2908.78247 2.35919
2906.73403 2.35905
2904.68559 2.35498
2902.63715 2.35114
2900.58871 2.35075
2898.54028 2.35356
2896.49184 2.35853
2894.44340 2.36048
2892.39496 2.35686
2890.34652 2.35202
2888.29808 2.35192
2886.24965 2.35517
2884.20121 2.35741
2882.15277 2.35824
2880.10433 2.35890
2878.05589 2.36051
2876.00745 2.36222
2873.95902 2.36348
2871.91058 2.36598
2869.86214 2.37067
2867.81370 2.37424
2865.76526 2.37543
2863.71682 2.37795
2861.66839 2.38083
2859.61995 2.38112
2857.57151 2.37972
2855.52307 2.37826
2853.47463 2.37784
2851.42619 2.37931
2849.37776 2.38093
2847.32932 2.37779
2845.28088 2.37169
2843.23244 2.37112
2841.18400 2.37653
2839.13556 2.38054
2837.08713 2.37776
2835.03869 2.37206
2832.99025 2.37049
2830.94181 2.37049
2828.89337 2.36765
2826.84493 2.36429
2824.79650 2.36427
2822.74806 2.36598
2820.69962 2.36298
2818.65118 2.35725
2816.60274 2.35442
2814.55430 2.35403
2812.50587 2.35471
2810.45743 2.35415
2808.40899 2.35230
2806.36055 2.35255
2804.31211 2.35357
2802.26367 2.35136
2800.21524 2.34876
2798.16680 2.34790
2796.11836 2.34555
2794.06992 2.34524
2792.02148 2.35034
2789.97304 2.35592
2787.92461 2.35872
2785.87617 2.35953
2783.82773 2.35799
2781.77929 2.35580
2779.73085 2.35660
2777.68241 2.35859
2775.63397 2.36030
2773.58554 2.36350
2771.53710 2.36730
2769.48866 2.36887
2767.44022 2.36745
2765.39178 2.36825
2763.34334 2.37421
2761.29491 2.38028
2759.24647 2.38148
2757.19803 2.37897
2755.14959 2.37924
2753.10115 2.38322
2751.05271 2.38509
2749.00428 2.38454
2746.95584 2.38587
2744.90740 2.38679
2742.85896 2.38245
2740.81052 2.37637
2738.76208 2.37113
2736.71365 2.36713
2734.66521 2.36891
2732.61677 2.37377
2730.56833 2.37472
2728.51989 2.37215
2726.47145 2.36930
2724.42302 2.36890
2722.37458 2.36911
2720.32614 2.36647
2718.27770 2.36475
2716.22926 2.36424
2714.18082 2.36057
2712.13239 2.35547
2710.08395 2.35130
2708.03551 2.34853
2705.98707 2.34899
2703.93863 2.35156
2701.89019 2.35144
2699.84176 2.34898
2697.79332 2.35022
2695.74488 2.35516
2693.69644 2.35784
2691.64800 2.35626
2689.59956 2.35234
2687.55113 2.35026
2685.50269 2.35263
2683.45425 2.35552
2681.40581 2.35541
2679.35737 2.35501
2677.30893 2.35892
2675.26050 2.36443
2673.21206 2.36586
2671.16362 2.36601
2669.11518 2.36844
2667.06674 2.37184
2665.01830 2.37496
2662.96987 2.37725
2660.92143 2.37810
2658.87299 2.37613
2656.82455 2.37216
2654.77611 2.37229
2652.72767 2.37827
2650.67924 2.38313
2648.63080 2.38372
2646.58236 2.38309
2644.53392 2.38209
2642.48548 2.38122
2640.43704 2.38167
2638.38860 2.38399
2636.34017 2.38587
2634.29173 2.38341
2632.24329 2.37945
2630.19485 2.37578
2628.14641 2.37038
2626.09797 2.36806
2624.04954 2.37154
2622.00110 2.37414
2619.95266 2.37221
2617.90422 2.36840
2615.85578 2.36440
2613.80734 2.36239
2611.75891 2.36281
2609.71047 2.36240
2607.66203 2.36094
2605.61359 2.36078
2603.56515 2.36198
2601.51671 2.36414
2599.46828 2.36645
2597.41984 2.36626
2595.37140 2.36381
2593.32296 2.36179
2591.27452 2.36137
2589.22608 2.36204
2587.17765 2.36228
2585.12921 2.36157
2583.08077 2.36060
2581.03233 2.36118
2578.98389 2.36214
2576.93545 2.36166
2574.88702 2.36281
2572.83858 2.36589
2570.79014 2.36886
2568.74170 2.37184
2566.69326 2.37440
2564.64482 2.37609
2562.59639 2.37628
2560.54795 2.37797
2558.49951 2.38334
2556.45107 2.38754
2554.40263 2.39023
2552.35419 2.39293
2550.30576 2.39222
2548.25732 2.38881
2546.20888 2.38549
2544.16044 2.38253
2542.11200 2.38223
2540.06356 2.38751
2538.01513 2.39159
2535.96669 2.38847
2533.91825 2.38465
2531.86981 2.38408
2529.82137 2.38617
2527.77293 2.38911
2525.72450 2.38919
2523.67606 2.38664
2521.62762 2.38316
2519.57918 2.37869
2517.53074 2.37597
2515.48230 2.37739
2513.43387 2.37905
2511.38543 2.37745
2509.33699 2.37472
2507.28855 2.37379
2505.24011 2.37423
2503.19167 2.37367
2501.14324 2.37204
2499.09480 2.37086
2497.04636 2.36867
2494.99792 2.36487
2492.94948 2.36261
2490.90104 2.36348
2488.85260 2.36605
2486.80417 2.36768
2484.75573 2.36702
2482.70729 2.36555
2480.65885 2.36583
2478.61041 2.36574
2476.56197 2.36214
2474.51354 2.36024
2472.46510 2.36400
2470.41666 2.36665
2468.36822 2.36517
2466.31978 2.36588
2464.27134 2.36896
2462.22291 2.36962
2460.17447 2.36757
2458.12603 2.36722
2456.07759 2.37126
2454.02915 2.37673
2451.98071 2.38114
2449.93228 2.38294
2447.88384 2.38039
2445.83540 2.37728
2443.78696 2.37717
2441.73852 2.37699
2439.69008 2.37689
2437.64165 2.38055
2435.59321 2.38561
2433.54477 2.38833
2431.49633 2.38943
2429.44789 2.39041
2427.39945 2.39222
2425.35102 2.39279
2423.30258 2.38953
2421.25414 2.38496
2419.20570 2.38218
2417.15726 2.38256
2415.10882 2.38441
2413.06039 2.38641
2411.01195 2.38867
2408.96351 2.38826
2406.91507 2.38510
2404.86663 2.38305
2402.81819 2.38336
2400.76976 2.38220
2398.72132 2.37648
2396.67288 2.37072
2394.62444 2.36961
2392.57600 2.36982
2390.52756 2.36739
2388.47913 2.36489
2386.43069 2.36437
2384.38225 2.36374
2382.33381 2.36472
2380.28537 2.36923
2378.23693 2.37644
2376.18850 2.39019
2374.14006 2.40720
2372.09162 2.41331
2370.04318 2.41080
2367.99474 2.41434
2365.94630 2.42261
2363.89787 2.42687
2361.84943 2.42827
2359.80099 2.43053
2357.75255 2.43113
2355.70411 2.43249
2353.65567 2.43435
2351.60723 2.42252
2349.55880 2.40941
2347.51036 2.41250
2345.46192 2.42670
2343.41348 2.43265
2341.36504 2.43353
2339.31660 2.43999
2337.26817 2.44028
2335.21973 2.43674
2333.17129 2.43166
2331.12285 2.41468
2329.07441 2.40658
2327.02597 2.41737
2324.97754 2.42322
2322.92910 2.42401
2320.88066 2.42960
2318.83222 2.42862
2316.78378 2.41898
2314.73534 2.41194
2312.68691 2.41132
2310.63847 2.41363
2308.59003 2.41358
2306.54159 2.40963
2304.49315 2.40321
2302.44471 2.39506
2300.39628 2.38757
2298.34784 2.38340
2296.29940 2.38257
2294.25096 2.38249
2292.20252 2.38223
2290.15408 2.38253
2288.10565 2.38043
2286.05721 2.37338
2284.00877 2.36490
2281.96033 2.35914
2279.91189 2.35933
2277.86345 2.36405
2275.81502 2.36493
2273.76658 2.36250
2271.71814 2.36208
2269.66970 2.36183
2267.62126 2.36171
2265.57282 2.36472
2263.52439 2.36859
2261.47595 2.37055
2259.42751 2.37339
2257.37907 2.37630
2255.33063 2.37813
2253.28219 2.37928
2251.23376 2.37626
2249.18532 2.37211
2247.13688 2.37254
2245.08844 2.37390
2243.04000 2.37155
2240.99156 2.37113
2238.94313 2.37630
2236.89469 2.37765
2234.84625 2.37383
2232.79781 2.37343
2230.74937 2.37725
2228.70093 2.38292
2226.65250 2.38646
2224.60406 2.38576
2222.55562 2.38443
2220.50718 2.38376
2218.45874 2.38448
2216.41030 2.38701
2214.36186 2.38655
2212.31343 2.38297
2210.26499 2.38282
2208.21655 2.38599
2206.16811 2.38751
2204.11967 2.38575
2202.07123 2.38177
2200.02280 2.37803
2197.97436 2.37534
2195.92592 2.37122
2193.87748 2.36786
2191.82904 2.36754
2189.78060 2.36682
2187.73217 2.36667
2185.68373 2.36814
2183.63529 2.36849
2181.58685 2.36850
2179.53841 2.36988
2177.48997 2.36934
2175.44154 2.36539
2173.39310 2.36492
2171.34466 2.36811
2169.29622 2.36664
2167.24778 2.36159
2165.19934 2.35851
2163.15091 2.35677
2161.10247 2.35637
2159.05403 2.35932
2157.00559 2.36440
2154.95715 2.36952
2152.90871 2.37217
2150.86028 2.37081
2148.81184 2.36959
2146.76340 2.36901
2144.71496 2.36718
2142.66652 2.36882
2140.61808 2.37455
2138.56965 2.37906
2136.52121 2.38217
2134.47277 2.38650
2132.42433 2.38781
2130.37589 2.38346
2128.32745 2.38015
2126.27902 2.38200
2124.23058 2.38546
2122.18214 2.38528
2120.13370 2.38209
2118.08526 2.38046
2116.03682 2.38005
2113.98839 2.37953
2111.93995 2.38139
2109.89151 2.38599
2107.84307 2.38975
2105.79463 2.38826
2103.74619 2.38324
2101.69776 2.38032
2099.64932 2.37888
2097.60088 2.37624
2095.55244 2.37222
2093.50400 2.36976
2091.45556 2.37179
2089.40713 2.37606
2087.35869 2.37974
2085.31025 2.38070
2083.26181 2.37886
2081.21337 2.37783
2079.16493 2.37843
2077.11649 2.37859
2075.06806 2.37466
2073.01962 2.36664
2070.97118 2.36150
2068.92274 2.36095
2066.87430 2.36202
2064.82586 2.36416
2062.77743 2.36633
2060.72899 2.36771
2058.68055 2.36814
2056.63211 2.36701
2054.58367 2.36462
2052.53523 2.36216
2050.48680 2.36181
2048.43836 2.36420
2046.38992 2.36551
2044.34148 2.36313
2042.29304 2.36079
2040.24460 2.36198
2038.19617 2.36623
2036.14773 2.37053
2034.09929 2.37252
2032.05085 2.37391
2030.00241 2.37394
2027.95397 2.37231
2025.90554 2.37372
2023.85710 2.37677
2021.80866 2.37620
2019.76022 2.37329
2017.71178 2.37060
2015.66334 2.36871
2013.61491 2.37121
2011.56647 2.37812
2009.51803 2.38236
2007.46959 2.38102
2005.42115 2.37850
2003.37271 2.37776
2001.32428 2.37783
1999.27584 2.37668
1997.22740 2.37501
1995.17896 2.37673
1993.13052 2.37988
1991.08208 2.37917
1989.03365 2.37710
1986.98521 2.37700
1984.93677 2.37876
1982.88833 2.38078
1980.83989 2.38090
1978.79145 2.37981
1976.74302 2.37848
1974.69458 2.37559
1972.64614 2.37224
1970.59770 2.37274
1968.54926 2.37550
1966.50082 2.37450
1964.45239 2.37152
1962.40395 2.37123
1960.35551 2.37227
1958.30707 2.37078
1956.25863 2.36814
1954.21019 2.36830
1952.16176 2.36801
1950.11332 2.36464
1948.06488 2.36202
1946.01644 2.36169
1943.96800 2.36170
1941.91956 2.35969
1939.87112 2.35586
1937.82269 2.35434
1935.77425 2.35772
1933.72581 2.36279
1931.67737 2.36394
1929.62893 2.36279
1927.58049 2.36308
1925.53206 2.36318
1923.48362 2.36213
1921.43518 2.35923
1919.38674 2.35653
1917.33830 2.35734
1915.28986 2.35963
1913.24143 2.36253
1911.19299 2.36593
1909.14455 2.36654
1907.09611 2.36505
1905.04767 2.36526
1902.99923 2.36463
1900.95080 2.36341
1898.90236 2.36495
1896.85392 2.36678
1894.80548 2.36853
1892.75704 2.37094
1890.70860 2.37451
1888.66017 2.37814
1886.61173 2.37821
1884.56329 2.37780
1882.51485 2.37945
1880.46641 2.38123
1878.41797 2.38083
1876.36954 2.37922
1874.32110 2.37853
1872.27266 2.37776
1870.22422 2.37771
1868.17578 2.37991
1866.12734 2.38106
1864.07891 2.37846
1862.03047 2.37265
1859.98203 2.36800
1857.93359 2.36784
1855.88515 2.37115
1853.83671 2.37327
1851.78828 2.36898
1849.73984 2.36268
1847.69140 2.36178
1845.64296 2.36291
1843.59452 2.35677
1841.54608 2.34986
1839.49765 2.34932
1837.44921 2.35002
1835.40077 2.34979
1833.35233 2.35223
1831.30389 2.35883
1829.25545 2.36448
1827.20702 2.36181
1825.15858 2.35562
1823.11014 2.35180
1821.06170 2.35003
1819.01326 2.34960
1816.96482 2.35080
1814.91639 2.35310
1812.86795 2.35550
1810.81951 2.35778
1808.77107 2.36133
1806.72263 2.36401
1804.67419 2.36292
1802.62575 2.36102
1800.57732 2.36363
1798.52888 2.36904
1796.48044 2.37340
1794.43200 2.37718
1792.38356 2.38008
1790.33512 2.38205
1788.28669 2.38445
1786.23825 2.38738
1784.18981 2.38720
1782.14137 2.38327
1780.09293 2.38228
1778.04449 2.38610
1775.99606 2.39298
1773.94762 2.40257
1771.89918 2.40584
1769.85074 2.40059
1767.80230 2.39898
1765.75386 2.39786
1763.70543 2.39421
1761.65699 2.38870
1759.60855 2.38279
1757.56011 2.38033
1755.51167 2.38237
1753.46323 2.38513
1751.41480 2.38644
1749.36636 2.38714
1747.31792 2.38307
1745.26948 2.37377
1743.22104 2.36553
1741.17260 2.36374
1739.12417 2.36505
1737.07573 2.36366
1735.02729 2.36323
1732.97885 2.36345
1730.93041 2.35881
1728.88197 2.35156
1726.83354 2.34616
1724.78510 2.34612
1722.73666 2.35054
1720.68822 2.35754
1718.63978 2.36735
1716.59134 2.37185
1714.54291 2.36407
1712.49447 2.35940
1710.44603 2.36263
1708.39759 2.36862
1706.34915 2.37317
1704.30071 2.37859
1702.25228 2.38469
1700.20384 2.39142
1698.15540 2.39527
1696.10696 2.39053
1694.05852 2.38458
1692.01008 2.38337
1689.96165 2.38865
1687.91321 2.39887
1685.86477 2.41005
1683.81633 2.42342
1681.76789 2.42918
1679.71945 2.42772
1677.67102 2.42184
1675.62258 2.41815
1673.57414 2.42538
1671.52570 2.43448
1669.47726 2.43702
1667.42882 2.43322
1665.38038 2.42737
1663.33195 2.42057
1661.28351 2.41516
1659.23507 2.41147
1657.18663 2.40704
1655.13819 2.40214
1653.08975 2.39909
1651.04132 2.40201
1648.99288 2.40851
1646.94444 2.41207
1644.89600 2.39984
1642.84756 2.38711
1640.79912 2.38315
1638.75069 2.38522
1636.70225 2.38421
1634.65381 2.37504
1632.60537 2.36638
1630.55693 2.35947
1628.50849 2.35622
1626.46006 2.36040
1624.41162 2.36736
1622.36318 2.36745
1620.31474 2.36406
1618.26630 2.36446
1616.21786 2.36886
1614.16943 2.37166
1612.12099 2.37105
1610.07255 2.37177
1608.02411 2.37395
1605.97567 2.37384
1603.92723 2.37508
1601.87880 2.37970
1599.83036 2.38562
1597.78192 2.39453
1595.73348 2.40481
1593.68504 2.40753
1591.63660 2.40340
1589.58817 2.40234
1587.53973 2.40691
1585.49129 2.41324
1583.44285 2.41764
1581.39441 2.42046
1579.34597 2.42450
1577.29754 2.43386
1575.24910 2.44819
1573.20066 2.45323
1571.15222 2.45103
1569.10378 2.44417
1567.05534 2.43510
1565.00691 2.43193
1562.95847 2.43866
1560.91003 2.45180
1558.86159 2.45855
1556.81315 2.44431
1554.76471 2.43352
1552.71628 2.42873
1550.66784 2.42570
1548.61940 2.42023
1546.57096 2.42083
1544.52252 2.43329
1542.47408 2.44281
1540.42565 2.42839
1538.37721 2.41300
1536.32877 2.40808
1534.28033 2.40284
1532.23189 2.39506
1530.18345 2.38950
1528.13501 2.38881
1526.08658 2.39514
1524.03814 2.40394
1521.98970 2.40661
1519.94126 2.40380
1517.89282 2.40305
1515.84438 2.40134
1513.79595 2.40020
1511.74751 2.40495
1509.69907 2.41023
1507.65063 2.40933
1505.60219 2.40944
1503.55375 2.41435
1501.50532 2.42242
1499.45688 2.43066
1497.40844 2.43296
1495.36000 2.43098
1493.31156 2.42889
1491.26312 2.43123
1489.21469 2.44015
1487.16625 2.43950
1485.11781 2.43223
1483.06937 2.42943
1481.02093 2.42918
1478.97249 2.42846
1476.92406 2.43100
1474.87562 2.44085
1472.82718 2.45012
1470.77874 2.44598
1468.73030 2.43892
1466.68186 2.43438
1464.63343 2.42578
1462.58499 2.41451
1460.53655 2.40921
1458.48811 2.40654
1456.43967 2.40055
1454.39123 2.39603
1452.34280 2.39024
1450.29436 2.38232
1448.24592 2.37705
1446.19748 2.37223
1444.14904 2.36371
1442.10060 2.35549
1440.05217 2.35286
1438.00373 2.35615
1435.95529 2.35865
1433.90685 2.35668
1431.85841 2.35576
1429.80997 2.35581
1427.76154 2.35387
1425.71310 2.35212
1423.66466 2.35307
1421.61622 2.35522
1419.56778 2.35783
1417.51934 2.35894
1415.47091 2.35751
1413.42247 2.36008
1411.37403 2.36707
1409.32559 2.37203
1407.27715 2.37672
1405.22871 2.38511
1403.18028 2.39290
1401.13184 2.39745
1399.08340 2.40075
1397.03496 2.40443
1394.98652 2.40406
1392.93808 2.39721
1390.88965 2.39227
1388.84121 2.39119
1386.79277 2.39260
1384.74433 2.39627
1382.69589 2.39838
1380.64745 2.39860
1378.59901 2.39936
1376.55058 2.39915
1374.50214 2.39683
1372.45370 2.39242
1370.40526 2.38711
1368.35682 2.38294
1366.30838 2.38013
1364.25995 2.37969
1362.21151 2.37993
1360.16307 2.37489
1358.11463 2.36934
1356.06619 2.36709
1354.01775 2.36538
1351.96932 2.36503
1349.92088 2.36482
1347.87244 2.35968
1345.82400 2.35186
1343.77556 2.34822
1341.72712 2.35013
1339.67869 2.35191
1337.63025 2.34960
1335.58181 2.34780
1333.53337 2.34746
1331.48493 2.34665
1329.43649 2.34632
1327.38806 2.34680
1325.33962 2.34742
1323.29118 2.34861
1321.24274 2.35220
1319.19430 2.35923
1317.14586 2.36784
1315.09743 2.37444
1313.04899 2.37686
1311.00055 2.37739
1308.95211 2.37935
1306.90367 2.38207
1304.85523 2.38449
1302.80680 2.38857
1300.75836 2.39387
1298.70992 2.39712
1296.66148 2.40102
1294.61304 2.40902
1292.56460 2.41635
1290.51617 2.41745
1288.46773 2.41299
1286.41929 2.41030
1284.37085 2.41325
1282.32241 2.41522
1280.27397 2.41170
1278.22554 2.40526
1276.17710 2.40108
1274.12866 2.40476
1272.08022 2.41490
1270.03178 2.42246
1267.98334 2.42358
1265.93491 2.42108
1263.88647 2.41797
1261.83803 2.41778
1259.78959 2.41899
1257.74115 2.41727
1255.69271 2.41260
1253.64428 2.40733
1251.59584 2.40412
1249.54740 2.40267
1247.49896 2.40113
1245.45052 2.39946
1243.40208 2.39747
1241.35364 2.39606
1239.30521 2.39605
1237.25677 2.39689
1235.20833 2.39918
1233.15989 2.40338
1231.11145 2.40962
1229.06301 2.41504
1227.01458 2.41540
1224.96614 2.41485
1222.91770 2.42054
1220.86926 2.43075
1218.82082 2.44065
1216.77238 2.45017
1214.72395 2.45861
1212.67551 2.46385
1210.62707 2.46770
1208.57863 2.47352
1206.53019 2.47883
1204.48175 2.47978
1202.43332 2.47877
1200.38488 2.47829
1198.33644 2.47866
1196.28800 2.48165
1194.23956 2.48764
1192.19112 2.49238
1190.14269 2.49636
1188.09425 2.50413
1186.04581 2.51085
1183.99737 2.51244
1181.94893 2.51478
1179.90049 2.51783
1177.85206 2.51456
1175.80362 2.50948
1173.75518 2.51179
1171.70674 2.51594
1169.65830 2.51369
1167.60986 2.50912
1165.56143 2.50486
1163.51299 2.49883
1161.46455 2.49425
1159.41611 2.49413
1157.36767 2.49707
1155.31923 2.50186
1153.27080 2.50796
1151.22236 2.51038
1149.17392 2.50619
1147.12548 2.50072
1145.07704 2.49687
1143.02860 2.49549
1140.98017 2.49714
1138.93173 2.49862
1136.88329 2.50037
1134.83485 2.50437
1132.78641 2.51097
1130.73797 2.52024
1128.68954 2.52668
1126.64110 2.52836
1124.59266 2.53053
1122.54422 2.53238
1120.49578 2.53179
1118.44734 2.53037
1116.39891 2.52679
1114.35047 2.52240
1112.30203 2.52154
1110.25359 2.52454
1108.20515 2.52828
1106.15671 2.53184
1104.10827 2.53901
1102.05984 2.54485
1100.01140 2.54192
1097.96296 2.53478
1095.91452 2.52764
1093.86608 2.52603
1091.81764 2.53475
1089.76921 2.54478
1087.72077 2.54847
1085.67233 2.54994
1083.62389 2.54730
1081.57545 2.53803
1079.52701 2.53283
1077.47858 2.53473
1075.43014 2.53245
1073.38170 2.52516
1071.33326 2.52055
1069.28482 2.51816
1067.23638 2.51401
1065.18795 2.50618
1063.13951 2.49787
1061.09107 2.49331
1059.04263 2.49185
1056.99419 2.49193
1054.94575 2.49182
1052.89732 2.49359
1050.84888 2.50093
1048.80044 2.50592
1046.75200 2.50168
1044.70356 2.49619
1042.65512 2.49474
1040.60669 2.49516
1038.55825 2.49815
1036.50981 2.50450
1034.46137 2.51086
1032.41293 2.51194
1030.36449 2.50751
1028.31606 2.50721
1026.26762 2.51247
1024.21918 2.51446
1022.17074 2.51428
1020.12230 2.51824
1018.07386 2.52506
1016.02543 2.52986
1013.97699 2.53299
1011.92855 2.53808
1009.88011 2.54621
1007.83167 2.55165
1005.78323 2.55058
1003.73480 2.55314
1001.68636 2.56333
999.63792 2.56499
997.58948 2.55247
995.54104 2.54292
993.49260 2.54370
991.44417 2.55182
989.39573 2.56263
987.34729 2.56993
985.29885 2.57888
983.25041 2.58678
981.20197 2.57993
979.15354 2.56892
977.10510 2.57029
975.05666 2.57693
973.00822 2.57883
970.95978 2.57821
968.91134 2.57707
966.86290 2.57461
964.81447 2.57199
962.76603 2.57058
960.71759 2.57086
958.66915 2.57678
956.62071 2.58907
954.57227 2.59757
952.52384 2.59679
950.47540 2.59389
948.42696 2.59299
946.37852 2.59303
944.33008 2.59467
942.28164 2.59430
940.23321 2.58638
938.18477 2.57952
936.13633 2.58325
934.08789 2.59399
932.03945 2.60584
929.99101 2.61031
927.94258 2.60462
925.89414 2.59844
923.84570 2.59784
921.79726 2.60446
919.74882 2.61794
917.70038 2.62672
915.65195 2.62211
913.60351 2.61616
911.55507 2.61651
909.50663 2.61522
907.45819 2.61212
905.40975 2.61277
903.36132 2.61574
901.31288 2.61986
899.26444 2.62384
897.21600 2.62843
895.16756 2.62986
893.11912 2.62200
891.07069 2.61791
889.02225 2.62586
886.97381 2.63760
884.92537 2.64641
882.87693 2.64349
880.82849 2.63277
878.78006 2.63457
876.73162 2.64683
874.68318 2.65130
872.63474 2.64285
870.58630 2.62925
868.53786 2.62457
866.48943 2.62778
864.44099 2.62874
862.39255 2.63355
860.34411 2.64223
858.29567 2.64530
856.24723 2.64890
854.19880 2.65367
852.15036 2.65455
850.10192 2.65542
848.05348 2.65636
846.00504 2.66375
843.95660 2.68084
841.90817 2.69382
839.85973 2.70444
837.81129 2.72383
835.76285 2.74565
833.71441 2.76607
831.66597 2.77756
829.61753 2.76253
827.56910 2.73074
825.52066 2.71626
823.47222 2.73238
821.42378 2.75444
819.37534 2.75302
817.32690 2.74266
815.27847 2.75416
813.23003 2.77441
811.18159 2.78031
809.13315 2.78743
807.08471 2.80040
805.03627 2.79222
802.98784 2.76625
800.93940 2.75073
798.89096 2.75613
796.84252 2.78104
794.79408 2.81489
792.74564 2.85561
790.69721 2.89026
788.64877 2.90199
786.60033 2.90395
784.55189 2.90709
782.50345 2.91333
780.45501 2.91210
778.40658 2.90079
776.35814 2.89474
774.30970 2.90493
772.26126 2.92218
770.21282 2.93956
768.16438 2.95485
766.11595 2.94429
764.06751 2.91293
762.01907 2.91109
759.97063 2.94843
757.92219 2.97300
755.87375 2.96827
753.82532 2.95991
751.77688 2.98267
749.72844 3.06450
747.68000 3.14433
745.63156 3.14635
743.58312 3.11608
741.53469 3.07150
739.48625 3.01825
737.43781 2.99667
735.38937 3.05690
733.34093 3.21637
731.29249 3.31338
729.24406 3.21817
727.19562 3.16746
725.14718 3.28590
723.09874 3.41113
721.05030 3.29579
719.00186 3.21858
716.95343 3.29976
714.90499 3.42973
712.85655 3.44465
710.80811 3.44649
708.75967 3.59590
706.71123 3.95789
704.66280 4.81100
702.61436 5.00000
700.56592 5.00000
698.51748 3.97766
696.46904 3.80701
694.42060 3.84483
692.37216 3.66672
690.32373 3.80543
688.27529 5.00000
686.22685 4.87217
684.17841 3.30000
682.12997 3.09185
680.08153 3.05598
678.03310 3.00956
675.98466 2.93961
673.93622 2.93870
671.88778 2.93967
669.83934 2.79117
667.79090 2.64095
665.74247 2.60747
663.69403 2.57105
661.64559 2.51336
659.59715 2.45939
657.54871 2.41629
655.50027 2.37396
653.45184 2.30211
651.40340 2.22149
649.35496 2.17184
647.30652 2.14570
645.25808 2.11183
643.20964 2.08470
641.16121 2.08238
639.11277 2.07560
637.06433 2.04653
635.01589 2.01771
632.96745 2.00201
630.91901 1.99516
628.87058 1.98617
626.82214 1.95142
624.77370 1.91058
622.72526 1.88856
620.67682 1.86401
618.62838 1.83692
616.57995 1.83302
614.53151 1.84140
612.48307 1.82644
610.43463 1.79512
608.38619 1.78444
606.33775 1.80190
604.28932 1.81218
602.24088 1.78889
600.19244 1.75878
598.14400 1.74146
