3996.50324 2.29498
3994.45480 2.28973
3992.40636 2.28748
3990.35792 2.28655
3988.30948 2.28257
3986.26104 2.27929
3984.21261 2.28132
3982.16417 2.28691
3980.11573 2.28890
3978.06729 2.28350
3976.01885 2.27720
3973.97041 2.27581
3971.92198 2.27492
3969.87354 2.27552
3967.82510 2.28081
3965.77666 2.28483
3963.72822 2.28543
3961.67978 2.28499
3959.63135 2.28341
3957.58291 2.28041
3955.53447 2.28004
3953.48603 2.28243
3951.43759 2.28411
3949.38915 2.28735
3947.34072 2.28651
3945.29228 2.28092
3943.24384 2.28101
3941.19540 2.28644
3939.14696 2.28995
3937.09852 2.28553
3935.05009 2.27686
3933.00165 2.27569
3930.95321 2.27827
3928.90477 2.27779
3926.85633 2.28219
3924.80789 2.28854
3922.75946 2.28846
3920.71102 2.28853
3918.66258 2.29077
3916.61414 2.28982
3914.56570 2.29080
3912.51726 2.29434
3910.46883 2.29321
3908.42039 2.28964
3906.37195 2.28849
3904.32351 2.28721
3902.27507 2.28478
3900.22663 2.28956
3898.17820 2.30129
3896.12976 2.30827
3894.08132 2.30610
3892.03288 2.29834
3889.98444 2.29505
3887.93600 2.29599
3885.88756 2.29512
3883.83913 2.29454
3881.79069 2.29838
3879.74225 2.30163
3877.69381 2.29969
3875.64537 2.29770
3873.59693 2.29845
3871.54850 2.30016
3869.50006 2.29910
3867.45162 2.29842
3865.40318 2.30038
3863.35474 2.30084
3861.30630 2.30110
3859.25787 2.30172
3857.20943 2.29883
3855.16099 2.29534
3853.11255 2.29432
3851.06411 2.28963
3849.01567 2.28711
3846.96724 2.29047
3844.91880 2.29593
3842.87036 2.29274
3840.82192 2.28683
3838.77348 2.29329
3836.72504 2.29931
3834.67661 2.29694
3832.62817 2.29592
3830.57973 2.29673
3828.53129 2.29427
3826.48285 2.29027
3824.43441 2.29049
3822.38598 2.29706
3820.33754 2.30569
3818.28910 2.30499
3816.24066 2.29875
3814.19222 2.29433
3812.14378 2.29446
3810.09535 2.29950
3808.04691 2.30603
3805.99847 2.30901
3803.95003 2.31519
3801.90159 2.32031
3799.85315 2.31039
3797.80472 2.29791
3795.75628 2.29023
3793.70784 2.28907
3791.65940 2.29215
3789.61096 2.29457
3787.56252 2.29420
3785.51409 2.29177
3783.46565 2.28945
3781.41721 2.29198
3779.36877 2.29774
3777.32033 2.29472
3775.27189 2.28665
3773.22346 2.28596
3771.17502 2.28893
3769.12658 2.28729
3767.07814 2.28844
3765.02970 2.29345
3762.98126 2.29698
3760.93283 2.29902
3758.88439 2.30057
3756.83595 2.30617
3754.78751 2.31381
3752.73907 2.31592
3750.69063 2.31304
3748.64219 2.30384
3746.59376 2.29076
3744.54532 2.28846
3742.49688 2.29455
3740.44844 2.29423
3738.40000 2.28988
3736.35156 2.29254
3734.30313 2.31095
3732.25469 2.31334
3730.20625 2.29964
3728.15781 2.29528
3726.10937 2.30366
3724.06093 2.30755
3722.01250 2.29992
3719.96406 2.29414
3717.91562 2.29396
3715.86718 2.29618
3713.81874 2.30061
3711.77030 2.30496
3709.72187 2.30125
3707.67343 2.29878
3705.62499 2.30209
3703.57655 2.30345
3701.52811 2.30525
3699.47967 2.30895
3697.43124 2.30753
3695.38280 2.30863
3693.33436 2.32057
3691.28592 2.33955
3689.23748 2.34198
3687.18904 2.32337
3685.14061 2.31256
3683.09217 2.30853
3681.04373 2.31027
3678.99529 2.31604
3676.94685 2.31596
3674.89841 2.31027
3672.84998 2.30899
3670.80154 2.31177
3668.75310 2.31635
3666.70466 2.31612
3664.65622 2.31351
3662.60778 2.31109
3660.55935 2.30807
3658.51091 2.30491
3656.46247 2.30639
3654.41403 2.31293
3652.36559 2.31772
3650.31715 2.32053
3648.26872 2.31831
3646.22028 2.30638
3644.17184 2.29655
3642.12340 2.29813
3640.07496 2.30872
3638.02652 2.31446
3635.97809 2.31369
3633.92965 2.31388
3631.88121 2.31272
3629.83277 2.30888
3627.78433 2.31102
3625.73589 2.31762
3623.68746 2.32493
3621.63902 2.33305
3619.59058 2.33601
3617.54214 2.33227
3615.49370 2.33274
3613.44526 2.33689
3611.39682 2.33758
3609.34839 2.33657
3607.29995 2.33689
3605.25151 2.33681
3603.20307 2.33674
3601.15463 2.33657
3599.10619 2.33780
3597.05776 2.34234
3595.00932 2.34374
3592.96088 2.34041
3590.91244 2.34073
3588.86400 2.34492
3586.81556 2.34631
3584.76713 2.34501
3582.71869 2.34496
3580.67025 2.34545
3578.62181 2.34427
3576.57337 2.34285
3574.52493 2.34410
3572.47650 2.34350
3570.42806 2.34189
3568.37962 2.34839
3566.33118 2.35969
3564.28274 2.35777
3562.23430 2.34664
3560.18587 2.33484
3558.13743 2.32735
3556.08899 2.32665
3554.04055 2.33168
3551.99211 2.33869
3549.94367 2.34260
3547.89524 2.34202
3545.84680 2.33634
3543.79836 2.33037
3541.74992 2.32829
3539.70148 2.32881
3537.65304 2.33165
3535.60461 2.33168
3533.55617 2.32970
3531.50773 2.33364
3529.45929 2.34247
3527.41085 2.34736
3525.36241 2.34582
3523.31398 2.34372
3521.26554 2.34257
3519.21710 2.34276
3517.16866 2.34352
3515.12022 2.34234
3513.07178 2.34357
3511.02335 2.34850
3508.97491 2.35119
3506.92647 2.35246
3504.87803 2.35494
3502.82959 2.35738
3500.78115 2.35636
3498.73272 2.35084
3496.68428 2.35088
3494.63584 2.35833
3492.58740 2.36060
3490.53896 2.35611
3488.49052 2.35037
3486.44209 2.34704
3484.39365 2.34938
3482.34521 2.35555
3480.29677 2.35653
3478.24833 2.35209
3476.19989 2.35304
3474.15146 2.35746
3472.10302 2.35929
3470.05458 2.36165
3468.00614 2.36373
3465.95770 2.36228
3463.90926 2.35656
3461.86082 2.35213
3459.81239 2.35698
3457.76395 2.36328
3455.71551 2.35892
3453.66707 2.34882
3451.61863 2.34320
3449.57019 2.34442
3447.52176 2.34893
3445.47332 2.35218
3443.42488 2.35349
3441.37644 2.35369
3439.32800 2.35265
3437.27956 2.35281
3435.23113 2.35461
3433.18269 2.35479
3431.13425 2.35497
3429.08581 2.35728
3427.03737 2.35823
3424.98893 2.35542
3422.94050 2.35434
3420.89206 2.35851
3418.84362 2.36333
3416.79518 2.36523
3414.74674 2.36013
3412.69830 2.35383
3410.64987 2.35770
3408.60143 2.36258
3406.55299 2.35811
3404.50455 2.35377
3402.45611 2.35351
3400.40767 2.35218
3398.35924 2.35218
3396.31080 2.35639
3394.26236 2.36119
3392.21392 2.36321
3390.16548 2.36543
3388.11704 2.36911
3386.06861 2.36959
3384.02017 2.36635
3381.97173 2.36492
3379.92329 2.36851
3377.87485 2.37495
3375.82641 2.37930
3373.77798 2.37708
3371.72954 2.37214
3369.68110 2.36956
3367.63266 2.36608
3365.58422 2.36276
3363.53578 2.36549
3361.48735 2.36866
3359.43891 2.36470
3357.39047 2.36028
3355.34203 2.35978
3353.29359 2.35582
3351.24515 2.35116
3349.19672 2.35397
3347.14828 2.35603
3345.09984 2.35168
3343.05140 2.34836
3341.00296 2.35138
3338.95452 2.35634
3336.90609 2.35503
3334.85765 2.34995
3332.80921 2.34753
3330.76077 2.34731
3328.71233 2.34898
3326.66389 2.35526
3324.61545 2.36176
3322.56702 2.36220
3320.51858 2.35858
3318.47014 2.35533
3316.42170 2.35387
3314.37326 2.35489
3312.32482 2.35737
3310.27639 2.35638
3308.22795 2.35243
3306.17951 2.34832
3304.13107 2.34631
3302.08263 2.34991
3300.03419 2.35715
3297.98576 2.36346
3295.93732 2.36455
3293.88888 2.36134
3291.84044 2.36194
3289.79200 2.36667
3287.74356 2.36852
3285.69513 2.36519
3283.64669 2.35689
3281.59825 2.35241
3279.54981 2.35854
3277.50137 2.36465
3275.45293 2.36361
3273.40450 2.36547
3271.35606 2.37412
3269.30762 2.37855
3267.25918 2.37302
3265.21074 2.36379
3263.16230 2.35972
3261.11387 2.36171
3259.06543 2.36487
3257.01699 2.36388
3254.96855 2.36035
3252.92011 2.36260
3250.87167 2.36642
3248.82324 2.36130
3246.77480 2.35118
3244.72636 2.34926
3242.67792 2.35435
3240.62948 2.35479
3238.58104 2.35212
3236.53261 2.35318
3234.48417 2.35362
3232.43573 2.34871
3230.38729 2.34534
3228.33885 2.34422
3226.29041 2.34181
3224.24198 2.34282
3222.19354 2.34574
3220.14510 2.34697
3218.09666 2.34914
3216.04822 2.35132
3213.99978 2.35154
3211.95135 2.35039
3209.90291 2.34762
3207.85447 2.34515
3205.80603 2.34475
3203.75759 2.34454
3201.70915 2.34611
3199.66072 2.35088
3197.61228 2.35483
3195.56384 2.35606
3193.51540 2.35738
3191.46696 2.36010
3189.41852 2.36268
3187.37008 2.36457
3185.32165 2.36463
3183.27321 2.36128
3181.22477 2.35761
3179.17633 2.35767
3177.12789 2.35720
3175.07945 2.35088
3173.03102 2.34631
3170.98258 2.35113
3168.93414 2.35873
3166.88570 2.36131
3164.83726 2.36236
3162.78882 2.36084
3160.74039 2.35336
3158.69195 2.34929
3156.64351 2.35117
3154.59507 2.34909
3152.54663 2.34284
3150.49819 2.34012
3148.44976 2.34349
3146.40132 2.34665
3144.35288 2.34141
3142.30444 2.33585
3140.25600 2.33772
3138.20756 2.33827
3136.15913 2.33690
3134.11069 2.33982
3132.06225 2.34144
3130.01381 2.33666
3127.96537 2.33301
3125.91693 2.33535
3123.86850 2.33878
3121.82006 2.33949
3119.77162 2.33871
3117.72318 2.33892
3115.67474 2.34036
3113.62630 2.33916
3111.57787 2.33022
3109.52943 2.31979
3107.48099 2.31894
3105.43255 2.32444
3103.38411 2.32763
3101.33567 2.32827
3099.28724 2.32949
3097.23880 2.33023
3095.19036 2.32782
3093.14192 2.32574
3091.09348 2.32684
3089.04504 2.32822
3086.99661 2.33081
3084.94817 2.33359
3082.89973 2.33183
3080.85129 2.33055
3078.80285 2.33394
3076.75441 2.33524
3074.70598 2.33277
3072.65754 2.33244
3070.60910 2.33382
3068.56066 2.33357
3066.51222 2.33307
3064.46378 2.33455
3062.41535 2.33670
3060.36691 2.33589
3058.31847 2.33264
3056.27003 2.33047
3054.22159 2.33214
3052.17315 2.33604
3050.12471 2.33568
3048.07628 2.33221
3046.02784 2.33246
3043.97940 2.33458
3041.93096 2.33422
3039.88252 2.33321
3037.83408 2.33286
3035.78565 2.33129
3033.73721 2.33021
3031.68877 2.32997
3029.64033 2.32493
3027.59189 2.31899
3025.54345 2.32119
3023.49502 2.32640
3021.44658 2.32474
3019.39814 2.31788
3017.34970 2.31198
3015.30126 2.30836
3013.25282 2.30852
3011.20439 2.31200
3009.15595 2.31416
3007.10751 2.31667
3005.05907 2.31940
3003.01063 2.31644
3000.96219 2.31237
2998.91376 2.31251
2996.86532 2.31230
2994.81688 2.31279
2992.76844 2.31754
2990.72000 2.32033
2988.67156 2.31829
2986.62313 2.31820
2984.57469 2.32169
2982.52625 2.32191
2980.47781 2.31816
2978.42937 2.31804
2976.38093 2.32331
2974.33250 2.32801
2972.28406 2.32845
2970.23562 2.32774
2968.18718 2.32873
2966.13874 2.33176
2964.09030 2.33540
2962.04187 2.33510
2959.99343 2.33239
2957.94499 2.33373
2955.89655 2.33704
2953.84811 2.33466
2951.79967 2.32788
2949.75124 2.32668
2947.70280 2.33439
2945.65436 2.34221
2943.60592 2.34039
2941.55748 2.33245
2939.50904 2.33095
2937.46061 2.33547
2935.41217 2.33317
2933.36373 2.32792
2931.31529 2.33111
2929.26685 2.33416
2927.21841 2.32825
2925.16998 2.32203
2923.12154 2.32171
2921.07310 2.32258
2919.02466 2.32083
2916.97622 2.31793
2914.92778 2.31587
2912.87934 2.31426
2910.83091 2.31171
2908.78247 2.30830
2906.73403 2.30487
2904.68559 2.30411
2902.63715 2.30629
2900.58871 2.30613
2898.54028 2.30272
2896.49184 2.29963
2894.44340 2.29794
2892.39496 2.29786
2890.34652 2.30019
2888.29808 2.30447
2886.24965 2.30618
2884.20121 2.30488
2882.15277 2.30655
2880.10433 2.31067
2878.05589 2.31248
2876.00745 2.31253
2873.95902 2.31311
2871.91058 2.31456
2869.86214 2.31543
2867.81370 2.31578
2865.76526 2.31948
2863.71682 2.32538
2861.66839 2.32887
2859.61995 2.33155
2857.57151 2.33326
2855.52307 2.32998
2853.47463 2.32687
2851.42619 2.33174
2849.37776 2.33801
2847.32932 2.33602
2845.28088 2.32989
2843.23244 2.32594
2841.18400 2.32425
2839.13556 2.32572
2837.08713 2.32957
2835.03869 2.32908
2832.99025 2.32398
2830.94181 2.32154
2828.89337 2.32124
2826.84493 2.31960
2824.79650 2.31903
2822.74806 2.31917
2820.69962 2.31632
2818.65118 2.31190
2816.60274 2.31029
2814.55430 2.30961
2812.50587 2.30686
2810.45743 2.30579
2808.40899 2.30654
2806.36055 2.30569
2804.31211 2.30346
2802.26367 2.29967
2800.21524 2.29734
2798.16680 2.29911
2796.11836 2.29954
2794.06992 2.29760
2792.02148 2.29746
2789.97304 2.29818
2787.92461 2.29824
2785.87617 2.29900
2783.82773 2.30117
2781.77929 2.30404
2779.73085 2.30735
2777.68241 2.31015
2775.63397 2.31094
2773.58554 2.31195
2771.53710 2.31669
2769.48866 2.32213
2767.44022 2.32209
2765.39178 2.31859
2763.34334 2.31856
2761.29491 2.32122
2759.24647 2.32304
2757.19803 2.32585
2755.14959 2.32962
2753.10115 2.33204
2751.05271 2.33194
2749.00428 2.33011
2746.95584 2.32965
2744.90740 2.33031
2742.85896 2.33025
2740.81052 2.33035
2738.76208 2.33025
2736.71365 2.32992
2734.66521 2.33146
2732.61677 2.33470
2730.56833 2.33682
2728.51989 2.33574
2726.47145 2.33315
2724.42302 2.33087
2722.37458 2.32749
2720.32614 2.32225
2718.27770 2.31745
2716.22926 2.31444
2714.18082 2.31189
2712.13239 2.30987
2710.08395 2.30863
2708.03551 2.30800
2705.98707 2.30834
2703.93863 2.30802
2701.89019 2.30398
2699.84176 2.29841
2697.79332 2.29663
2695.74488 2.29824
2693.69644 2.29928
2691.64800 2.29908
2689.59956 2.30046
2687.55113 2.30294
2685.50269 2.30613
2683.45425 2.31177
2681.40581 2.31604
2679.35737 2.31489
2677.30893 2.31171
2675.26050 2.31174
2673.21206 2.31509
2671.16362 2.31757
2669.11518 2.31725
2667.06674 2.31768
2665.01830 2.31947
2662.96987 2.32007
2660.92143 2.32211
2658.87299 2.32706
2656.82455 2.33083
2654.77611 2.33132
2652.72767 2.33075
2650.67924 2.33005
2648.63080 2.32994
2646.58236 2.33170
2644.53392 2.33545
2642.48548 2.33848
2640.43704 2.33792
2638.38860 2.33754
2636.34017 2.33847
2634.29173 2.33761
2632.24329 2.33843
2630.19485 2.34244
2628.14641 2.34293
2626.09797 2.33752
2624.04954 2.33148
2622.00110 2.32795
2619.95266 2.32557
2617.90422 2.32411
2615.85578 2.32584
2613.80734 2.32754
2611.75891 2.32403
2609.71047 2.31826
2607.66203 2.31456
2605.61359 2.31360
2603.56515 2.31485
2601.51671 2.31591
2599.46828 2.31574
2597.41984 2.31474
2595.37140 2.31182
2593.32296 2.31049
2591.27452 2.31271
2589.22608 2.31297
2587.17765 2.31129
2585.12921 2.31208
2583.08077 2.31340
2581.03233 2.31232
2578.98389 2.31101
2576.93545 2.31131
2574.88702 2.31231
2572.83858 2.31278
2570.79014 2.31338
2568.74170 2.31591
2566.69326 2.31938
2564.64482 2.32161
2562.59639 2.32361
2560.54795 2.32701
2558.49951 2.32835
2556.45107 2.32671
2554.40263 2.32776
2552.35419 2.33341
2550.30576 2.33871
2548.25732 2.33900
2546.20888 2.33706
2544.16044 2.33638
2542.11200 2.33651
2540.06356 2.33660
2538.01513 2.33650
2535.96669 2.33771
2533.91825 2.34040
2531.86981 2.34120
2529.82137 2.33886
2527.77293 2.33705
2525.72450 2.33673
2523.67606 2.33688
2521.62762 2.33724
2519.57918 2.33589
2517.53074 2.33521
2515.48230 2.33652
2513.43387 2.33611
2511.38543 2.33454
2509.33699 2.33122
2507.28855 2.32601
2505.24011 2.32468
2503.19167 2.32593
2501.14324 2.32367
2499.09480 2.31734
2497.04636 2.30974
2494.99792 2.30459
2492.94948 2.30474
2490.90104 2.30847
2488.85260 2.31130
2486.80417 2.31257
2484.75573 2.31300
2482.70729 2.31206
2480.65885 2.30963
2478.61041 2.30768
2476.56197 2.30657
2474.51354 2.30444
2472.46510 2.30435
2470.41666 2.30782
2468.36822 2.31117
2466.31978 2.31254
2464.27134 2.31316
2462.22291 2.31376
2460.17447 2.31236
2458.12603 2.31148
2456.07759 2.31593
2454.02915 2.32233
2451.98071 2.32545
2449.93228 2.32716
2447.88384 2.33002
2445.83540 2.33165
2443.78696 2.33276
2441.73852 2.33543
2439.69008 2.33619
2437.64165 2.33703
2435.59321 2.34143
2433.54477 2.34404
2431.49633 2.34357
2429.44789 2.34336
2427.39945 2.34301
2425.35102 2.34366
2423.30258 2.34544
2421.25414 2.34461
2419.20570 2.34281
2417.15726 2.34408
2415.10882 2.34543
2413.06039 2.34347
2411.01195 2.33990
2408.96351 2.33715
2406.91507 2.33592
2404.86663 2.33314
2402.81819 2.32801
2400.76976 2.32509
2398.72132 2.32444
2396.67288 2.32359
2394.62444 2.32105
2392.57600 2.31585
2390.52756 2.31268
2388.47913 2.31391
2386.43069 2.31605
2384.38225 2.31739
2382.33381 2.31697
2380.28537 2.31756
2378.23693 2.32328
2376.18850 2.32899
2374.14006 2.32832
2372.09162 2.32719
2370.04318 2.32805
2367.99474 2.32211
2365.94630 2.31931
2363.89787 2.33178
2361.84943 2.34844
2359.80099 2.35819
2357.75255 2.36498
2355.70411 2.36992
2353.65567 2.35948
2351.60723 2.34720
2349.55880 2.34885
2347.51036 2.35912
2345.46192 2.36842
2343.41348 2.36857
2341.36504 2.36483
2339.31660 2.36376
2337.26817 2.36239
2335.21973 2.36321
2333.17129 2.37102
2331.12285 2.37991
2329.07441 2.38424
2327.02597 2.38462
2324.97754 2.38640
2322.92910 2.38609
2320.88066 2.37455
2318.83222 2.36236
2316.78378 2.35626
2314.73534 2.35296
2312.68691 2.35553
2310.63847 2.36341
2308.59003 2.36609
2306.54159 2.35895
2304.49315 2.35133
2302.44471 2.34790
2300.39628 2.34231
2298.34784 2.33338
2296.29940 2.32609
2294.25096 2.32327
2292.20252 2.32537
2290.15408 2.32983
2288.10565 2.33141
2286.05721 2.32785
2284.00877 2.32239
2281.96033 2.31684
2279.91189 2.31187
2277.86345 2.30973
2275.81502 2.30977
2273.76658 2.31044
2271.71814 2.31089
2269.66970 2.30997
2267.62126 2.30770
2265.57282 2.30453
2263.52439 2.30202
2261.47595 2.30410
2259.42751 2.31058
2257.37907 2.31632
2255.33063 2.32050
2253.28219 2.32465
2251.23376 2.32663
2249.18532 2.32795
2247.13688 2.33172
2245.08844 2.33270
2243.04000 2.32978
2240.99156 2.32972
2238.94313 2.33251
2236.89469 2.33277
2234.84625 2.33076
2232.79781 2.33176
2230.74937 2.33775
2228.70093 2.34499
2226.65250 2.34701
2224.60406 2.34400
2222.55562 2.34153
2220.50718 2.34059
2218.45874 2.33982
2216.41030 2.33947
2214.36186 2.34041
2212.31343 2.34307
2210.26499 2.34554
2208.21655 2.34454
2206.16811 2.34164
2204.11967 2.33967
2202.07123 2.33715
2200.02280 2.33420
2197.97436 2.33159
2195.92592 2.32761
2193.87748 2.32271
2191.82904 2.32048
2189.78060 2.32164
2187.73217 2.32263
2185.68373 2.32097
2183.63529 2.31727
2181.58685 2.31465
2179.53841 2.31415
2177.48997 2.31239
2175.44154 2.30870
2173.39310 2.30610
2171.34466 2.30671
2169.29622 2.30982
2167.24778 2.31269
2165.19934 2.31408
2163.15091 2.31472
2161.10247 2.31506
2159.05403 2.31528
2157.00559 2.31548
2154.95715 2.31495
2152.90871 2.31496
2150.86028 2.31657
2148.81184 2.31778
2146.76340 2.31790
2144.71496 2.31754
2142.66652 2.31859
2140.61808 2.32303
2138.56965 2.32965
2136.52121 2.33552
2134.47277 2.33753
2132.42433 2.33659
2130.37589 2.33719
2128.32745 2.33902
2126.27902 2.33902
2124.23058 2.33790
2122.18214 2.33622
2120.13370 2.33529
2118.08526 2.33881
2116.03682 2.34450
2113.98839 2.34660
2111.93995 2.34546
2109.89151 2.34491
2107.84307 2.34418
2105.79463 2.34202
2103.74619 2.34125
2101.69776 2.34093
2099.64932 2.33973
2097.60088 2.33889
2095.55244 2.33748
2093.50400 2.33615
2091.45556 2.33542
2089.40713 2.33121
2087.35869 2.32385
2085.31025 2.32057
2083.26181 2.32172
2081.21337 2.32256
2079.16493 2.32192
2077.11649 2.31794
2075.06806 2.31213
2073.01962 2.31048
2070.97118 2.31123
2068.92274 2.30953
2066.87430 2.30831
2064.82586 2.30852
2062.77743 2.30852
2060.72899 2.31023
2058.68055 2.31256
2056.63211 2.31463
2054.58367 2.31660
2052.53523 2.31595
2050.48680 2.31415
2048.43836 2.31513
2046.38992 2.31678
2044.34148 2.31679
2042.29304 2.31666
2040.24460 2.31658
2038.19617 2.31901
2036.14773 2.32328
2034.09929 2.32299
2032.05085 2.31988
2030.00241 2.31914
2027.95397 2.32046
2025.90554 2.32352
2023.85710 2.32787
2021.80866 2.33073
2019.76022 2.33126
2017.71178 2.33064
2015.66334 2.32845
2013.61491 2.32463
2011.56647 2.32243
2009.51803 2.32417
2007.46959 2.32654
2005.42115 2.32673
2003.37271 2.32621
2001.32428 2.32522
1999.27584 2.32313
1997.22740 2.32131
1995.17896 2.32152
1993.13052 2.32372
1991.08208 2.32577
1989.03365 2.32672
1986.98521 2.32646
1984.93677 2.32359
1982.88833 2.31995
1980.83989 2.32017
1978.79145 2.32431
1976.74302 2.32710
1974.69458 2.32606
1972.64614 2.32402
1970.59770 2.32372
1968.54926 2.32591
1966.50082 2.32682
1964.45239 2.32181
1962.40395 2.31486
1960.35551 2.31247
1958.30707 2.31360
1956.25863 2.31255
1954.21019 2.31017
1952.16176 2.31060
1950.11332 2.31202
1948.06488 2.31110
1946.01644 2.30922
1943.96800 2.30925
1941.91956 2.30862
1939.87112 2.30485
1937.82269 2.30191
1935.77425 2.30225
1933.72581 2.30386
1931.67737 2.30393
1929.62893 2.30408
1927.58049 2.30591
1925.53206 2.30677
1923.48362 2.30498
1921.43518 2.30282
1919.38674 2.30447
1917.33830 2.30661
1915.28986 2.30468
1913.24143 2.30534
1911.19299 2.31065
1909.14455 2.31443
1907.09611 2.31678
1905.04767 2.31924
1902.99923 2.31808
1900.95080 2.31450
1898.90236 2.31236
1896.85392 2.31238
1894.80548 2.31540
1892.75704 2.31997
1890.70860 2.32258
1888.66017 2.32307
1886.61173 2.32436
1884.56329 2.32699
1882.51485 2.32784
1880.46641 2.32670
1878.41797 2.32765
1876.36954 2.32937
1874.32110 2.32870
1872.27266 2.32876
1870.22422 2.33263
1868.17578 2.33575
1866.12734 2.33142
1864.07891 2.32403
1862.03047 2.31827
1859.98203 2.31674
1857.93359 2.31749
1855.88515 2.31555
1853.83671 2.31151
1851.78828 2.30846
1849.73984 2.30717
1847.69140 2.30550
1845.64296 2.30084
1843.59452 2.29531
1841.54608 2.29354
1839.49765 2.29323
1837.44921 2.29199
1835.40077 2.29122
1833.35233 2.29307
1831.30389 2.29628
1829.25545 2.29716
1827.20702 2.29541
1825.15858 2.29377
1823.11014 2.29516
1821.06170 2.29698
1819.01326 2.29557
1816.96482 2.29269
1814.91639 2.29158
1812.86795 2.29530
1810.81951 2.30080
1808.77107 2.30374
1806.72263 2.30826
1804.67419 2.31270
1802.62575 2.31187
1800.57732 2.30819
1798.52888 2.30632
1796.48044 2.30614
1794.43200 2.30780
1792.38356 2.31287
1790.33512 2.31835
1788.28669 2.32138
1786.23825 2.32607
1784.18981 2.33385
1782.14137 2.34047
1780.09293 2.34361
1778.04449 2.34441
1775.99606 2.34554
1773.94762 2.34885
1771.89918 2.35207
1769.85074 2.34817
1767.80230 2.34112
1765.75386 2.33827
1763.70543 2.33821
1761.65699 2.33590
1759.60855 2.33282
1757.56011 2.32977
1755.51167 2.32281
1753.46323 2.31698
1751.41480 2.32022
1749.36636 2.32811
1747.31792 2.32614
1745.26948 2.31725
1743.22104 2.30767
1741.17260 2.30157
1739.12417 2.30011
1737.07573 2.30158
1735.02729 2.30771
1732.97885 2.31122
1730.93041 2.30196
1728.88197 2.29017
1726.83354 2.28251
1724.78510 2.28115
1722.73666 2.28520
1720.68822 2.29185
1718.63978 2.30219
1716.59134 2.31265
1714.54291 2.31129
1712.49447 2.30640
1710.44603 2.30496
1708.39759 2.30801
1706.34915 2.31213
1704.30071 2.31408
1702.25228 2.31709
1700.20384 2.32516
1698.15540 2.33075
1696.10696 2.33058
1694.05852 2.33265
1692.01008 2.33603
1689.96165 2.34132
1687.91321 2.34769
1685.86477 2.35370
1683.81633 2.36223
1681.76789 2.36385
1679.71945 2.36333
1677.67102 2.36938
1675.62258 2.37790
1673.57414 2.37751
1671.52570 2.37484
1669.47726 2.37399
1667.42882 2.36947
1665.38038 2.36813
1663.33195 2.36989
1661.28351 2.36560
1659.23507 2.35531
1657.18663 2.34733
1655.13819 2.34403
1653.08975 2.34162
1651.04132 2.33867
1648.99288 2.33813
1646.94444 2.33702
1644.89600 2.32851
1642.84756 2.31921
1640.79912 2.31532
1638.75069 2.31521
1636.70225 2.31146
1634.65381 2.30184
1632.60537 2.29643
1630.55693 2.29417
1628.50849 2.29352
1626.46006 2.29500
1624.41162 2.29712
1622.36318 2.29527
1620.31474 2.29310
1618.26630 2.29730
1616.21786 2.30443
1614.16943 2.30488
1612.12099 2.30277
1610.07255 2.30126
1608.02411 2.30089
1605.97567 2.30327
1603.92723 2.30813
1601.87880 2.31280
1599.83036 2.31710
1597.78192 2.32354
1595.73348 2.33054
1593.68504 2.33533
1591.63660 2.34074
1589.58817 2.34829
1587.53973 2.35444
1585.49129 2.35830
1583.44285 2.36193
1581.39441 2.36584
1579.34597 2.37132
1577.29754 2.38218
1575.24910 2.39066
1573.20066 2.38779
1571.15222 2.38452
1569.10378 2.38083
1567.05534 2.37495
1565.00691 2.37106
1562.95847 2.36822
1560.91003 2.36626
1558.86159 2.36950
1556.81315 2.36678
1554.76471 2.35761
1552.71628 2.35180
1550.66784 2.34910
1548.61940 2.34524
1546.57096 2.34182
1544.52252 2.34363
1542.47408 2.34947
1540.42565 2.34440
1538.37721 2.33394
1536.32877 2.33385
1534.28033 2.33512
1532.23189 2.32935
1530.18345 2.32345
1528.13501 2.32343
1526.08658 2.32466
1524.03814 2.32475
1521.98970 2.33033
1519.94126 2.33873
1517.89282 2.34287
1515.84438 2.34018
1513.79595 2.33215
1511.74751 2.33164
1509.69907 2.34535
1507.65063 2.36967
1505.60219 2.36680
1503.55375 2.35090
1501.50532 2.34469
1499.45688 2.34620
1497.40844 2.35260
1495.36000 2.35561
1493.31156 2.35558
1491.26312 2.35954
1489.21469 2.36744
1487.16625 2.36801
1485.11781 2.36365
1483.06937 2.36328
1481.02093 2.36765
1478.97249 2.37190
1476.92406 2.37445
1474.87562 2.37851
1472.82718 2.38230
1470.77874 2.37737
1468.73030 2.37124
1466.68186 2.36832
1464.63343 2.36237
1462.58499 2.35251
1460.53655 2.34646
1458.48811 2.34358
1456.43967 2.33879
1454.39123 2.33355
1452.34280 2.32932
1450.29436 2.32479
1448.24592 2.31974
1446.19748 2.31328
1444.14904 2.30381
1442.10060 2.29383
1440.05217 2.28792
1438.00373 2.28736
1435.95529 2.28835
1433.90685 2.28594
1431.85841 2.28461
1429.80997 2.28594
1427.76154 2.28599
1425.71310 2.28677
1423.66466 2.28915
1421.61622 2.28834
1419.56778 2.28777
1417.51934 2.29178
1415.47091 2.29132
1413.42247 2.28753
1411.37403 2.28901
1409.32559 2.29572
1407.27715 2.30221
1405.22871 2.30987
1403.18028 2.31771
1401.13184 2.32327
1399.08340 2.32804
1397.03496 2.33046
1394.98652 2.32910
1392.93808 2.32653
1390.88965 2.32552
1388.84121 2.32577
1386.79277 2.32722
1384.74433 2.33071
1382.69589 2.33641
1380.64745 2.34229
1378.59901 2.34392
1376.55058 2.33911
1374.50214 2.33095
1372.45370 2.32498
1370.40526 2.32303
1368.35682 2.32389
1366.30838 2.32539
1364.25995 2.32721
1362.21151 2.32799
1360.16307 2.32436
1358.11463 2.31851
1356.06619 2.31387
1354.01775 2.31164
1351.96932 2.30836
1349.92088 2.30256
1347.87244 2.29738
1345.82400 2.29193
1343.77556 2.28432
1341.72712 2.27746
1339.67869 2.27439
1337.63025 2.27393
1335.58181 2.27444
1333.53337 2.27622
1331.48493 2.27750
1329.43649 2.27758
1327.38806 2.27869
1325.33962 2.27957
1323.29118 2.27740
1321.24274 2.27588
1319.19430 2.27882
1317.14586 2.28268
1315.09743 2.28698
1313.04899 2.29560
1311.00055 2.30540
1308.95211 2.31105
1306.90367 2.31367
1304.85523 2.31663
1302.80680 2.31979
1300.75836 2.32203
1298.70992 2.32483
1296.66148 2.33074
1294.61304 2.33882
1292.56460 2.34531
1290.51617 2.35022
1288.46773 2.35681
1286.41929 2.36354
1284.37085 2.36456
1282.32241 2.36079
1280.27397 2.35553
1278.22554 2.34591
1276.17710 2.33403
1274.12866 2.32963
1272.08022 2.33556
1270.03178 2.34583
1267.98334 2.35467
1265.93491 2.35792
1263.88647 2.35533
1261.83803 2.35197
1259.78959 2.34846
1257.74115 2.34134
1255.69271 2.33320
1253.64428 2.32811
1251.59584 2.32462
1249.54740 2.32179
1247.49896 2.32116
1245.45052 2.32096
1243.40208 2.31902
1241.35364 2.31663
1239.30521 2.31613
1237.25677 2.31816
1235.20833 2.31959
1233.15989 2.32003
1231.11145 2.32268
1229.06301 2.32700
1227.01458 2.33140
1224.96614 2.33442
1222.91770 2.33640
1220.86926 2.34277
1218.82082 2.35453
1216.77238 2.36520
1214.72395 2.37258
1212.67551 2.38038
1210.62707 2.38880
1208.57863 2.39430
1206.53019 2.39695
1204.48175 2.39850
1202.43332 2.40106
1200.38488 2.40579
1198.33644 2.41145
1196.28800 2.41937
1194.23956 2.42671
1192.19112 2.42878
1190.14269 2.42977
1188.09425 2.43438
1186.04581 2.43843
1183.99737 2.43658
1181.94893 2.43266
1179.90049 2.43194
1177.85206 2.43499
1175.80362 2.43801
1173.75518 2.43613
1171.70674 2.43234
1169.65830 2.43105
1167.60986 2.42905
1165.56143 2.42358
1163.51299 2.41787
1161.46455 2.41514
1159.41611 2.41522
1157.36767 2.41591
1155.31923 2.41579
1153.27080 2.41553
1151.22236 2.41381
1149.17392 2.40943
1147.12548 2.40566
1145.07704 2.40246
1143.02860 2.39614
1140.98017 2.39173
1138.93173 2.39585
1136.88329 2.40403
1134.83485 2.41016
1132.78641 2.41467
1130.73797 2.42051
1128.68954 2.42899
1126.64110 2.43420
1124.59266 2.43271
1122.54422 2.43415
1120.49578 2.44049
1118.44734 2.44232
1116.39891 2.43895
1114.35047 2.43437
1112.30203 2.43231
1110.25359 2.43558
1108.20515 2.44348
1106.15671 2.45278
1104.10827 2.45648
1102.05984 2.45267
1100.01140 2.44775
1097.96296 2.44829
1095.91452 2.45435
1093.86608 2.45648
1091.81764 2.44983
1089.76921 2.44504
1087.72077 2.44611
1085.67233 2.44488
1083.62389 2.44092
1081.57545 2.43771
1079.52701 2.43386
1077.47858 2.42915
1075.43014 2.42696
1073.38170 2.42437
1071.33326 2.41558
1069.28482 2.40334
1067.23638 2.39404
1065.18795 2.39065
1063.13951 2.38693
1061.09107 2.38045
1059.04263 2.38004
1056.99419 2.38443
1054.94575 2.38278
1052.89732 2.37638
1050.84888 2.37643
1048.80044 2.38521
1046.75200 2.39248
1044.70356 2.39347
1042.65512 2.39441
1040.60669 2.39658
1038.55825 2.39718
1036.50981 2.39709
1034.46137 2.39741
1032.41293 2.39800
1030.36449 2.40213
1028.31606 2.41127
1026.26762 2.41894
1024.21918 2.42237
1022.17074 2.42507
1020.12230 2.42906
1018.07386 2.43579
1016.02543 2.44547
1013.97699 2.45402
1011.92855 2.45781
1009.88011 2.45992
1007.83167 2.46252
1005.78323 2.46249
1003.73480 2.45997
1001.68636 2.46012
999.63792 2.46532
997.58948 2.47082
995.54104 2.46866
993.49260 2.46020
991.44417 2.45640
989.39573 2.46031
987.34729 2.46949
985.29885 2.48204
983.25041 2.48879
981.20197 2.48515
979.15354 2.47836
977.10510 2.47506
975.05666 2.47842
973.00822 2.48340
970.95978 2.48221
968.91134 2.47855
966.86290 2.48098
964.81447 2.48970
962.76603 2.49578
960.71759 2.49580
958.66915 2.49486
956.62071 2.49489
954.57227 2.49323
952.52384 2.48843
950.47540 2.48305
948.42696 2.48153
946.37852 2.48510
944.33008 2.48851
942.28164 2.49143
940.23321 2.49523
938.18477 2.49517
936.13633 2.49276
934.08789 2.49163
932.03945 2.49150
929.99101 2.49282
927.94258 2.49804
925.89414 2.50598
923.84570 2.51196
921.79726 2.51752
919.74882 2.52064
917.70038 2.51652
915.65195 2.51162
913.60351 2.50975
911.55507 2.51085
909.50663 2.51887
907.45819 2.52885
905.40975 2.53313
903.36132 2.53577
901.31288 2.53775
899.26444 2.53433
897.21600 2.52930
895.16756 2.52965
893.11912 2.53963
891.07069 2.55042
889.02225 2.54948
886.97381 2.54876
884.92537 2.55303
882.87693 2.54867
880.82849 2.53749
878.78006 2.52890
876.73162 2.53012
874.68318 2.53936
872.63474 2.54082
870.58630 2.53127
868.53786 2.52493
866.48943 2.52943
864.44099 2.53803
862.39255 2.54139
860.34411 2.54019
858.29567 2.54066
856.24723 2.54567
854.19880 2.55534
852.15036 2.56315
850.10192 2.56326
848.05348 2.56880
846.00504 2.58607
843.95660 2.59950
841.90817 2.60552
839.85973 2.61252
837.81129 2.61851
835.76285 2.62437
833.71441 2.63481
831.66597 2.64690
829.61753 2.65340
827.56910 2.64457
825.52066 2.62342
823.47222 2.60449
821.42378 2.60152
819.37534 2.61765
817.32690 2.63529
815.27847 2.64021
813.23003 2.63804
811.18159 2.63365
809.13315 2.63909
807.08471 2.66687
805.03627 2.68706
802.98784 2.68356
800.93940 2.68914
798.89096 2.70072
796.84252 2.69309
794.79408 2.67611
792.74564 2.67745
790.69721 2.70734
788.64877 2.74794
786.60033 2.77666
784.55189 2.78700
782.50345 2.77579
780.45501 2.76853
778.40658 2.79240
776.35814 2.81661
774.30970 2.80612
772.26126 2.79241
770.21282 2.80631
768.16438 2.81973
766.11595 2.81434
764.06751 2.82111
762.01907 2.85592
759.97063 2.89597
757.92219 2.91970
755.87375 2.93561
753.82532 2.93397
751.77688 2.93050
749.72844 2.95102
747.68000 2.94766
745.63156 2.93168
743.58312 2.95852
741.53469 2.98854
739.48625 3.02818
737.43781 3.11074
735.38937 3.15888
733.34093 3.17449
731.29249 3.19501
729.24406 3.17647
727.19562 3.12832
725.14718 3.13821
723.09874 3.26784
721.05030 3.39425
719.00186 3.37290
716.95343 3.33231
714.90499 3.24838
712.85655 3.16479
710.80811 3.23310
708.75967 3.47935
706.71123 3.63473
704.66280 3.48534
702.61436 3.34589
700.56592 3.29627
698.51748 3.30826
696.46904 3.32382
694.42060 3.31869
692.37216 3.30133
690.32373 3.20247
688.27529 3.11295
686.22685 3.18482
684.17841 3.39838
682.12997 3.46780
680.08153 3.26676
678.03310 3.10349
675.98466 3.07185
673.93622 3.06611
671.88778 3.05150
669.83934 3.08702
667.79090 2.91374
665.74247 2.67906
663.69403 2.56706
661.64559 2.48802
659.59715 2.39355
657.54871 2.28564
655.50027 2.20630
653.45184 2.15958
651.40340 2.11464
649.35496 2.06161
647.30652 2.02165
645.25808 2.00370
643.20964 1.98801
641.16121 1.96719
639.11277 1.94670
637.06433 1.91651
635.01589 1.87899
632.96745 1.85911
630.91901 1.85622
628.87058 1.84342
626.82214 1.82234
624.77370 1.81155
622.72526 1.81481
620.67682 1.83278
618.62838 1.84388
616.57995 1.81870
614.53151 1.79983
612.48307 1.81929
610.43463 1.82197
608.38619 1.79413
606.33775 1.78091
604.28932 1.78539
602.24088 1.77410
600.19244 1.72248
598.14400 1.68024
