3996.50324 1.76919
3994.45480 1.76862
3992.40636 1.76839
3990.35792 1.76836
3988.30948 1.76635
3986.26104 1.76451
3984.21261 1.76481
3982.16417 1.76438
3980.11573 1.76188
3978.06729 1.76073
3976.01885 1.76191
3973.97041 1.76288
3971.92198 1.76215
3969.87354 1.76007
3967.82510 1.75929
3965.77666 1.76097
3963.72822 1.76268
3961.67978 1.76232
3959.63135 1.76100
3957.58291 1.76101
3955.53447 1.76140
3953.48603 1.76045
3951.43759 1.76015
3949.38915 1.76248
3947.34072 1.76355
3945.29228 1.76089
3943.24384 1.75755
3941.19540 1.75503
3939.14696 1.75395
3937.09852 1.75546
3935.05009 1.75859
3933.00165 1.76045
3930.95321 1.75938
3928.90477 1.75792
3926.85633 1.75900
3924.80789 1.76036
3922.75946 1.75866
3920.71102 1.75761
3918.66258 1.75928
3916.61414 1.75880
3914.56570 1.75461
3912.51726 1.75061
3910.46883 1.74825
3908.42039 1.74814
3906.37195 1.75168
3904.32351 1.75783
3902.27507 1.76087
3900.22663 1.76013
3898.17820 1.75844
3896.12976 1.75651
3894.08132 1.75632
3892.03288 1.75782
3889.98444 1.75651
3887.93600 1.75503
3885.88756 1.75791
3883.83913 1.76112
3881.79069 1.76030
3879.74225 1.75729
3877.69381 1.75578
3875.64537 1.75656
3873.59693 1.75857
3871.54850 1.76160
3869.50006 1.76213
3867.45162 1.76049
3865.40318 1.76290
3863.35474 1.76515
3861.30630 1.76197
3859.25787 1.75940
3857.20943 1.76037
3855.16099 1.76398
3853.11255 1.76683
3851.06411 1.76321
3849.01567 1.75749
3846.96724 1.75385
3844.91880 1.75409
3842.87036 1.75808
3840.82192 1.76522
3838.77348 1.77004
3836.72504 1.76572
3834.67661 1.76080
3832.62817 1.75902
3830.57973 1.75612
3828.53129 1.75328
3826.48285 1.75334
3824.43441 1.75560
3822.38598 1.76066
3820.33754 1.76541
3818.28910 1.76402
3816.24066 1.75899
3814.19222 1.75172
3812.14378 1.74821
3810.09535 1.75006
3808.04691 1.75465
3805.99847 1.75750
3803.95003 1.76015
3801.90159 1.76670
3799.85315 1.76942
3797.80472 1.76627
3795.75628 1.76141
3793.70784 1.75604
3791.65940 1.75290
3789.61096 1.75386
3787.56252 1.75806
3785.51409 1.76111
3783.46565 1.76061
3781.41721 1.76016
3779.36877 1.76070
3777.32033 1.75992
3775.27189 1.75877
3773.22346 1.76008
3771.17502 1.76564
3769.12658 1.77038
3767.07814 1.76993
3765.02970 1.76781
3762.98126 1.76583
3760.93283 1.76621
3758.88439 1.76892
3756.83595 1.77113
3754.78751 1.77415
3752.73907 1.78087
3750.69063 1.78837
3748.64219 1.78717
3746.59376 1.78368
3744.54532 1.78141
3742.49688 1.77834
3740.44844 1.77634
3738.40000 1.77846
3736.35156 1.78451
3734.30313 1.78694
3732.25469 1.78221
3730.20625 1.77707
3728.15781 1.77582
3726.10937 1.77783
3724.06093 1.77968
3722.01250 1.77815
3719.96406 1.77250
3717.91562 1.76722
3715.86718 1.76554
3713.81874 1.76772
3711.77030 1.77364
3709.72187 1.77615
3707.67343 1.77306
3705.62499 1.77013
3703.57655 1.76937
3701.52811 1.77036
3699.47967 1.77100
3697.43124 1.77135
3695.38280 1.77342
3693.33436 1.77771
3691.28592 1.78317
3689.23748 1.78443
3687.18904 1.77768
3685.14061 1.77255
3683.09217 1.77186
3681.04373 1.77359
3678.99529 1.77714
3676.94685 1.78449
3674.89841 1.78975
3672.84998 1.78717
3670.80154 1.78840
3668.75310 1.78937
3666.70466 1.78362
3664.65622 1.77937
3662.60778 1.77837
3660.55935 1.77927
3658.51091 1.78428
3656.46247 1.79164
3654.41403 1.79346
3652.36559 1.79531
3650.31715 1.80803
3648.26872 1.81998
3646.22028 1.81317
3644.17184 1.80663
3642.12340 1.80445
3640.07496 1.80458
3638.02652 1.80712
3635.97809 1.81130
3633.92965 1.81574
3631.88121 1.82114
3629.83277 1.82903
3627.78433 1.83347
3625.73589 1.83240
3623.68746 1.83365
3621.63902 1.83704
3619.59058 1.84182
3617.54214 1.84683
3615.49370 1.84978
3613.44526 1.85226
3611.39682 1.85525
3609.34839 1.85964
3607.29995 1.86206
3605.25151 1.85946
3603.20307 1.85839
3601.15463 1.86194
3599.10619 1.86636
3597.05776 1.86916
3595.00932 1.87026
3592.96088 1.86988
3590.91244 1.87190
3588.86400 1.87878
3586.81556 1.88337
3584.76713 1.88164
3582.71869 1.88083
3580.67025 1.88081
3578.62181 1.88184
3576.57337 1.88578
3574.52493 1.89016
3572.47650 1.89250
3570.42806 1.89565
3568.37962 1.90280
3566.33118 1.90702
3564.28274 1.90358
3562.23430 1.90042
3560.18587 1.89950
3558.13743 1.90200
3556.08899 1.90800
3554.04055 1.91451
3551.99211 1.91627
3549.94367 1.91422
3547.89524 1.91530
3545.84680 1.91882
3543.79836 1.92060
3541.74992 1.92140
3539.70148 1.92374
3537.65304 1.92675
3535.60461 1.92785
3533.55617 1.92947
3531.50773 1.93467
3529.45929 1.94089
3527.41085 1.94480
3525.36241 1.94645
3523.31398 1.94530
3521.26554 1.94423
3519.21710 1.94506
3517.16866 1.94431
3515.12022 1.94343
3513.07178 1.94578
3511.02335 1.94701
3508.97491 1.94265
3506.92647 1.94039
3504.87803 1.94529
3502.82959 1.94898
3500.78115 1.94648
3498.73272 1.94276
3496.68428 1.94114
3494.63584 1.94211
3492.58740 1.94369
3490.53896 1.94503
3488.49052 1.94649
3486.44209 1.94713
3484.39365 1.94618
3482.34521 1.94452
3480.29677 1.94327
3478.24833 1.94238
3476.19989 1.94332
3474.15146 1.94589
3472.10302 1.94650
3470.05458 1.94490
3468.00614 1.94495
3465.95770 1.94758
3463.90926 1.94892
3461.86082 1.94839
3459.81239 1.94938
3457.76395 1.95100
3455.71551 1.94982
3453.66707 1.94761
3451.61863 1.94835
3449.57019 1.95157
3447.52176 1.95396
3445.47332 1.95380
3443.42488 1.95170
3441.37644 1.94899
3439.32800 1.94752
3437.27956 1.94732
3435.23113 1.94815
3433.18269 1.95098
3431.13425 1.95371
3429.08581 1.95469
3427.03737 1.95506
3424.98893 1.95385
3422.94050 1.95320
3420.89206 1.95671
3418.84362 1.95946
3416.79518 1.95780
3414.74674 1.95516
3412.69830 1.95368
3410.64987 1.95314
3408.60143 1.95169
3406.55299 1.94919
3404.50455 1.94857
3402.45611 1.95008
3400.40767 1.95121
3398.35924 1.95167
3396.31080 1.95203
3394.26236 1.95222
3392.21392 1.95173
3390.16548 1.95102
3388.11704 1.95270
3386.06861 1.95542
3384.02017 1.95498
3381.97173 1.95199
3379.92329 1.94960
3377.87485 1.94882
3375.82641 1.94960
3373.77798 1.95033
3371.72954 1.94857
3369.68110 1.94632
3367.63266 1.94665
3365.58422 1.94773
3363.53578 1.94686
3361.48735 1.94482
3359.43891 1.94347
3357.39047 1.94276
3355.34203 1.94042
3353.29359 1.93818
3351.24515 1.93888
3349.19672 1.93896
3347.14828 1.93661
3345.09984 1.93451
3343.05140 1.93274
3341.00296 1.92948
3338.95452 1.92689
3336.90609 1.92687
3334.85765 1.92741
3332.80921 1.92822
3330.76077 1.92844
3328.71233 1.92578
3326.66389 1.92185
3324.61545 1.92016
3322.56702 1.92086
3320.51858 1.92092
3318.47014 1.91882
3316.42170 1.91732
3314.37326 1.91816
3312.32482 1.91920
3310.27639 1.91892
3308.22795 1.91757
3306.17951 1.91673
3304.13107 1.91663
3302.08263 1.91597
3300.03419 1.91466
3297.98576 1.91224
3295.93732 1.90920
3293.88888 1.90814
3291.84044 1.90844
3289.79200 1.90712
3287.74356 1.90516
3285.69513 1.90605
3283.64669 1.90896
3281.59825 1.90976
3279.54981 1.90692
3277.50137 1.90276
3275.45293 1.90128
3273.40450 1.90130
3271.35606 1.89904
3269.30762 1.89668
3267.25918 1.89681
3265.21074 1.89642
3263.16230 1.89356
3261.11387 1.89239
3259.06543 1.89304
3257.01699 1.89142
3254.96855 1.88980
3252.92011 1.89075
3250.87167 1.89001
3248.82324 1.88577
3246.77480 1.88181
3244.72636 1.88063
3242.67792 1.88187
3240.62948 1.88301
3238.58104 1.88320
3236.53261 1.88468
3234.48417 1.88746
3232.43573 1.88921
3230.38729 1.88954
3228.33885 1.88938
3226.29041 1.88805
3224.24198 1.88504
3222.19354 1.88335
3220.14510 1.88416
3218.09666 1.88457
3216.04822 1.88516
3213.99978 1.88796
3211.95135 1.89123
3209.90291 1.89332
3207.85447 1.89442
3205.80603 1.89526
3203.75759 1.89683
3201.70915 1.89804
3199.66072 1.89826
3197.61228 1.89899
3195.56384 1.89902
3193.51540 1.89777
3191.46696 1.89803
3189.41852 1.90060
3187.37008 1.90337
3185.32165 1.90431
3183.27321 1.90313
3181.22477 1.90185
3179.17633 1.90207
3177.12789 1.90284
3175.07945 1.90343
3173.03102 1.90413
3170.98258 1.90465
3168.93414 1.90367
3166.88570 1.90167
3164.83726 1.90047
3162.78882 1.90008
3160.74039 1.89916
3158.69195 1.89656
3156.64351 1.89475
3154.59507 1.89600
3152.54663 1.89738
3150.49819 1.89659
3148.44976 1.89430
3146.40132 1.89139
3144.35288 1.88849
3142.30444 1.88531
3140.25600 1.88372
3138.20756 1.88510
3136.15913 1.88576
3134.11069 1.88455
3132.06225 1.88370
3130.01381 1.88236
3127.96537 1.87947
3125.91693 1.87639
3123.86850 1.87379
3121.82006 1.87126
3119.77162 1.86950
3117.72318 1.86867
3115.67474 1.86771
3113.62630 1.86639
3111.57787 1.86472
3109.52943 1.86204
3107.48099 1.85880
3105.43255 1.85655
3103.38411 1.85547
3101.33567 1.85497
3099.28724 1.85454
3097.23880 1.85276
3095.19036 1.84985
3093.14192 1.84826
3091.09348 1.84844
3089.04504 1.84795
3086.99661 1.84540
3084.94817 1.84279
3082.89973 1.84144
3080.85129 1.84044
3078.80285 1.83937
3076.75441 1.83832
3074.70598 1.83764
3072.65754 1.83763
3070.60910 1.83735
3068.56066 1.83593
3066.51222 1.83481
3064.46378 1.83484
3062.41535 1.83334
3060.36691 1.83057
3058.31847 1.83007
3056.27003 1.83146
3054.22159 1.83189
3052.17315 1.83092
3050.12471 1.82957
3048.07628 1.82776
3046.02784 1.82561
3043.97940 1.82379
3041.93096 1.82188
3039.88252 1.81941
3037.83408 1.81696
3035.78565 1.81526
3033.73721 1.81493
3031.68877 1.81515
3029.64033 1.81343
3027.59189 1.80986
3025.54345 1.80649
3023.49502 1.80388
3021.44658 1.80184
3019.39814 1.80004
3017.34970 1.79830
3015.30126 1.79717
3013.25282 1.79617
3011.20439 1.79369
3009.15595 1.79090
3007.10751 1.78989
3005.05907 1.78992
3003.01063 1.78921
3000.96219 1.78762
2998.91376 1.78639
2996.86532 1.78569
2994.81688 1.78461
2992.76844 1.78275
2990.72000 1.78098
2988.67156 1.77983
2986.62313 1.77824
2984.57469 1.77593
2982.52625 1.77389
2980.47781 1.77295
2978.42937 1.77267
2976.38093 1.77195
2974.33250 1.77061
2972.28406 1.76933
2970.23562 1.76895
2968.18718 1.76920
2966.13874 1.76932
2964.09030 1.76873
2962.04187 1.76668
2959.99343 1.76395
2957.94499 1.76178
2955.89655 1.76073
2953.84811 1.76091
2951.79967 1.76026
2949.75124 1.75850
2947.70280 1.75800
2945.65436 1.75874
2943.60592 1.75876
2941.55748 1.75790
2939.50904 1.75780
2937.46061 1.75849
2935.41217 1.75916
2933.36373 1.76059
2931.31529 1.76241
2929.26685 1.76346
2927.21841 1.76436
2925.16998 1.76593
2923.12154 1.76772
2921.07310 1.76898
2919.02466 1.76985
2916.97622 1.77082
2914.92778 1.77154
2912.87934 1.77185
2910.83091 1.77256
2908.78247 1.77400
2906.73403 1.77519
2904.68559 1.77584
2902.63715 1.77659
2900.58871 1.77690
2898.54028 1.77605
2896.49184 1.77535
2894.44340 1.77594
2892.39496 1.77615
2890.34652 1.77488
2888.29808 1.77358
2886.24965 1.77311
2884.20121 1.77313
2882.15277 1.77328
2880.10433 1.77327
2878.05589 1.77250
2876.00745 1.77036
2873.95902 1.76804
2871.91058 1.76723
2869.86214 1.76733
2867.81370 1.76727
2865.76526 1.76664
2863.71682 1.76557
2861.66839 1.76491
2859.61995 1.76466
2857.57151 1.76380
2855.52307 1.76200
2853.47463 1.75978
2851.42619 1.75799
2849.37776 1.75696
2847.32932 1.75526
2845.28088 1.75228
2843.23244 1.74948
2841.18400 1.74697
2839.13556 1.74443
2837.08713 1.74287
2835.03869 1.74201
2832.99025 1.74062
2830.94181 1.73844
2828.89337 1.73584
2826.84493 1.73326
2824.79650 1.73151
2822.74806 1.73072
2820.69962 1.72940
2818.65118 1.72738
2816.60274 1.72513
2814.55430 1.72210
2812.50587 1.71943
2810.45743 1.71810
2808.40899 1.71705
2806.36055 1.71595
2804.31211 1.71530
2802.26367 1.71543
2800.21524 1.71581
2798.16680 1.71503
2796.11836 1.71370
2794.06992 1.71334
2792.02148 1.71334
2789.97304 1.71350
2787.92461 1.71394
2785.87617 1.71396
2783.82773 1.71350
2781.77929 1.71304
2779.73085 1.71276
2777.68241 1.71260
2775.63397 1.71250
2773.58554 1.71219
2771.53710 1.71128
2769.48866 1.71001
2767.44022 1.70914
2765.39178 1.70843
2763.34334 1.70736
2761.29491 1.70599
2759.24647 1.70452
2757.19803 1.70304
2755.14959 1.70149
2753.10115 1.69976
2751.05271 1.69754
2749.00428 1.69528
2746.95584 1.69397
2744.90740 1.69347
2742.85896 1.69283
2740.81052 1.69189
2738.76208 1.69080
2736.71365 1.68913
2734.66521 1.68740
2732.61677 1.68597
2730.56833 1.68472
2728.51989 1.68387
2726.47145 1.68318
2724.42302 1.68238
2722.37458 1.68162
2720.32614 1.68178
2718.27770 1.68247
2716.22926 1.68244
2714.18082 1.68225
2712.13239 1.68230
2710.08395 1.68223
2708.03551 1.68234
2705.98707 1.68368
2703.93863 1.68582
2701.89019 1.68653
2699.84176 1.68634
2697.79332 1.68727
2695.74488 1.68868
2693.69644 1.68935
2691.64800 1.68973
2689.59956 1.69060
2687.55113 1.69146
2685.50269 1.69165
2683.45425 1.69164
2681.40581 1.69200
2679.35737 1.69253
2677.30893 1.69270
2675.26050 1.69261
2673.21206 1.69263
2671.16362 1.69272
2669.11518 1.69269
2667.06674 1.69238
2665.01830 1.69150
2662.96987 1.69026
2660.92143 1.68998
2658.87299 1.69019
2656.82455 1.68912
2654.77611 1.68783
2652.72767 1.68775
2650.67924 1.68755
2648.63080 1.68701
2646.58236 1.68710
2644.53392 1.68712
2642.48548 1.68631
2640.43704 1.68477
2638.38860 1.68319
2636.34017 1.68234
2634.29173 1.68206
2632.24329 1.68170
2630.19485 1.68088
2628.14641 1.67977
2626.09797 1.67890
2624.04954 1.67881
2622.00110 1.67895
2619.95266 1.67803
2617.90422 1.67618
2615.85578 1.67441
2613.80734 1.67314
2611.75891 1.67196
2609.71047 1.67061
2607.66203 1.66965
2605.61359 1.66919
2603.56515 1.66855
2601.51671 1.66748
2599.46828 1.66670
2597.41984 1.66678
2595.37140 1.66739
2593.32296 1.66760
2591.27452 1.66728
2589.22608 1.66710
2587.17765 1.66690
2585.12921 1.66643
2583.08077 1.66552
2581.03233 1.66420
2578.98389 1.66348
2576.93545 1.66395
2574.88702 1.66481
2572.83858 1.66543
2570.79014 1.66563
2568.74170 1.66498
2566.69326 1.66452
2564.64482 1.66496
2562.59639 1.66495
2560.54795 1.66428
2558.49951 1.66305
2556.45107 1.66068
2554.40263 1.65820
2552.35419 1.65634
2550.30576 1.65422
2548.25732 1.65200
2546.20888 1.65070
2544.16044 1.64991
2542.11200 1.64852
2540.06356 1.64613
2538.01513 1.64408
2535.96669 1.64317
2533.91825 1.64262
2531.86981 1.64215
2529.82137 1.64210
2527.77293 1.64244
2525.72450 1.64271
2523.67606 1.64289
2521.62762 1.64325
2519.57918 1.64374
2517.53074 1.64414
2515.48230 1.64417
2513.43387 1.64374
2511.38543 1.64310
2509.33699 1.64300
2507.28855 1.64377
2505.24011 1.64462
2503.19167 1.64507
2501.14324 1.64541
2499.09480 1.64525
2497.04636 1.64462
2494.99792 1.64488
2492.94948 1.64579
2490.90104 1.64590
2488.85260 1.64510
2486.80417 1.64434
2484.75573 1.64424
2482.70729 1.64483
2480.65885 1.64539
2478.61041 1.64531
2476.56197 1.64553
2474.51354 1.64655
2472.46510 1.64734
2470.41666 1.64770
2468.36822 1.64818
2466.31978 1.64857
2464.27134 1.64886
2462.22291 1.64965
2460.17447 1.65070
2458.12603 1.65156
2456.07759 1.65249
2454.02915 1.65350
2451.98071 1.65434
2449.93228 1.65509
2447.88384 1.65547
2445.83540 1.65522
2443.78696 1.65532
2441.73852 1.65586
2439.69008 1.65576
2437.64165 1.65550
2435.59321 1.65527
2433.54477 1.65402
2431.49633 1.65194
2429.44789 1.64989
2427.39945 1.64823
2425.35102 1.64704
2423.30258 1.64577
2421.25414 1.64412
2419.20570 1.64258
2417.15726 1.64138
2415.10882 1.64023
2413.06039 1.63877
2411.01195 1.63727
2408.96351 1.63662
2406.91507 1.63691
2404.86663 1.63713
2402.81819 1.63703
2400.76976 1.63694
2398.72132 1.63628
2396.67288 1.63470
2394.62444 1.63268
2392.57600 1.63067
2390.52756 1.62887
2388.47913 1.62772
2386.43069 1.62751
2384.38225 1.62759
2382.33381 1.62815
2380.28537 1.62988
2378.23693 1.63237
2376.18850 1.63494
2374.14006 1.63761
2372.09162 1.64176
2370.04318 1.64750
2367.99474 1.65187
2365.94630 1.65432
2363.89787 1.65633
2361.84943 1.65711
2359.80099 1.65682
2357.75255 1.65508
2355.70411 1.64956
2353.65567 1.64062
2351.60723 1.63095
2349.55880 1.62462
2347.51036 1.62416
2345.46192 1.62860
2343.41348 1.63308
2341.36504 1.63432
2339.31660 1.63354
2337.26817 1.63158
2335.21973 1.62908
2333.17129 1.62898
2331.12285 1.63075
2329.07441 1.62916
2327.02597 1.62471
2324.97754 1.62104
2322.92910 1.61806
2320.88066 1.61399
2318.83222 1.60953
2316.78378 1.60692
2314.73534 1.60604
2312.68691 1.60520
2310.63847 1.60367
2308.59003 1.60181
2306.54159 1.59988
2304.49315 1.59785
2302.44471 1.59628
2300.39628 1.59575
2298.34784 1.59559
2296.29940 1.59488
2294.25096 1.59388
2292.20252 1.59330
2290.15408 1.59313
2288.10565 1.59327
2286.05721 1.59358
2284.00877 1.59337
2281.96033 1.59304
2279.91189 1.59371
2277.86345 1.59524
2275.81502 1.59677
2273.76658 1.59771
2271.71814 1.59765
2269.66970 1.59729
2267.62126 1.59786
2265.57282 1.59900
2263.52439 1.60013
2261.47595 1.60157
2259.42751 1.60314
2257.37907 1.60437
2255.33063 1.60543
2253.28219 1.60694
2251.23376 1.60903
2249.18532 1.61066
2247.13688 1.61162
2245.08844 1.61284
2243.04000 1.61393
2240.99156 1.61470
2238.94313 1.61615
2236.89469 1.61830
2234.84625 1.61998
2232.79781 1.62064
2230.74937 1.62093
2228.70093 1.62093
2226.65250 1.62084
2224.60406 1.62180
2222.55562 1.62368
2220.50718 1.62483
2218.45874 1.62510
2216.41030 1.62547
2214.36186 1.62628
2212.31343 1.62774
2210.26499 1.62929
2208.21655 1.63022
2206.16811 1.63038
2204.11967 1.62981
2202.07123 1.62911
2200.02280 1.62871
2197.97436 1.62874
2195.92592 1.62906
2193.87748 1.62895
2191.82904 1.62817
2189.78060 1.62725
2187.73217 1.62649
2185.68373 1.62566
2183.63529 1.62433
2181.58685 1.62232
2179.53841 1.62002
2177.48997 1.61788
2175.44154 1.61582
2173.39310 1.61354
2171.34466 1.61154
2169.29622 1.60999
2167.24778 1.60814
2165.19934 1.60581
2163.15091 1.60338
2161.10247 1.60119
2159.05403 1.59918
2157.00559 1.59700
2154.95715 1.59469
2152.90871 1.59268
2150.86028 1.59093
2148.81184 1.58837
2146.76340 1.58491
2144.71496 1.58192
2142.66652 1.57991
2140.61808 1.57793
2138.56965 1.57506
2136.52121 1.57173
2134.47277 1.56868
2132.42433 1.56622
2130.37589 1.56407
2128.32745 1.56131
2126.27902 1.55771
2124.23058 1.55419
2122.18214 1.55168
2120.13370 1.55004
2118.08526 1.54849
2116.03682 1.54669
2113.98839 1.54467
2111.93995 1.54245
2109.89151 1.54033
2107.84307 1.53835
2105.79463 1.53598
2103.74619 1.53314
2101.69776 1.53047
2099.64932 1.52858
2097.60088 1.52741
2095.55244 1.52635
2093.50400 1.52534
2091.45556 1.52472
2089.40713 1.52431
2087.35869 1.52436
2085.31025 1.52488
2083.26181 1.52496
2081.21337 1.52478
2079.16493 1.52512
2077.11649 1.52621
2075.06806 1.52751
2073.01962 1.52827
2070.97118 1.52873
2068.92274 1.52985
2066.87430 1.53188
2064.82586 1.53376
2062.77743 1.53464
2060.72899 1.53524
2058.68055 1.53650
2056.63211 1.53846
2054.58367 1.54044
2052.53523 1.54227
2050.48680 1.54422
2048.43836 1.54614
2046.38992 1.54772
2044.34148 1.54876
2042.29304 1.54907
2040.24460 1.54837
2038.19617 1.54690
2036.14773 1.54536
2034.09929 1.54404
2032.05085 1.54319
2030.00241 1.54268
2027.95397 1.54203
2025.90554 1.54148
2023.85710 1.54101
2021.80866 1.54041
2019.76022 1.54058
2017.71178 1.54194
2015.66334 1.54337
2013.61491 1.54444
2011.56647 1.54612
2009.51803 1.54857
2007.46959 1.55101
2005.42115 1.55299
2003.37271 1.55479
2001.32428 1.55741
1999.27584 1.56046
1997.22740 1.56233
1995.17896 1.56369
1993.13052 1.56546
1991.08208 1.56567
1989.03365 1.56377
1986.98521 1.56131
1984.93677 1.55917
1982.88833 1.55792
1980.83989 1.55766
1978.79145 1.55795
1976.74302 1.55842
1974.69458 1.55939
1972.64614 1.56128
1970.59770 1.56411
1968.54926 1.56766
1966.50082 1.57059
1964.45239 1.57162
1962.40395 1.57197
1960.35551 1.57266
1958.30707 1.57387
1956.25863 1.57583
1954.21019 1.57765
1952.16176 1.57858
1950.11332 1.57919
1948.06488 1.58024
1946.01644 1.58190
1943.96800 1.58417
1941.91956 1.58548
1939.87112 1.58445
1937.82269 1.58322
1935.77425 1.58286
1933.72581 1.58259
1931.67737 1.58238
1929.62893 1.58292
1927.58049 1.58386
1925.53206 1.58475
1923.48362 1.58552
1921.43518 1.58539
1919.38674 1.58444
1917.33830 1.58214
1915.28986 1.57870
1913.24143 1.57657
1911.19299 1.57571
1909.14455 1.57359
1907.09611 1.56967
1905.04767 1.56634
1902.99923 1.56457
1900.95080 1.56315
1898.90236 1.56183
1896.85392 1.56130
1894.80548 1.56080
1892.75704 1.56022
1890.70860 1.56038
1888.66017 1.55908
1886.61173 1.55579
1884.56329 1.55278
1882.51485 1.54984
1880.46641 1.54628
1878.41797 1.54229
1876.36954 1.53848
1874.32110 1.53486
1872.27266 1.53256
1870.22422 1.53293
1868.17578 1.53216
1866.12734 1.52607
1864.07891 1.51956
1862.03047 1.51602
1859.98203 1.51444
1857.93359 1.51284
1855.88515 1.51027
1853.83671 1.50766
1851.78828 1.50642
1849.73984 1.50644
1847.69140 1.50693
1845.64296 1.50710
1843.59452 1.50398
1841.54608 1.49819
1839.49765 1.49452
1837.44921 1.49277
1835.40077 1.49053
1833.35233 1.48871
1831.30389 1.48872
1829.25545 1.48717
1827.20702 1.48334
1825.15858 1.48000
1823.11014 1.47607
1821.06170 1.47239
1819.01326 1.47031
1816.96482 1.46859
1814.91639 1.46733
1812.86795 1.46841
1810.81951 1.47063
1808.77107 1.47095
1806.72263 1.47016
1804.67419 1.47080
1802.62575 1.47384
1800.57732 1.47669
1798.52888 1.47683
1796.48044 1.47728
1794.43200 1.48070
1792.38356 1.48516
1790.33512 1.48440
1788.28669 1.48194
1786.23825 1.48305
1784.18981 1.48615
1782.14137 1.48926
1780.09293 1.49267
1778.04449 1.49541
1775.99606 1.49859
1773.94762 1.50452
1771.89918 1.51069
1769.85074 1.51096
1767.80230 1.50853
1765.75386 1.50716
1763.70543 1.50849
1761.65699 1.51195
1759.60855 1.51436
1757.56011 1.51631
1755.51167 1.51823
1753.46323 1.52117
1751.41480 1.52833
1749.36636 1.53665
1747.31792 1.53926
1745.26948 1.53972
1743.22104 1.54114
1741.17260 1.54284
1739.12417 1.54421
1737.07573 1.54593
1735.02729 1.55079
1732.97885 1.55535
1730.93041 1.55292
1728.88197 1.54894
1726.83354 1.54695
1724.78510 1.54789
1722.73666 1.55010
1720.68822 1.55318
1718.63978 1.56104
1716.59134 1.57127
1714.54291 1.56989
1712.49447 1.56522
1710.44603 1.56493
1708.39759 1.56889
1706.34915 1.57525
1704.30071 1.58055
1702.25228 1.58427
1700.20384 1.59143
1698.15540 1.59842
1696.10696 1.59735
1694.05852 1.59324
1692.01008 1.59278
1689.96165 1.59552
1687.91321 1.59814
1685.86477 1.60060
1683.81633 1.60190
1681.76789 1.59691
1679.71945 1.59067
1677.67102 1.58674
1675.62258 1.58499
1673.57414 1.58296
1671.52570 1.58196
1669.47726 1.57985
1667.42882 1.57366
1665.38038 1.57023
1663.33195 1.57087
1661.28351 1.57107
1659.23507 1.57064
1657.18663 1.57327
1655.13819 1.57957
1653.08975 1.58751
1651.04132 1.58951
1648.99288 1.59269
1646.94444 1.59647
1644.89600 1.59289
1642.84756 1.58995
1640.79912 1.59187
1638.75069 1.59780
1636.70225 1.60637
1634.65381 1.60939
1632.60537 1.60698
1630.55693 1.60739
1628.50849 1.61107
1626.46006 1.61515
1624.41162 1.61836
1622.36318 1.61930
1620.31474 1.61802
1618.26630 1.61876
1616.21786 1.61934
1614.16943 1.61558
1612.12099 1.61302
1610.07255 1.61266
1608.02411 1.61090
1605.97567 1.60692
1603.92723 1.60290
1601.87880 1.59885
1599.83036 1.59472
1597.78192 1.59185
1595.73348 1.58952
1593.68504 1.58590
1591.63660 1.58216
1589.58817 1.57972
1587.53973 1.57807
1585.49129 1.57712
1583.44285 1.57728
1581.39441 1.57877
1579.34597 1.58230
1577.29754 1.58863
1575.24910 1.59452
1573.20066 1.59735
1571.15222 1.60246
1569.10378 1.60986
1567.05534 1.61436
1565.00691 1.61910
1562.95847 1.62484
1560.91003 1.63163
1558.86159 1.64804
1556.81315 1.65921
1554.76471 1.66006
1552.71628 1.66119
1550.66784 1.66446
1548.61940 1.66900
1546.57096 1.67547
1544.52252 1.68686
1542.47408 1.69956
1540.42565 1.70440
1538.37721 1.69841
1536.32877 1.69503
1534.28033 1.69589
1532.23189 1.69591
1530.18345 1.69518
1528.13501 1.69835
1526.08658 1.70329
1524.03814 1.70635
1521.98970 1.70782
1519.94126 1.70549
1517.89282 1.70165
1515.84438 1.69584
1513.79595 1.68965
1511.74751 1.68716
1509.69907 1.68958
1507.65063 1.69190
1505.60219 1.68075
1503.55375 1.67105
1501.50532 1.66671
1499.45688 1.66513
1497.40844 1.66252
1495.36000 1.65528
1493.31156 1.64980
1491.26312 1.64938
1489.21469 1.64840
1487.16625 1.63949
1485.11781 1.63058
1483.06937 1.62588
1481.02093 1.62298
1478.97249 1.62082
1476.92406 1.62106
1474.87562 1.62336
1472.82718 1.62040
1470.77874 1.60816
1468.73030 1.59823
1466.68186 1.59260
1464.63343 1.58653
1462.58499 1.57993
1460.53655 1.57828
1458.48811 1.58088
1456.43967 1.57484
1454.39123 1.56268
1452.34280 1.55595
1450.29436 1.55320
1448.24592 1.55158
1446.19748 1.54793
1444.14904 1.54341
1442.10060 1.53999
1440.05217 1.53871
1438.00373 1.53982
1435.95529 1.53946
1433.90685 1.53575
1431.85841 1.53278
1429.80997 1.53042
1427.76154 1.52770
1425.71310 1.52662
1423.66466 1.52714
1421.61622 1.52812
1419.56778 1.53119
1417.51934 1.53349
1415.47091 1.53254
1413.42247 1.53293
1411.37403 1.53563
1409.32559 1.53889
1407.27715 1.54311
1405.22871 1.54822
1403.18028 1.55129
1401.13184 1.55384
1399.08340 1.55865
1397.03496 1.56336
1394.98652 1.56465
1392.93808 1.56241
1390.88965 1.56051
1388.84121 1.56133
1386.79277 1.56252
1384.74433 1.56126
1382.69589 1.55987
1380.64745 1.55963
1378.59901 1.55957
1376.55058 1.55958
1374.50214 1.55921
1372.45370 1.55673
1370.40526 1.55412
1368.35682 1.55291
1366.30838 1.55312
1364.25995 1.55576
1362.21151 1.55741
1360.16307 1.55432
1358.11463 1.55160
1356.06619 1.55227
1354.01775 1.55449
1351.96932 1.55641
1349.92088 1.55825
1347.87244 1.56074
1345.82400 1.56415
1343.77556 1.56874
1341.72712 1.57585
1339.67869 1.58429
1337.63025 1.58773
1335.58181 1.58629
1333.53337 1.58489
1331.48493 1.58433
1329.43649 1.58314
1327.38806 1.58024
1325.33962 1.57590
1323.29118 1.57138
1321.24274 1.56713
1319.19430 1.56227
1317.14586 1.55652
1315.09743 1.55123
1313.04899 1.54642
1311.00055 1.54116
1308.95211 1.53640
1306.90367 1.53319
1304.85523 1.53124
1302.80680 1.52974
1300.75836 1.52865
1298.70992 1.52883
1296.66148 1.53033
1294.61304 1.53238
1292.56460 1.53478
1290.51617 1.53772
1288.46773 1.54094
1286.41929 1.54375
1284.37085 1.54666
1282.32241 1.55083
1280.27397 1.55577
1278.22554 1.56042
1276.17710 1.56482
1274.12866 1.57020
1272.08022 1.57752
1270.03178 1.58605
1267.98334 1.59469
1265.93491 1.60295
1263.88647 1.61032
1261.83803 1.61630
1259.78959 1.62040
1257.74115 1.62236
1255.69271 1.62295
1253.64428 1.62344
1251.59584 1.62441
1249.54740 1.62596
1247.49896 1.62836
1245.45052 1.63170
1243.40208 1.63523
1241.35364 1.63780
1239.30521 1.63920
1237.25677 1.63996
1235.20833 1.63997
1233.15989 1.63950
1231.11145 1.63913
1229.06301 1.63854
1227.01458 1.63752
1224.96614 1.63655
1222.91770 1.63607
1220.86926 1.63686
1218.82082 1.63985
1216.77238 1.64490
1214.72395 1.65139
1212.67551 1.65895
1210.62707 1.66787
1208.57863 1.67881
1206.53019 1.69069
1204.48175 1.70170
1202.43332 1.71195
1200.38488 1.72175
1198.33644 1.73040
1196.28800 1.73757
1194.23956 1.74323
1192.19112 1.74786
1190.14269 1.75246
1188.09425 1.75735
1186.04581 1.76239
1183.99737 1.76778
1181.94893 1.77371
1179.90049 1.77946
1177.85206 1.78381
1175.80362 1.78721
1173.75518 1.79113
1171.70674 1.79502
1169.65830 1.79777
1167.60986 1.80018
1165.56143 1.80261
1163.51299 1.80493
1161.46455 1.80806
1159.41611 1.81184
1157.36767 1.81553
1155.31923 1.82059
1153.27080 1.82803
1151.22236 1.83656
1149.17392 1.84552
1147.12548 1.85554
1145.07704 1.86664
1143.02860 1.87808
1140.98017 1.88944
1138.93173 1.90077
1136.88329 1.91243
1134.83485 1.92451
1132.78641 1.93604
1130.73797 1.94598
1128.68954 1.95404
1126.64110 1.96111
1124.59266 1.96877
1122.54422 1.97661
1120.49578 1.98229
1118.44734 1.98722
1116.39891 1.99468
1114.35047 2.00330
1112.30203 2.01050
1110.25359 2.01645
1108.20515 2.02324
1106.15671 2.03211
1104.10827 2.04210
1102.05984 2.05245
1100.01140 2.06293
1097.96296 2.07405
1095.91452 2.08663
1093.86608 2.09979
1091.81764 2.11182
1089.76921 2.12185
1087.72077 2.13124
1085.67233 2.14087
1083.62389 2.14974
1081.57545 2.15688
1079.52701 2.16128
1077.47858 2.16412
1075.43014 2.16595
1073.38170 2.16469
1071.33326 2.16215
1069.28482 2.16249
1067.23638 2.16605
1065.18795 2.16935
1063.13951 2.16859
1061.09107 2.16484
1059.04263 2.16133
1056.99419 2.15904
1054.94575 2.15992
1052.89732 2.16133
1050.84888 2.15923
1048.80044 2.15794
1046.75200 2.16035
1044.70356 2.16206
1042.65512 2.16118
1040.60669 2.16110
1038.55825 2.16183
1036.50981 2.16049
1034.46137 2.15746
1032.41293 2.15550
1030.36449 2.15442
1028.31606 2.15117
1026.26762 2.14662
1024.21918 2.14216
1022.17074 2.13590
1020.12230 2.12735
1018.07386 2.11787
1016.02543 2.10920
1013.97699 2.10227
1011.92855 2.09426
1009.88011 2.08428
1007.83167 2.07485
1005.78323 2.06576
1003.73480 2.05765
1001.68636 2.05086
999.63792 2.04594
997.58948 2.04482
995.54104 2.04544
993.49260 2.04711
991.44417 2.05089
989.39573 2.05531
987.34729 2.06112
985.29885 2.07117
983.25041 2.08492
981.20197 2.10042
979.15354 2.11805
977.10510 2.13598
975.05666 2.15389
973.00822 2.17424
970.95978 2.19370
968.91134 2.21044
966.86290 2.22789
964.81447 2.24480
962.76603 2.25573
960.71759 2.26182
958.66915 2.26807
956.62071 2.27272
954.57227 2.27404
952.52384 2.27504
950.47540 2.27659
948.42696 2.27814
946.37852 2.28090
944.33008 2.28470
942.28164 2.28625
940.23321 2.28759
938.18477 2.29186
936.13633 2.29292
934.08789 2.29221
932.03945 2.29674
929.99101 2.30536
927.94258 2.31748
925.89414 2.32902
923.84570 2.33328
921.79726 2.33213
919.74882 2.33249
917.70038 2.34031
915.65195 2.35307
913.60351 2.36011
911.55507 2.36056
909.50663 2.36254
907.45819 2.36553
905.40975 2.36663
903.36132 2.36376
901.31288 2.35620
899.26444 2.34869
897.21600 2.34132
895.16756 2.33420
893.11912 2.32798
891.07069 2.32051
889.02225 2.31307
886.97381 2.30737
884.92537 2.30613
882.87693 2.31347
880.82849 2.32877
878.78006 2.34509
876.73162 2.35709
874.68318 2.36797
872.63474 2.38354
870.58630 2.40192
868.53786 2.41455
866.48943 2.42452
864.44099 2.44110
862.39255 2.45617
860.34411 2.46442
858.29567 2.47301
856.24723 2.47805
854.19880 2.47350
852.15036 2.46532
850.10192 2.46497
848.05348 2.47347
846.00504 2.48017
843.95660 2.47463
841.90817 2.45927
839.85973 2.45202
837.81129 2.45716
835.76285 2.45822
833.71441 2.45092
831.66597 2.44661
829.61753 2.44960
827.56910 2.45967
825.52066 2.47345
823.47222 2.48133
821.42378 2.47718
819.37534 2.46630
817.32690 2.46481
815.27847 2.48048
813.23003 2.49559
811.18159 2.49305
809.13315 2.48710
807.08471 2.49782
805.03627 2.52580
802.98784 2.55161
800.93940 2.56474
798.89096 2.57564
796.84252 2.58701
794.79408 2.59832
792.74564 2.60546
790.69721 2.60171
788.64877 2.59656
786.60033 2.59630
784.55189 2.60047
782.50345 2.61389
780.45501 2.62955
778.40658 2.63594
776.35814 2.63314
774.30970 2.62806
772.26126 2.62627
770.21282 2.63351
768.16438 2.66158
766.11595 2.69979
764.06751 2.72309
762.01907 2.73313
759.97063 2.73718
757.92219 2.73934
755.87375 2.76089
753.82532 2.80153
751.77688 2.82640
749.72844 2.83943
747.68000 2.86263
745.63156 2.89418
743.58312 2.93617
741.53469 2.97275
739.48625 2.97913
737.43781 2.96896
735.38937 2.97971
733.34093 3.03207
731.29249 3.08208
729.24406 3.10635
727.19562 3.17963
725.14718 3.28182
723.09874 3.30901
721.05030 3.26498
719.00186 3.22605
716.95343 3.23146
714.90499 3.24031
712.85655 3.24163
710.80811 3.25430
708.75967 3.25464
706.71123 3.16532
704.66280 3.05146
702.61436 3.10518
700.56592 3.32659
698.51748 3.38297
696.46904 3.24583
694.42060 3.15897
692.37216 3.19882
690.32373 3.40977
688.27529 3.62457
686.22685 3.50418
684.17841 3.33579
682.12997 3.26800
680.08153 3.23699
678.03310 3.16853
675.98466 3.04773
673.93622 2.94631
671.88778 2.87654
669.83934 2.73834
667.79090 2.58466
665.74247 2.59244
663.69403 2.66877
661.64559 2.68909
659.59715 2.63744
657.54871 2.56864
655.50027 2.49832
653.45184 2.41120
651.40340 2.32846
649.35496 2.28091
647.30652 2.25700
645.25808 2.23840
643.20964 2.22204
641.16121 2.21019
639.11277 2.19144
637.06433 2.15489
635.01589 2.11152
632.96745 2.07375
630.91901 2.05763
628.87058 2.06042
626.82214 2.05424
624.77370 2.03715
622.72526 2.03528
620.67682 2.05282
618.62838 2.06316
616.57995 2.05533
614.53151 2.02846
612.48307 1.98447
610.43463 1.95995
608.38619 1.94952
606.33775 1.92939
604.28932 1.93885
602.24088 1.97417
600.19244 1.97069
598.14400 1.93520
