3996.50324 2.00983
3994.45480 2.01197
3992.40636 2.01284
3990.35792 2.01206
3988.30948 2.01087
3986.26104 2.00892
3984.21261 2.00758
3982.16417 2.00764
3980.11573 2.00735
3978.06729 2.00424
3976.01885 2.00076
3973.97041 1.99973
3971.92198 1.99885
3969.87354 1.99868
3967.82510 2.00043
3965.77666 2.00177
3963.72822 2.00137
3961.67978 2.00075
3959.63135 2.00051
3957.58291 1.99921
3955.53447 1.99833
3953.48603 1.99923
3951.43759 2.00011
3949.38915 2.00072
3947.34072 2.00142
3945.29228 2.00138
3943.24384 2.00163
3941.19540 2.00103
3939.14696 1.99908
3937.09852 1.99871
3935.05009 1.99923
3933.00165 1.99898
3930.95321 1.99727
3928.90477 1.99337
3926.85633 1.98936
3924.80789 1.98830
3922.75946 1.99044
3920.71102 1.99264
3918.66258 1.99408
3916.61414 1.99587
3914.56570 1.99801
3912.51726 1.99860
3910.46883 1.99683
3908.42039 1.99324
3906.37195 1.98956
3904.32351 1.99003
3902.27507 1.99254
3900.22663 1.99399
3898.17820 1.99658
3896.12976 1.99723
3894.08132 1.99649
3892.03288 1.99440
3889.98444 1.99231
3887.93600 1.99329
3885.88756 1.99541
3883.83913 1.99588
3881.79069 1.99534
3879.74225 1.99540
3877.69381 1.99436
3875.64537 1.99329
3873.59693 1.99387
3871.54850 1.99335
3869.50006 1.99022
3867.45162 1.98953
3865.40318 1.99231
3863.35474 1.99565
3861.30630 1.99658
3859.25787 1.99602
3857.20943 1.99566
3855.16099 1.99772
3853.11255 2.00566
3851.06411 2.00361
3849.01567 1.99482
3846.96724 1.98875
3844.91880 1.98612
3842.87036 1.98727
3840.82192 1.99156
3838.77348 1.99593
3836.72504 1.99628
3834.67661 1.99551
3832.62817 1.99854
3830.57973 2.00283
3828.53129 2.00520
3826.48285 2.00465
3824.43441 2.00153
3822.38598 1.99990
3820.33754 2.00056
3818.28910 2.00092
3816.24066 2.00147
3814.19222 2.00133
3812.14378 2.00144
3810.09535 2.00173
3808.04691 2.00074
3805.99847 1.99887
3803.95003 1.99866
3801.90159 2.00287
3799.85315 2.01106
3797.80472 2.01404
3795.75628 2.00998
3793.70784 2.00594
3791.65940 2.00521
3789.61096 2.00534
3787.56252 2.00582
3785.51409 2.00642
3783.46565 2.00410
3781.41721 2.00001
3779.36877 1.99981
3777.32033 2.00395
3775.27189 2.00623
3773.22346 2.00587
3771.17502 2.00586
3769.12658 2.00641
3767.07814 2.00391
3765.02970 1.99948
3762.98126 1.99802
3760.93283 1.99897
3758.88439 2.00051
3756.83595 2.00097
3754.78751 1.99936
3752.73907 2.00132
3750.69063 2.01252
3748.64219 2.01644
3746.59376 2.00823
3744.54532 1.99811
3742.49688 1.99931
3740.44844 2.00608
3738.40000 2.00862
3736.35156 2.00727
3734.30313 2.00567
3732.25469 2.00145
3730.20625 2.00014
3728.15781 2.00405
3726.10937 2.00706
3724.06093 2.00569
3722.01250 2.00664
3719.96406 2.01047
3717.91562 2.01324
3715.86718 2.01571
3713.81874 2.01622
3711.77030 2.01270
3709.72187 2.01345
3707.67343 2.01868
3705.62499 2.02371
3703.57655 2.02854
3701.52811 2.03318
3699.47967 2.03799
3697.43124 2.04098
3695.38280 2.04145
3693.33436 2.04099
3691.28592 2.04068
3689.23748 2.03969
3687.18904 2.03649
3685.14061 2.03280
3683.09217 2.03114
3681.04373 2.03410
3678.99529 2.03957
3676.94685 2.04203
3674.89841 2.03929
3672.84998 2.03664
3670.80154 2.03979
3668.75310 2.05139
3666.70466 2.05923
3664.65622 2.05945
3662.60778 2.05830
3660.55935 2.06163
3658.51091 2.06736
3656.46247 2.07143
3654.41403 2.07212
3652.36559 2.07222
3650.31715 2.07890
3648.26872 2.09161
3646.22028 2.09647
3644.17184 2.09988
3642.12340 2.10497
3640.07496 2.10960
3638.02652 2.11268
3635.97809 2.11464
3633.92965 2.11622
3631.88121 2.11904
3629.83277 2.12430
3627.78433 2.12964
3625.73589 2.13070
3623.68746 2.13517
3621.63902 2.14440
3619.59058 2.14876
3617.54214 2.14611
3615.49370 2.14586
3613.44526 2.14682
3611.39682 2.14912
3609.34839 2.15253
3607.29995 2.15596
3605.25151 2.16075
3603.20307 2.16224
3601.15463 2.16077
3599.10619 2.16449
3597.05776 2.16978
3595.00932 2.17224
3592.96088 2.17666
3590.91244 2.17991
3588.86400 2.18072
3586.81556 2.18602
3584.76713 2.19272
3582.71869 2.19545
3580.67025 2.19805
3578.62181 2.20327
3576.57337 2.20697
3574.52493 2.20485
3572.47650 2.20122
3570.42806 2.20095
3568.37962 2.20301
3566.33118 2.20334
3564.28274 2.20320
3562.23430 2.20728
3560.18587 2.21527
3558.13743 2.22130
3556.08899 2.22180
3554.04055 2.22217
3551.99211 2.22590
3549.94367 2.22846
3547.89524 2.22923
3545.84680 2.23468
3543.79836 2.24443
3541.74992 2.24880
3539.70148 2.24860
3537.65304 2.24934
3535.60461 2.24953
3533.55617 2.24905
3531.50773 2.25187
3529.45929 2.25490
3527.41085 2.25389
3525.36241 2.25293
3523.31398 2.25430
3521.26554 2.25498
3519.21710 2.25265
3517.16866 2.25186
3515.12022 2.25861
3513.07178 2.26747
3511.02335 2.26881
3508.97491 2.26362
3506.92647 2.26044
3504.87803 2.26074
3502.82959 2.26267
3500.78115 2.26664
3498.73272 2.26761
3496.68428 2.26425
3494.63584 2.26604
3492.58740 2.27378
3490.53896 2.27396
3488.49052 2.26448
3486.44209 2.26170
3484.39365 2.26979
3482.34521 2.27466
3480.29677 2.27377
3478.24833 2.27946
3476.19989 2.28895
3474.15146 2.28846
3472.10302 2.28031
3470.05458 2.27844
3468.00614 2.28470
3465.95770 2.28671
3463.90926 2.28020
3461.86082 2.27677
3459.81239 2.27917
3457.76395 2.28063
3455.71551 2.28160
3453.66707 2.28200
3451.61863 2.27974
3449.57019 2.27827
3447.52176 2.28002
3445.47332 2.28330
3443.42488 2.28713
3441.37644 2.28951
3439.32800 2.28712
3437.27956 2.28225
3435.23113 2.27902
3433.18269 2.27511
3431.13425 2.27194
3429.08581 2.27360
3427.03737 2.27469
3424.98893 2.27388
3422.94050 2.27355
3420.89206 2.27302
3418.84362 2.27190
3416.79518 2.26899
3414.74674 2.26924
3412.69830 2.27414
3410.64987 2.27532
3408.60143 2.27305
3406.55299 2.27367
3404.50455 2.27544
3402.45611 2.27611
3400.40767 2.27480
3398.35924 2.26992
3396.31080 2.26521
3394.26236 2.26451
3392.21392 2.26451
3390.16548 2.26552
3388.11704 2.27001
3386.06861 2.27033
3384.02017 2.26556
3381.97173 2.26368
3379.92329 2.26551
3377.87485 2.26688
3375.82641 2.26531
3373.77798 2.26355
3371.72954 2.26299
3369.68110 2.26188
3367.63266 2.25966
3365.58422 2.25923
3363.53578 2.26245
3361.48735 2.26485
3359.43891 2.26254
3357.39047 2.25895
3355.34203 2.25974
3353.29359 2.26510
3351.24515 2.26922
3349.19672 2.26811
3347.14828 2.26312
3345.09984 2.25692
3343.05140 2.25413
3341.00296 2.25718
3338.95452 2.26047
3336.90609 2.25929
3334.85765 2.25772
3332.80921 2.25867
3330.76077 2.25961
3328.71233 2.25779
3326.66389 2.25352
3324.61545 2.25252
3322.56702 2.25777
3320.51858 2.26394
3318.47014 2.26534
3316.42170 2.26565
3314.37326 2.26743
3312.32482 2.26639
3310.27639 2.26503
3308.22795 2.26463
3306.17951 2.26262
3304.13107 2.26155
3302.08263 2.26199
3300.03419 2.26331
3297.98576 2.26435
3295.93732 2.26268
3293.88888 2.25954
3291.84044 2.25724
3289.79200 2.25821
3287.74356 2.26091
3285.69513 2.26125
3283.64669 2.26045
3281.59825 2.26034
3279.54981 2.26110
3277.50137 2.26244
3275.45293 2.26140
3273.40450 2.25743
3271.35606 2.25510
3269.30762 2.25586
3267.25918 2.25644
3265.21074 2.25519
3263.16230 2.25474
3261.11387 2.25614
3259.06543 2.25728
3257.01699 2.25573
3254.96855 2.25079
3252.92011 2.24748
3250.87167 2.24827
3248.82324 2.24926
3246.77480 2.24956
3244.72636 2.25123
3242.67792 2.25178
3240.62948 2.24909
3238.58104 2.24676
3236.53261 2.24580
3234.48417 2.24566
3232.43573 2.24787
3230.38729 2.24949
3228.33885 2.24766
3226.29041 2.24493
3224.24198 2.24184
3222.19354 2.23898
3220.14510 2.23825
3218.09666 2.23777
3216.04822 2.23494
3213.99978 2.23167
3211.95135 2.23222
3209.90291 2.23544
3207.85447 2.23634
3205.80603 2.23220
3203.75759 2.22667
3201.70915 2.22551
3199.66072 2.22785
3197.61228 2.23023
3195.56384 2.23219
3193.51540 2.23274
3191.46696 2.23253
3189.41852 2.23245
3187.37008 2.22882
3185.32165 2.22426
3183.27321 2.22406
3181.22477 2.22628
3179.17633 2.22837
3177.12789 2.22872
3175.07945 2.22561
3173.03102 2.21971
3170.98258 2.21500
3168.93414 2.21459
3166.88570 2.21708
3164.83726 2.21635
3162.78882 2.21137
3160.74039 2.20924
3158.69195 2.20864
3156.64351 2.20529
3154.59507 2.20320
3152.54663 2.20456
3150.49819 2.20747
3148.44976 2.21078
3146.40132 2.21079
3144.35288 2.20611
3142.30444 2.20355
3140.25600 2.20561
3138.20756 2.20703
3136.15913 2.20439
3134.11069 2.19856
3132.06225 2.19295
3130.01381 2.19182
3127.96537 2.19588
3125.91693 2.20043
3123.86850 2.20162
3121.82006 2.19874
3119.77162 2.19355
3117.72318 2.19059
3115.67474 2.19150
3113.62630 2.19135
3111.57787 2.18803
3109.52943 2.18763
3107.48099 2.19035
3105.43255 2.19132
3103.38411 2.19122
3101.33567 2.19011
3099.28724 2.18624
3097.23880 2.18339
3095.19036 2.18502
3093.14192 2.18686
3091.09348 2.18646
3089.04504 2.18541
3086.99661 2.18368
3084.94817 2.18332
3082.89973 2.18594
3080.85129 2.18706
3078.80285 2.18449
3076.75441 2.18238
3074.70598 2.18184
3072.65754 2.18117
3070.60910 2.17971
3068.56066 2.17760
3066.51222 2.17532
3064.46378 2.17435
3062.41535 2.17496
3060.36691 2.17425
3058.31847 2.17181
3056.27003 2.17044
3054.22159 2.17062
3052.17315 2.17089
3050.12471 2.17091
3048.07628 2.17030
3046.02784 2.16925
3043.97940 2.16897
3041.93096 2.16895
3039.88252 2.16845
3037.83408 2.16753
3035.78565 2.16580
3033.73721 2.16414
3031.68877 2.16381
3029.64033 2.16383
3027.59189 2.16274
3025.54345 2.16137
3023.49502 2.16172
3021.44658 2.16112
3019.39814 2.15854
3017.34970 2.15748
3015.30126 2.15701
3013.25282 2.15665
3011.20439 2.15679
3009.15595 2.15652
3007.10751 2.15807
3005.05907 2.16013
3003.01063 2.15876
3000.96219 2.15641
2998.91376 2.15499
2996.86532 2.15240
2994.81688 2.14930
2992.76844 2.14744
2990.72000 2.14674
2988.67156 2.14565
2986.62313 2.14458
2984.57469 2.14552
2982.52625 2.14565
2980.47781 2.14251
2978.42937 2.13899
2976.38093 2.13785
2974.33250 2.13897
2972.28406 2.14067
2970.23562 2.14094
2968.18718 2.13993
2966.13874 2.13909
2964.09030 2.13925
2962.04187 2.14028
2959.99343 2.14075
2957.94499 2.14050
2955.89655 2.13973
2953.84811 2.13846
2951.79967 2.13776
2949.75124 2.13673
2947.70280 2.13371
2945.65436 2.13074
2943.60592 2.13071
2941.55748 2.13228
2939.50904 2.13300
2937.46061 2.13261
2935.41217 2.13244
2933.36373 2.13411
2931.31529 2.13572
2929.26685 2.13535
2927.21841 2.13552
2925.16998 2.13738
2923.12154 2.13851
2921.07310 2.13828
2919.02466 2.13835
2916.97622 2.13775
2914.92778 2.13587
2912.87934 2.13536
2910.83091 2.13380
2908.78247 2.12833
2906.73403 2.12481
2904.68559 2.12520
2902.63715 2.12413
2900.58871 2.12182
2898.54028 2.12222
2896.49184 2.12290
2894.44340 2.11923
2892.39496 2.11463
2890.34652 2.11368
2888.29808 2.11410
2886.24965 2.11259
2884.20121 2.10980
2882.15277 2.10951
2880.10433 2.11157
2878.05589 2.11182
2876.00745 2.10976
2873.95902 2.10757
2871.91058 2.10678
2869.86214 2.10712
2867.81370 2.10738
2865.76526 2.10712
2863.71682 2.10572
2861.66839 2.10428
2859.61995 2.10377
2857.57151 2.10236
2855.52307 2.10154
2853.47463 2.10404
2851.42619 2.10732
2849.37776 2.10840
2847.32932 2.10640
2845.28088 2.10138
2843.23244 2.09671
2841.18400 2.09468
2839.13556 2.09376
2837.08713 2.09334
2835.03869 2.09277
2832.99025 2.09156
2830.94181 2.09073
2828.89337 2.09040
2826.84493 2.09049
2824.79650 2.08963
2822.74806 2.08785
2820.69962 2.08722
2818.65118 2.08562
2816.60274 2.08327
2814.55430 2.08417
2812.50587 2.08601
2810.45743 2.08612
2808.40899 2.08579
2806.36055 2.08543
2804.31211 2.08584
2802.26367 2.08672
2800.21524 2.08585
2798.16680 2.08320
2796.11836 2.08067
2794.06992 2.08000
2792.02148 2.08136
2789.97304 2.08331
2787.92461 2.08482
2785.87617 2.08550
2783.82773 2.08564
2781.77929 2.08540
2779.73085 2.08465
2777.68241 2.08292
2775.63397 2.08031
2773.58554 2.07824
2771.53710 2.07666
2769.48866 2.07581
2767.44022 2.07712
2765.39178 2.07979
2763.34334 2.08089
2761.29491 2.07896
2759.24647 2.07568
2757.19803 2.07347
2755.14959 2.07300
2753.10115 2.07405
2751.05271 2.07476
2749.00428 2.07441
2746.95584 2.07526
2744.90740 2.07628
2742.85896 2.07602
2740.81052 2.07478
2738.76208 2.07322
2736.71365 2.07302
2734.66521 2.07242
2732.61677 2.07017
2730.56833 2.06835
2728.51989 2.06780
2726.47145 2.06852
2724.42302 2.06935
2722.37458 2.06852
2720.32614 2.06704
2718.27770 2.06520
2716.22926 2.06338
2714.18082 2.06396
2712.13239 2.06463
2710.08395 2.06286
2708.03551 2.06201
2705.98707 2.06270
2703.93863 2.06259
2701.89019 2.06224
2699.84176 2.06156
2697.79332 2.05992
2695.74488 2.05882
2693.69644 2.05883
2691.64800 2.05840
2689.59956 2.05732
2687.55113 2.05741
2685.50269 2.05713
2683.45425 2.05428
2681.40581 2.05195
2679.35737 2.05167
2677.30893 2.05028
2675.26050 2.04836
2673.21206 2.04892
2671.16362 2.05081
2669.11518 2.05180
2667.06674 2.05005
2665.01830 2.04543
2662.96987 2.04193
2660.92143 2.04148
2658.87299 2.04221
2656.82455 2.04177
2654.77611 2.03960
2652.72767 2.03825
2650.67924 2.03917
2648.63080 2.04138
2646.58236 2.04305
2644.53392 2.04328
2642.48548 2.04235
2640.43704 2.04050
2638.38860 2.03911
2636.34017 2.03912
2634.29173 2.04016
2632.24329 2.04147
2630.19485 2.04190
2628.14641 2.03976
2626.09797 2.03615
2624.04954 2.03479
2622.00110 2.03555
2619.95266 2.03523
2617.90422 2.03419
2615.85578 2.03462
2613.80734 2.03456
2611.75891 2.03342
2609.71047 2.03353
2607.66203 2.03282
2605.61359 2.02995
2603.56515 2.02843
2601.51671 2.02873
2599.46828 2.02829
2597.41984 2.02717
2595.37140 2.02653
2593.32296 2.02667
2591.27452 2.02631
2589.22608 2.02488
2587.17765 2.02391
2585.12921 2.02341
2583.08077 2.02316
2581.03233 2.02422
2578.98389 2.02585
2576.93545 2.02567
2574.88702 2.02370
2572.83858 2.02350
2570.79014 2.02578
2568.74170 2.02660
2566.69326 2.02578
2564.64482 2.02610
2562.59639 2.02691
2560.54795 2.02724
2558.49951 2.02706
2556.45107 2.02542
2554.40263 2.02304
2552.35419 2.02200
2550.30576 2.02179
2548.25732 2.02208
2546.20888 2.02435
2544.16044 2.02711
2542.11200 2.02843
2540.06356 2.02877
2538.01513 2.02766
2535.96669 2.02549
2533.91825 2.02450
2531.86981 2.02527
2529.82137 2.02675
2527.77293 2.02664
2525.72450 2.02437
2523.67606 2.02440
2521.62762 2.02804
2519.57918 2.03144
2517.53074 2.03240
2515.48230 2.03179
2513.43387 2.03230
2511.38543 2.03432
2509.33699 2.03592
2507.28855 2.03577
2505.24011 2.03487
2503.19167 2.03501
2501.14324 2.03515
2499.09480 2.03466
2497.04636 2.03511
2494.99792 2.03673
2492.94948 2.03749
2490.90104 2.03706
2488.85260 2.03807
2486.80417 2.04009
2484.75573 2.04062
2482.70729 2.03977
2480.65885 2.03884
2478.61041 2.03819
2476.56197 2.03636
2474.51354 2.03489
2472.46510 2.03706
2470.41666 2.03935
2468.36822 2.03790
2466.31978 2.03691
2464.27134 2.03934
2462.22291 2.04094
2460.17447 2.03958
2458.12603 2.03823
2456.07759 2.03801
2454.02915 2.03704
2451.98071 2.03575
2449.93228 2.03663
2447.88384 2.03811
2445.83540 2.03758
2443.78696 2.03605
2441.73852 2.03433
2439.69008 2.03275
2437.64165 2.03251
2435.59321 2.03262
2433.54477 2.03123
2431.49633 2.02871
2429.44789 2.02640
2427.39945 2.02545
2425.35102 2.02534
2423.30258 2.02573
2421.25414 2.02636
2419.20570 2.02528
2417.15726 2.02323
2415.10882 2.02283
2413.06039 2.02360
2411.01195 2.02371
2408.96351 2.02426
2406.91507 2.02622
2404.86663 2.02756
2402.81819 2.02734
2400.76976 2.02622
2398.72132 2.02529
2396.67288 2.02537
2394.62444 2.02582
2392.57600 2.02558
2390.52756 2.02439
2388.47913 2.02336
2386.43069 2.02326
2384.38225 2.02342
2382.33381 2.02279
2380.28537 2.02058
2378.23693 2.01798
2376.18850 2.01893
2374.14006 2.02262
2372.09162 2.02357
2370.04318 2.02070
2367.99474 2.01258
2365.94630 2.00669
2363.89787 2.01643
2361.84943 2.03560
2359.80099 2.05055
2357.75255 2.04597
2355.70411 2.02683
2353.65567 2.01626
2351.60723 2.01471
2349.55880 2.01533
2347.51036 2.01653
2345.46192 2.01771
2343.41348 2.01754
2341.36504 2.01541
2339.31660 2.01205
2337.26817 2.00572
2335.21973 2.00036
2333.17129 2.00296
2331.12285 2.00875
2329.07441 2.01251
2327.02597 2.01979
2324.97754 2.02585
2322.92910 2.02256
2320.88066 2.01867
2318.83222 2.01847
2316.78378 2.01886
2314.73534 2.02133
2312.68691 2.02494
2310.63847 2.02681
2308.59003 2.02660
2306.54159 2.02628
2304.49315 2.02790
2302.44471 2.02988
2300.39628 2.03003
2298.34784 2.03016
2296.29940 2.03150
2294.25096 2.03147
2292.20252 2.02943
2290.15408 2.02872
2288.10565 2.03009
2286.05721 2.03098
2284.00877 2.03035
2281.96033 2.02875
2279.91189 2.02738
2277.86345 2.02684
2275.81502 2.02644
2273.76658 2.02656
2271.71814 2.02646
2269.66970 2.02475
2267.62126 2.02347
2265.57282 2.02401
2263.52439 2.02534
2261.47595 2.02677
2259.42751 2.02839
2257.37907 2.02968
2255.33063 2.02886
2253.28219 2.02683
2251.23376 2.02593
2249.18532 2.02565
2247.13688 2.02620
2245.08844 2.02836
2243.04000 2.02954
2240.99156 2.02853
2238.94313 2.02769
2236.89469 2.02732
2234.84625 2.02689
2232.79781 2.02791
2230.74937 2.02958
2228.70093 2.02937
2226.65250 2.02822
2224.60406 2.02906
2222.55562 2.03067
2220.50718 2.02975
2218.45874 2.02826
2216.41030 2.02872
2214.36186 2.02905
2212.31343 2.02733
2210.26499 2.02458
2208.21655 2.02318
2206.16811 2.02373
2204.11967 2.02421
2202.07123 2.02341
2200.02280 2.02289
2197.97436 2.02374
2195.92592 2.02484
2193.87748 2.02536
2191.82904 2.02442
2189.78060 2.02218
2187.73217 2.02112
2185.68373 2.02132
2183.63529 2.02123
2181.58685 2.02115
2179.53841 2.02131
2177.48997 2.02167
2175.44154 2.02266
2173.39310 2.02346
2171.34466 2.02232
2169.29622 2.01945
2167.24778 2.01703
2165.19934 2.01635
2163.15091 2.01564
2161.10247 2.01408
2159.05403 2.01388
2157.00559 2.01409
2154.95715 2.01352
2152.90871 2.01354
2150.86028 2.01258
2148.81184 2.01049
2146.76340 2.01028
2144.71496 2.01083
2142.66652 2.01073
2140.61808 2.01069
2138.56965 2.00929
2136.52121 2.00747
2134.47277 2.00840
2132.42433 2.01043
2130.37589 2.01111
2128.32745 2.01196
2126.27902 2.01334
2124.23058 2.01427
2122.18214 2.01397
2120.13370 2.01227
2118.08526 2.01129
2116.03682 2.01107
2113.98839 2.01027
2111.93995 2.00969
2109.89151 2.00991
2107.84307 2.01019
2105.79463 2.01001
2103.74619 2.00970
2101.69776 2.00884
2099.64932 2.00728
2097.60088 2.00661
2095.55244 2.00663
2093.50400 2.00536
2091.45556 2.00331
2089.40713 2.00120
2087.35869 1.99869
2085.31025 1.99824
2083.26181 2.00017
2081.21337 2.00057
2079.16493 1.99889
2077.11649 1.99722
2075.06806 1.99660
2073.01962 1.99676
2070.97118 1.99703
2068.92274 1.99759
2066.87430 1.99758
2064.82586 1.99670
2062.77743 1.99577
2060.72899 1.99465
2058.68055 1.99381
2056.63211 1.99375
2054.58367 1.99411
2052.53523 1.99476
2050.48680 1.99493
2048.43836 1.99367
2046.38992 1.99272
2044.34148 1.99365
2042.29304 1.99467
2040.24460 1.99429
2038.19617 1.99289
2036.14773 1.99195
2034.09929 1.99288
2032.05085 1.99353
2030.00241 1.99172
2027.95397 1.98919
2025.90554 1.98748
2023.85710 1.98760
2021.80866 1.98863
2019.76022 1.98778
2017.71178 1.98607
2015.66334 1.98462
2013.61491 1.98254
2011.56647 1.98039
2009.51803 1.97857
2007.46959 1.97739
2005.42115 1.97694
2003.37271 1.97630
2001.32428 1.97498
1999.27584 1.97355
1997.22740 1.97309
1995.17896 1.97350
1993.13052 1.97346
1991.08208 1.97280
1989.03365 1.97367
1986.98521 1.97587
1984.93677 1.97610
1982.88833 1.97449
1980.83989 1.97392
1978.79145 1.97505
1976.74302 1.97658
1974.69458 1.97784
1972.64614 1.97869
1970.59770 1.97850
1968.54926 1.97802
1966.50082 1.97765
1964.45239 1.97690
1962.40395 1.97648
1960.35551 1.97607
1958.30707 1.97489
1956.25863 1.97326
1954.21019 1.97181
1952.16176 1.97171
1950.11332 1.97211
1948.06488 1.97141
1946.01644 1.97003
1943.96800 1.96800
1941.91956 1.96704
1939.87112 1.96855
1937.82269 1.97069
1935.77425 1.97177
1933.72581 1.97084
1931.67737 1.96945
1929.62893 1.96942
1927.58049 1.97036
1925.53206 1.97069
1923.48362 1.96982
1921.43518 1.96881
1919.38674 1.96750
1917.33830 1.96602
1915.28986 1.96550
1913.24143 1.96501
1911.19299 1.96448
1909.14455 1.96511
1907.09611 1.96608
1905.04767 1.96587
1902.99923 1.96517
1900.95080 1.96513
1898.90236 1.96557
1896.85392 1.96647
1894.80548 1.96783
1892.75704 1.96865
1890.70860 1.96934
1888.66017 1.97133
1886.61173 1.97309
1884.56329 1.97409
1882.51485 1.97541
1880.46641 1.97565
1878.41797 1.97465
1876.36954 1.97442
1874.32110 1.97518
1872.27266 1.97540
1870.22422 1.97545
1868.17578 1.97746
1866.12734 1.97962
1864.07891 1.98005
1862.03047 1.98039
1859.98203 1.98184
1857.93359 1.98306
1855.88515 1.98301
1853.83671 1.98322
1851.78828 1.98438
1849.73984 1.98570
1847.69140 1.98619
1845.64296 1.98450
1843.59452 1.98359
1841.54608 1.98622
1839.49765 1.98889
1837.44921 1.99129
1835.40077 1.99299
1833.35233 1.99232
1831.30389 1.99076
1829.25545 1.99089
1827.20702 1.99137
1825.15858 1.99143
1823.11014 1.99275
1821.06170 1.99363
1819.01326 1.99321
1816.96482 1.99290
1814.91639 1.99242
1812.86795 1.99133
1810.81951 1.99080
1808.77107 1.99153
1806.72263 1.99290
1804.67419 1.99380
1802.62575 1.99391
1800.57732 1.99447
1798.52888 1.99504
1796.48044 1.99503
1794.43200 1.99566
1792.38356 1.99678
1790.33512 1.99776
1788.28669 1.99852
1786.23825 1.99847
1784.18981 1.99814
1782.14137 1.99853
1780.09293 1.99937
1778.04449 2.00079
1775.99606 2.00228
1773.94762 2.00283
1771.89918 2.00398
1769.85074 2.00501
1767.80230 2.00446
1765.75386 2.00409
1763.70543 2.00339
1761.65699 2.00253
1759.60855 2.00264
1757.56011 2.00290
1755.51167 2.00391
1753.46323 2.00599
1751.41480 2.00821
1749.36636 2.00928
1747.31792 2.00925
1745.26948 2.00955
1743.22104 2.01070
1741.17260 2.01340
1739.12417 2.01854
1737.07573 2.02318
1735.02729 2.02627
1732.97885 2.02882
1730.93041 2.02963
1728.88197 2.03117
1726.83354 2.03328
1724.78510 2.03526
1722.73666 2.03772
1720.68822 2.03979
1718.63978 2.04214
1716.59134 2.04889
1714.54291 2.05660
1712.49447 2.06059
1710.44603 2.06274
1708.39759 2.06343
1706.34915 2.06387
1704.30071 2.06706
1702.25228 2.07052
1700.20384 2.07255
1698.15540 2.07625
1696.10696 2.08337
1694.05852 2.09207
1692.01008 2.09781
1689.96165 2.10159
1687.91321 2.10548
1685.86477 2.10887
1683.81633 2.11151
1681.76789 2.11540
1679.71945 2.11875
1677.67102 2.12116
1675.62258 2.12395
1673.57414 2.12638
1671.52570 2.12831
1669.47726 2.13436
1667.42882 2.14089
1665.38038 2.14336
1663.33195 2.14765
1661.28351 2.15483
1659.23507 2.15678
1657.18663 2.15376
1655.13819 2.15006
1653.08975 2.14940
1651.04132 2.15323
1648.99288 2.15728
1646.94444 2.16059
1644.89600 2.16002
1642.84756 2.15889
1640.79912 2.15846
1638.75069 2.15671
1636.70225 2.15534
1634.65381 2.15644
1632.60537 2.15569
1630.55693 2.15491
1628.50849 2.15312
1626.46006 2.14873
1624.41162 2.14449
1622.36318 2.14178
1620.31474 2.13985
1618.26630 2.13661
1616.21786 2.13114
1614.16943 2.12887
1612.12099 2.12999
1610.07255 2.13197
1608.02411 2.13305
1605.97567 2.13193
1603.92723 2.12919
1601.87880 2.12659
1599.83036 2.12602
1597.78192 2.12703
1595.73348 2.12773
1593.68504 2.12734
1591.63660 2.12553
1589.58817 2.12284
1587.53973 2.12121
1585.49129 2.12097
1583.44285 2.12057
1581.39441 2.12024
1579.34597 2.12142
1577.29754 2.12330
1575.24910 2.12379
1573.20066 2.12393
1571.15222 2.12521
1569.10378 2.12688
1567.05534 2.12629
1565.00691 2.12544
1562.95847 2.12642
1560.91003 2.12662
1558.86159 2.12213
1556.81315 2.12306
1554.76471 2.12657
1552.71628 2.12637
1550.66784 2.12383
1548.61940 2.12152
1546.57096 2.12083
1544.52252 2.12191
1542.47408 2.12433
1540.42565 2.12538
1538.37721 2.12600
1536.32877 2.12784
1534.28033 2.12957
1532.23189 2.12859
1530.18345 2.12450
1528.13501 2.12070
1526.08658 2.12060
1524.03814 2.12170
1521.98970 2.11603
1519.94126 2.10958
1517.89282 2.11027
1515.84438 2.11214
1513.79595 2.11315
1511.74751 2.11341
1509.69907 2.11212
1507.65063 2.11129
1505.60219 2.11361
1503.55375 2.11373
1501.50532 2.11306
1499.45688 2.11247
1497.40844 2.11176
1495.36000 2.11245
1493.31156 2.11345
1491.26312 2.11306
1489.21469 2.11170
1487.16625 2.11065
1485.11781 2.11050
1483.06937 2.11113
1481.02093 2.11214
1478.97249 2.11436
1476.92406 2.11764
1474.87562 2.12038
1472.82718 2.12420
1470.77874 2.12717
1468.73030 2.12492
1466.68186 2.11971
1464.63343 2.11665
1462.58499 2.11764
1460.53655 2.11710
1458.48811 2.11415
1456.43967 2.11299
1454.39123 2.11374
1452.34280 2.11383
1450.29436 2.11312
1448.24592 2.11204
1446.19748 2.11247
1444.14904 2.11250
1442.10060 2.11039
1440.05217 2.10895
1438.00373 2.10887
1435.95529 2.10816
1433.90685 2.10715
1431.85841 2.10521
1429.80997 2.10236
1427.76154 2.10011
1425.71310 2.09878
1423.66466 2.09835
1421.61622 2.09836
1419.56778 2.09801
1417.51934 2.09705
1415.47091 2.09685
1413.42247 2.09721
1411.37403 2.09790
1409.32559 2.09894
1407.27715 2.09973
1405.22871 2.09968
1403.18028 2.09721
1401.13184 2.09388
1399.08340 2.09255
1397.03496 2.09081
1394.98652 2.08610
1392.93808 2.08326
1390.88965 2.08171
1388.84121 2.07885
1386.79277 2.07776
1384.74433 2.07847
1382.69589 2.07824
1380.64745 2.07791
1378.59901 2.07697
1376.55058 2.07490
1374.50214 2.07289
1372.45370 2.07056
1370.40526 2.06811
1368.35682 2.06685
1366.30838 2.06711
1364.25995 2.06841
1362.21151 2.06990
1360.16307 2.07118
1358.11463 2.07261
1356.06619 2.07395
1354.01775 2.07480
1351.96932 2.07403
1349.92088 2.07284
1347.87244 2.07356
1345.82400 2.07538
1343.77556 2.07762
1341.72712 2.08080
1339.67869 2.08341
1337.63025 2.08315
1335.58181 2.08179
1333.53337 2.08050
1331.48493 2.07941
1329.43649 2.07981
1327.38806 2.08038
1325.33962 2.07952
1323.29118 2.07963
1321.24274 2.08223
1319.19430 2.08461
1317.14586 2.08470
1315.09743 2.08380
1313.04899 2.08296
1311.00055 2.08221
1308.95211 2.08152
1306.90367 2.08124
1304.85523 2.08183
1302.80680 2.08225
1300.75836 2.08277
1298.70992 2.08513
1296.66148 2.08760
1294.61304 2.08945
1292.56460 2.09221
1290.51617 2.09506
1288.46773 2.09864
1286.41929 2.10373
1284.37085 2.10749
1282.32241 2.10944
1280.27397 2.11178
1278.22554 2.11528
1276.17710 2.11960
1274.12866 2.12452
1272.08022 2.13035
1270.03178 2.13538
1267.98334 2.13865
1265.93491 2.14154
1263.88647 2.14472
1261.83803 2.14865
1259.78959 2.15142
1257.74115 2.15247
1255.69271 2.15487
1253.64428 2.15827
1251.59584 2.16065
1249.54740 2.16400
1247.49896 2.16950
1245.45052 2.17485
1243.40208 2.17993
1241.35364 2.18567
1239.30521 2.19035
1237.25677 2.19310
1235.20833 2.19571
1233.15989 2.19965
1231.11145 2.20496
1229.06301 2.20974
1227.01458 2.21340
1224.96614 2.21792
1222.91770 2.22223
1220.86926 2.22496
1218.82082 2.22919
1216.77238 2.23684
1214.72395 2.24381
1212.67551 2.24529
1210.62707 2.24410
1208.57863 2.24587
1206.53019 2.24978
1204.48175 2.25387
1202.43332 2.25803
1200.38488 2.26125
1198.33644 2.26447
1196.28800 2.26831
1194.23956 2.27195
1192.19112 2.27516
1190.14269 2.27841
1188.09425 2.28372
1186.04581 2.28968
1183.99737 2.29317
1181.94893 2.29652
1179.90049 2.30014
1177.85206 2.30118
1175.80362 2.30140
1173.75518 2.30311
1171.70674 2.30674
1169.65830 2.31072
1167.60986 2.31103
1165.56143 2.30797
1163.51299 2.30527
1161.46455 2.30357
1159.41611 2.30446
1157.36767 2.31041
1155.31923 2.31760
1153.27080 2.31973
1151.22236 2.31696
1149.17392 2.31578
1147.12548 2.31895
1145.07704 2.32408
1143.02860 2.32929
1140.98017 2.33209
1138.93173 2.33366
1136.88329 2.33769
1134.83485 2.34342
1132.78641 2.34687
1130.73797 2.34624
1128.68954 2.34597
1126.64110 2.34834
1124.59266 2.35085
1122.54422 2.35373
1120.49578 2.35647
1118.44734 2.35798
1116.39891 2.36016
1114.35047 2.36460
1112.30203 2.36910
1110.25359 2.37243
1108.20515 2.37875
1106.15671 2.38541
1104.10827 2.38465
1102.05984 2.38100
1100.01140 2.38375
1097.96296 2.39200
1095.91452 2.39970
1093.86608 2.40491
1091.81764 2.40904
1089.76921 2.41347
1087.72077 2.41819
1085.67233 2.42286
1083.62389 2.42607
1081.57545 2.42824
1079.52701 2.43241
1077.47858 2.43735
1075.43014 2.44262
1073.38170 2.44973
1071.33326 2.45604
1069.28482 2.46193
1067.23638 2.46746
1065.18795 2.46649
1063.13951 2.45968
1061.09107 2.45618
1059.04263 2.45813
1056.99419 2.45831
1054.94575 2.45469
1052.89732 2.45319
1050.84888 2.45473
1048.80044 2.45135
1046.75200 2.44159
1044.70356 2.43445
1042.65512 2.43323
1040.60669 2.43692
1038.55825 2.44163
1036.50981 2.43995
1034.46137 2.43397
1032.41293 2.43178
1030.36449 2.43307
1028.31606 2.43099
1026.26762 2.42657
1024.21918 2.42617
1022.17074 2.42674
1020.12230 2.42443
1018.07386 2.42263
1016.02543 2.42484
1013.97699 2.43114
1011.92855 2.43306
1009.88011 2.42649
1007.83167 2.42302
1005.78323 2.43041
1003.73480 2.44160
1001.68636 2.44351
999.63792 2.43485
997.58948 2.42643
995.54104 2.42434
993.49260 2.42816
991.44417 2.43428
989.39573 2.43780
987.34729 2.43882
985.29885 2.44151
983.25041 2.44746
981.20197 2.45357
979.15354 2.45730
977.10510 2.46280
975.05666 2.47305
973.00822 2.48193
970.95978 2.48386
968.91134 2.48088
966.86290 2.47916
964.81447 2.48471
962.76603 2.49311
960.71759 2.49818
958.66915 2.50366
956.62071 2.50824
954.57227 2.51103
952.52384 2.51711
950.47540 2.52157
948.42696 2.51805
946.37852 2.51567
944.33008 2.52140
942.28164 2.52672
940.23321 2.52525
938.18477 2.51747
936.13633 2.51242
934.08789 2.51842
932.03945 2.52309
929.99101 2.51560
927.94258 2.50634
925.89414 2.50862
923.84570 2.52389
921.79726 2.53846
919.74882 2.54205
917.70038 2.53956
915.65195 2.53348
913.60351 2.53025
911.55507 2.53448
909.50663 2.53425
907.45819 2.52785
905.40975 2.52307
903.36132 2.51927
901.31288 2.51897
899.26444 2.51923
897.21600 2.51155
895.16756 2.51093
893.11912 2.52829
891.07069 2.54105
889.02225 2.53471
886.97381 2.52114
884.92537 2.51143
882.87693 2.51251
880.82849 2.52207
878.78006 2.52287
876.73162 2.51277
874.68318 2.51003
872.63474 2.51580
870.58630 2.51599
868.53786 2.50997
866.48943 2.50765
864.44099 2.51258
862.39255 2.51934
860.34411 2.51891
858.29567 2.51052
856.24723 2.50391
854.19880 2.50829
852.15036 2.52235
850.10192 2.53600
848.05348 2.54000
846.00504 2.53447
843.95660 2.53507
841.90817 2.54916
839.85973 2.56459
837.81129 2.57519
835.76285 2.58048
833.71441 2.57778
831.66597 2.57364
829.61753 2.57231
827.56910 2.57164
825.52066 2.57825
823.47222 2.59758
821.42378 2.61828
819.37534 2.62474
817.32690 2.62896
815.27847 2.63934
813.23003 2.63899
811.18159 2.63184
809.13315 2.63199
807.08471 2.63868
805.03627 2.64624
802.98784 2.65348
800.93940 2.65657
798.89096 2.65905
796.84252 2.67336
794.79408 2.68969
792.74564 2.69533
790.69721 2.69303
788.64877 2.69550
786.60033 2.70676
784.55189 2.71243
782.50345 2.70913
780.45501 2.70580
778.40658 2.71009
776.35814 2.73038
774.30970 2.76514
772.26126 2.78164
770.21282 2.77092
768.16438 2.76995
766.11595 2.78043
764.06751 2.77586
762.01907 2.76515
759.97063 2.77372
757.92219 2.80263
755.87375 2.85381
753.82532 2.89637
751.77688 2.87701
749.72844 2.85986
747.68000 2.88887
745.63156 2.91925
743.58312 2.93885
741.53469 2.95373
739.48625 2.97070
737.43781 3.00747
735.38937 3.03910
733.34093 3.03267
731.29249 3.02352
729.24406 3.03642
727.19562 3.01490
725.14718 2.99101
723.09874 3.01547
721.05030 3.04664
719.00186 3.06135
716.95343 3.00999
714.90499 2.94462
712.85655 2.98396
710.80811 3.11594
708.75967 3.22391
706.71123 3.18499
704.66280 3.11392
702.61436 3.20448
700.56592 3.46746
698.51748 3.50222
696.46904 3.25879
694.42060 3.19695
692.37216 3.34521
690.32373 3.37517
688.27529 3.20583
686.22685 3.24584
684.17841 3.52090
682.12997 3.42133
680.08153 3.11875
678.03310 3.00269
675.98466 2.95857
673.93622 2.89028
671.88778 2.89957
669.83934 3.00239
667.79090 2.92739
665.74247 2.81313
663.69403 2.77668
661.64559 2.68155
659.59715 2.54766
657.54871 2.45674
655.50027 2.37659
653.45184 2.28077
651.40340 2.21802
649.35496 2.20175
647.30652 2.18649
645.25808 2.13612
643.20964 2.07235
641.16121 2.02777
639.11277 2.00426
637.06433 1.98602
635.01589 1.98063
632.96745 1.99091
630.91901 1.98680
628.87058 1.95540
626.82214 1.91214
624.77370 1.88803
622.72526 1.88435
620.67682 1.86908
618.62838 1.83730
616.57995 1.80598
614.53151 1.80045
612.48307 1.81473
610.43463 1.80641
608.38619 1.78692
606.33775 1.77174
604.28932 1.74355
602.24088 1.72084
600.19244 1.70601
598.14400 1.67981
