3996.50324 1.89431
3994.45480 1.89332
3992.40636 1.89443
3990.35792 1.89642
3988.30948 1.89690
3986.26104 1.89705
3984.21261 1.89716
3982.16417 1.89624
3980.11573 1.89562
3978.06729 1.89570
3976.01885 1.89499
3973.97041 1.89302
3971.92198 1.89231
3969.87354 1.89326
3967.82510 1.89330
3965.77666 1.89222
3963.72822 1.89103
3961.67978 1.88964
3959.63135 1.88809
3957.58291 1.88846
3955.53447 1.89118
3953.48603 1.89277
3951.43759 1.89172
3949.38915 1.89017
3947.34072 1.88986
3945.29228 1.89039
3943.24384 1.89121
3941.19540 1.89119
3939.14696 1.89030
3937.09852 1.89004
3935.05009 1.89010
3933.00165 1.89015
3930.95321 1.88955
3928.90477 1.88606
3926.85633 1.88255
3924.80789 1.88345
3922.75946 1.88681
3920.71102 1.88837
3918.66258 1.88953
3916.61414 1.88975
3914.56570 1.88677
3912.51726 1.88524
3910.46883 1.88611
3908.42039 1.88618
3906.37195 1.88594
3904.32351 1.88623
3902.27507 1.88566
3900.22663 1.88187
3898.17820 1.87897
3896.12976 1.88085
3894.08132 1.88329
3892.03288 1.88273
3889.98444 1.87991
3887.93600 1.87811
3885.88756 1.87920
3883.83913 1.88374
3881.79069 1.88687
3879.74225 1.88514
3877.69381 1.88280
3875.64537 1.88259
3873.59693 1.88215
3871.54850 1.88051
3869.50006 1.87943
3867.45162 1.87996
3865.40318 1.88101
3863.35474 1.88059
3861.30630 1.87846
3859.25787 1.87760
3857.20943 1.88096
3855.16099 1.88789
3853.11255 1.88415
3851.06411 1.87188
3849.01567 1.86992
3846.96724 1.87349
3844.91880 1.87764
3842.87036 1.87746
3840.82192 1.87485
3838.77348 1.87685
3836.72504 1.87868
3834.67661 1.87808
3832.62817 1.87871
3830.57973 1.87912
3828.53129 1.88022
3826.48285 1.88244
3824.43441 1.88347
3822.38598 1.88185
3820.33754 1.87858
3818.28910 1.87889
3816.24066 1.87972
3814.19222 1.87774
3812.14378 1.87576
3810.09535 1.87512
3808.04691 1.87558
3805.99847 1.87575
3803.95003 1.87536
3801.90159 1.87542
3799.85315 1.87622
3797.80472 1.87812
3795.75628 1.88002
3793.70784 1.87979
3791.65940 1.87772
3789.61096 1.87434
3787.56252 1.87246
3785.51409 1.87469
3783.46565 1.87699
3781.41721 1.87648
3779.36877 1.87531
3777.32033 1.87548
3775.27189 1.87678
3773.22346 1.87727
3771.17502 1.87516
3769.12658 1.87353
3767.07814 1.87578
3765.02970 1.87727
3762.98126 1.87649
3760.93283 1.87474
3758.88439 1.87369
3756.83595 1.87468
3754.78751 1.87734
3752.73907 1.88116
3750.69063 1.87905
3748.64219 1.87482
3746.59376 1.87410
3744.54532 1.87137
3742.49688 1.87286
3740.44844 1.87834
3738.40000 1.88121
3736.35156 1.87766
3734.30313 1.87363
3732.25469 1.87884
3730.20625 1.88483
3728.15781 1.88522
3726.10937 1.88165
3724.06093 1.88071
3722.01250 1.88286
3719.96406 1.88539
3717.91562 1.88861
3715.86718 1.89165
3713.81874 1.89429
3711.77030 1.89853
3709.72187 1.90540
3707.67343 1.91275
3705.62499 1.92101
3703.57655 1.92882
3701.52811 1.93487
3699.47967 1.93965
3697.43124 1.94217
3695.38280 1.94248
3693.33436 1.94260
3691.28592 1.94297
3689.23748 1.94021
3687.18904 1.93917
3685.14061 1.94271
3683.09217 1.94476
3681.04373 1.94399
3678.99529 1.94388
3676.94685 1.94790
3674.89841 1.95197
3672.84998 1.95098
3670.80154 1.95302
3668.75310 1.96256
3666.70466 1.97078
3664.65622 1.97562
3662.60778 1.98042
3660.55935 1.98607
3658.51091 1.99223
3656.46247 1.99755
3654.41403 2.00039
3652.36559 2.00559
3650.31715 2.01655
3648.26872 2.02542
3646.22028 2.03009
3644.17184 2.03826
3642.12340 2.04890
3640.07496 2.05697
3638.02652 2.05963
3635.97809 2.06266
3633.92965 2.07166
3631.88121 2.08157
3629.83277 2.08832
3627.78433 2.09668
3625.73589 2.10411
3623.68746 2.10948
3621.63902 2.11255
3619.59058 2.11142
3617.54214 2.10997
3615.49370 2.11505
3613.44526 2.12596
3611.39682 2.13678
3609.34839 2.14086
3607.29995 2.14107
3605.25151 2.14579
3603.20307 2.15326
3601.15463 2.15866
3599.10619 2.16232
3597.05776 2.16860
3595.00932 2.17514
3592.96088 2.17516
3590.91244 2.17020
3588.86400 2.16593
3586.81556 2.16855
3584.76713 2.17667
3582.71869 2.18230
3580.67025 2.18395
3578.62181 2.18440
3576.57337 2.18719
3574.52493 2.19224
3572.47650 2.19684
3570.42806 2.19832
3568.37962 2.19658
3566.33118 2.19886
3564.28274 2.20591
3562.23430 2.21091
3560.18587 2.21608
3558.13743 2.22256
3556.08899 2.22735
3554.04055 2.22725
3551.99211 2.22323
3549.94367 2.22219
3547.89524 2.22580
3545.84680 2.23270
3543.79836 2.24078
3541.74992 2.24177
3539.70148 2.23756
3537.65304 2.23803
3535.60461 2.24481
3533.55617 2.25033
3531.50773 2.25113
3529.45929 2.25201
3527.41085 2.25623
3525.36241 2.26166
3523.31398 2.26616
3521.26554 2.26676
3519.21710 2.26488
3517.16866 2.26614
3515.12022 2.26999
3513.07178 2.27117
3511.02335 2.26973
3508.97491 2.27100
3506.92647 2.27218
3504.87803 2.26878
3502.82959 2.26888
3500.78115 2.27575
3498.73272 2.27938
3496.68428 2.27680
3494.63584 2.27419
3492.58740 2.27543
3490.53896 2.28120
3488.49052 2.28774
3486.44209 2.28820
3484.39365 2.28650
3482.34521 2.28797
3480.29677 2.28912
3478.24833 2.28725
3476.19989 2.28577
3474.15146 2.28760
3472.10302 2.29053
3470.05458 2.29209
3468.00614 2.29444
3465.95770 2.30023
3463.90926 2.30618
3461.86082 2.30703
3459.81239 2.30273
3457.76395 2.29846
3455.71551 2.29637
3453.66707 2.29559
3451.61863 2.29796
3449.57019 2.30242
3447.52176 2.30417
3445.47332 2.30095
3443.42488 2.29859
3441.37644 2.30065
3439.32800 2.30059
3437.27956 2.29963
3435.23113 2.30438
3433.18269 2.30863
3431.13425 2.30593
3429.08581 2.30262
3427.03737 2.30335
3424.98893 2.30490
3422.94050 2.30528
3420.89206 2.30561
3418.84362 2.30469
3416.79518 2.30215
3414.74674 2.30233
3412.69830 2.30473
3410.64987 2.30372
3408.60143 2.30003
3406.55299 2.29931
3404.50455 2.30012
3402.45611 2.29841
3400.40767 2.29629
3398.35924 2.29496
3396.31080 2.29409
3394.26236 2.29481
3392.21392 2.29716
3390.16548 2.29862
3388.11704 2.29799
3386.06861 2.29870
3384.02017 2.30361
3381.97173 2.30899
3379.92329 2.30856
3377.87485 2.30232
3375.82641 2.29694
3373.77798 2.29712
3371.72954 2.29977
3369.68110 2.30103
3367.63266 2.30014
3365.58422 2.29675
3363.53578 2.29335
3361.48735 2.29326
3359.43891 2.29421
3357.39047 2.29223
3355.34203 2.28957
3353.29359 2.28892
3351.24515 2.28849
3349.19672 2.28778
3347.14828 2.28851
3345.09984 2.29040
3343.05140 2.29185
3341.00296 2.29411
3338.95452 2.29503
3336.90609 2.28930
3334.85765 2.28361
3332.80921 2.28674
3330.76077 2.29255
3328.71233 2.29190
3326.66389 2.28687
3324.61545 2.28208
3322.56702 2.27767
3320.51858 2.27532
3318.47014 2.27794
3316.42170 2.28382
3314.37326 2.28840
3312.32482 2.29053
3310.27639 2.28858
3308.22795 2.28167
3306.17951 2.27609
3304.13107 2.27697
3302.08263 2.28066
3300.03419 2.28190
3297.98576 2.28223
3295.93732 2.28142
3293.88888 2.27678
3291.84044 2.27289
3289.79200 2.27305
3287.74356 2.27348
3285.69513 2.27477
3283.64669 2.27809
3281.59825 2.27768
3279.54981 2.27356
3277.50137 2.27180
3275.45293 2.27360
3273.40450 2.27475
3271.35606 2.27353
3269.30762 2.27168
3267.25918 2.27065
3265.21074 2.27234
3263.16230 2.27456
3261.11387 2.27457
3259.06543 2.27412
3257.01699 2.27204
3254.96855 2.26615
3252.92011 2.26226
3250.87167 2.26385
3248.82324 2.26612
3246.77480 2.26888
3244.72636 2.27220
3242.67792 2.26976
3240.62948 2.26216
3238.58104 2.25674
3236.53261 2.25469
3234.48417 2.25462
3232.43573 2.25627
3230.38729 2.25980
3228.33885 2.26494
3226.29041 2.26708
3224.24198 2.26572
3222.19354 2.26390
3220.14510 2.26206
3218.09666 2.25882
3216.04822 2.25488
3213.99978 2.25422
3211.95135 2.25522
3209.90291 2.25403
3207.85447 2.25186
3205.80603 2.25263
3203.75759 2.25509
3201.70915 2.25576
3199.66072 2.25664
3197.61228 2.25960
3195.56384 2.26281
3193.51540 2.26143
3191.46696 2.25357
3189.41852 2.24461
3187.37008 2.24111
3185.32165 2.24345
3183.27321 2.24675
3181.22477 2.24842
3179.17633 2.24972
3177.12789 2.24912
3175.07945 2.24454
3173.03102 2.24032
3170.98258 2.23882
3168.93414 2.23772
3166.88570 2.23765
3164.83726 2.23963
3162.78882 2.23939
3160.74039 2.23450
3158.69195 2.23107
3156.64351 2.23197
3154.59507 2.23190
3152.54663 2.22888
3150.49819 2.22693
3148.44976 2.22694
3146.40132 2.22756
3144.35288 2.23060
3142.30444 2.23353
3140.25600 2.23070
3138.20756 2.22447
3136.15913 2.21918
3134.11069 2.21463
3132.06225 2.21117
3130.01381 2.21180
3127.96537 2.21519
3125.91693 2.21446
3123.86850 2.20958
3121.82006 2.20737
3119.77162 2.20915
3117.72318 2.21116
3115.67474 2.21139
3113.62630 2.21071
3111.57787 2.21076
3109.52943 2.21077
3107.48099 2.20743
3105.43255 2.20187
3103.38411 2.19933
3101.33567 2.20056
3099.28724 2.20100
3097.23880 2.19905
3095.19036 2.19778
3093.14192 2.19779
3091.09348 2.19681
3089.04504 2.19405
3086.99661 2.19184
3084.94817 2.19200
3082.89973 2.19222
3080.85129 2.19133
3078.80285 2.19017
3076.75441 2.18826
3074.70598 2.18721
3072.65754 2.18859
3070.60910 2.18964
3068.56066 2.18785
3066.51222 2.18510
3064.46378 2.18530
3062.41535 2.18792
3060.36691 2.18782
3058.31847 2.18431
3056.27003 2.18093
3054.22159 2.17868
3052.17315 2.17779
3050.12471 2.17982
3048.07628 2.18310
3046.02784 2.18287
3043.97940 2.17892
3041.93096 2.17401
3039.88252 2.16965
3037.83408 2.16892
3035.78565 2.17150
3033.73721 2.17222
3031.68877 2.17002
3029.64033 2.16705
3027.59189 2.16587
3025.54345 2.16727
3023.49502 2.16705
3021.44658 2.16523
3019.39814 2.16658
3017.34970 2.16928
3015.30126 2.16807
3013.25282 2.16272
3011.20439 2.15882
3009.15595 2.15898
3007.10751 2.15803
3005.05907 2.15432
3003.01063 2.15211
3000.96219 2.15351
2998.91376 2.15526
2996.86532 2.15404
2994.81688 2.15290
2992.76844 2.15287
2990.72000 2.15154
2988.67156 2.15077
2986.62313 2.15154
2984.57469 2.15131
2982.52625 2.15031
2980.47781 2.14877
2978.42937 2.14455
2976.38093 2.13882
2974.33250 2.13470
2972.28406 2.13341
2970.23562 2.13478
2968.18718 2.13736
2966.13874 2.13780
2964.09030 2.13587
2962.04187 2.13446
2959.99343 2.13425
2957.94499 2.13402
2955.89655 2.13179
2953.84811 2.12825
2951.79967 2.12657
2949.75124 2.12663
2947.70280 2.12565
2945.65436 2.12575
2943.60592 2.12937
2941.55748 2.13233
2939.50904 2.13346
2937.46061 2.13383
2935.41217 2.13203
2933.36373 2.12964
2931.31529 2.12820
2929.26685 2.12749
2927.21841 2.12761
2925.16998 2.12757
2923.12154 2.12572
2921.07310 2.12295
2919.02466 2.12207
2916.97622 2.12283
2914.92778 2.12197
2912.87934 2.11853
2910.83091 2.11441
2908.78247 2.11024
2906.73403 2.10741
2904.68559 2.10791
2902.63715 2.10907
2900.58871 2.10815
2898.54028 2.10492
2896.49184 2.10191
2894.44340 2.10298
2892.39496 2.10489
2890.34652 2.10355
2888.29808 2.10004
2886.24965 2.09570
2884.20121 2.09230
2882.15277 2.09087
2880.10433 2.08993
2878.05589 2.08942
2876.00745 2.09051
2873.95902 2.09140
2871.91058 2.09001
2869.86214 2.08640
2867.81370 2.08304
2865.76526 2.08318
2863.71682 2.08533
2861.66839 2.08591
2859.61995 2.08467
2857.57151 2.08236
2855.52307 2.07950
2853.47463 2.07795
2851.42619 2.07779
2849.37776 2.07614
2847.32932 2.07244
2845.28088 2.06915
2843.23244 2.06662
2841.18400 2.06484
2839.13556 2.06446
2837.08713 2.06405
2835.03869 2.06297
2832.99025 2.06201
2830.94181 2.06078
2828.89337 2.05811
2826.84493 2.05501
2824.79650 2.05272
2822.74806 2.05160
2820.69962 2.05240
2818.65118 2.05266
2816.60274 2.05127
2814.55430 2.05080
2812.50587 2.05108
2810.45743 2.04982
2808.40899 2.04671
2806.36055 2.04489
2804.31211 2.04610
2802.26367 2.04702
2800.21524 2.04619
2798.16680 2.04489
2796.11836 2.04308
2794.06992 2.04088
2792.02148 2.03918
2789.97304 2.03844
2787.92461 2.03696
2785.87617 2.03418
2783.82773 2.03204
2781.77929 2.03129
2779.73085 2.03091
2777.68241 2.03013
2775.63397 2.02960
2773.58554 2.02907
2771.53710 2.02743
2769.48866 2.02454
2767.44022 2.02115
2765.39178 2.01720
2763.34334 2.01348
2761.29491 2.01271
2759.24647 2.01403
2757.19803 2.01434
2755.14959 2.01297
2753.10115 2.01152
2751.05271 2.01135
2749.00428 2.01181
2746.95584 2.01147
2744.90740 2.01013
2742.85896 2.00855
2740.81052 2.00690
2738.76208 2.00537
2736.71365 2.00377
2734.66521 2.00166
2732.61677 2.00068
2730.56833 2.00186
2728.51989 2.00304
2726.47145 2.00255
2724.42302 2.00060
2722.37458 1.99889
2720.32614 1.99939
2718.27770 2.00024
2716.22926 1.99828
2714.18082 1.99474
2712.13239 1.99259
2710.08395 1.99146
2708.03551 1.98981
2705.98707 1.98880
2703.93863 1.98973
2701.89019 1.99028
2699.84176 1.98932
2697.79332 1.98916
2695.74488 1.98875
2693.69644 1.98698
2691.64800 1.98544
2689.59956 1.98372
2687.55113 1.98195
2685.50269 1.98170
2683.45425 1.98191
2681.40581 1.98105
2679.35737 1.98044
2677.30893 1.98004
2675.26050 1.97853
2673.21206 1.97691
2671.16362 1.97563
2669.11518 1.97396
2667.06674 1.97211
2665.01830 1.97098
2662.96987 1.97027
2660.92143 1.96871
2658.87299 1.96726
2656.82455 1.96656
2654.77611 1.96593
2652.72767 1.96557
2650.67924 1.96389
2648.63080 1.96059
2646.58236 1.95867
2644.53392 1.95847
2642.48548 1.95709
2640.43704 1.95392
2638.38860 1.95139
2636.34017 1.94957
2634.29173 1.94691
2632.24329 1.94460
2630.19485 1.94364
2628.14641 1.94283
2626.09797 1.94203
2624.04954 1.94102
2622.00110 1.93986
2619.95266 1.93999
2617.90422 1.94010
2615.85578 1.93844
2613.80734 1.93625
2611.75891 1.93435
2609.71047 1.93150
2607.66203 1.92865
2605.61359 1.92839
2603.56515 1.92866
2601.51671 1.92649
2599.46828 1.92440
2597.41984 1.92544
2595.37140 1.92713
2593.32296 1.92587
2591.27452 1.92309
2589.22608 1.92120
2587.17765 1.91958
2585.12921 1.91818
2583.08077 1.91878
2581.03233 1.92035
2578.98389 1.92001
2576.93545 1.91939
2574.88702 1.92018
2572.83858 1.92010
2570.79014 1.91926
2568.74170 1.91858
2566.69326 1.91739
2564.64482 1.91685
2562.59639 1.91686
2560.54795 1.91587
2558.49951 1.91423
2556.45107 1.91278
2554.40263 1.91312
2552.35419 1.91553
2550.30576 1.91643
2548.25732 1.91476
2546.20888 1.91270
2544.16044 1.91130
2542.11200 1.91042
2540.06356 1.90960
2538.01513 1.90973
2535.96669 1.91111
2533.91825 1.91179
2531.86981 1.91060
2529.82137 1.90872
2527.77293 1.90762
2525.72450 1.90673
2523.67606 1.90479
2521.62762 1.90307
2519.57918 1.90297
2517.53074 1.90299
2515.48230 1.90169
2513.43387 1.90040
2511.38543 1.90011
2509.33699 1.89940
2507.28855 1.89798
2505.24011 1.89705
2503.19167 1.89753
2501.14324 1.89925
2499.09480 1.89988
2497.04636 1.89915
2494.99792 1.89837
2492.94948 1.89716
2490.90104 1.89595
2488.85260 1.89508
2486.80417 1.89459
2484.75573 1.89493
2482.70729 1.89508
2480.65885 1.89397
2478.61041 1.89200
2476.56197 1.89036
2474.51354 1.88922
2472.46510 1.88800
2470.41666 1.88662
2468.36822 1.88524
2466.31978 1.88445
2464.27134 1.88385
2462.22291 1.88245
2460.17447 1.88090
2458.12603 1.88065
2456.07759 1.88134
2454.02915 1.88099
2451.98071 1.87968
2449.93228 1.87912
2447.88384 1.87901
2445.83540 1.87786
2443.78696 1.87626
2441.73852 1.87573
2439.69008 1.87528
2437.64165 1.87397
2435.59321 1.87373
2433.54477 1.87463
2431.49633 1.87419
2429.44789 1.87312
2427.39945 1.87236
2425.35102 1.87076
2423.30258 1.86896
2421.25414 1.86847
2419.20570 1.86868
2417.15726 1.86840
2415.10882 1.86777
2413.06039 1.86670
2411.01195 1.86554
2408.96351 1.86538
2406.91507 1.86595
2404.86663 1.86610
2402.81819 1.86531
2400.76976 1.86432
2398.72132 1.86370
2396.67288 1.86302
2394.62444 1.86220
2392.57600 1.86190
2390.52756 1.86207
2388.47913 1.86205
2386.43069 1.86198
2384.38225 1.86198
2382.33381 1.86160
2380.28537 1.86223
2378.23693 1.86449
2376.18850 1.86527
2374.14006 1.86377
2372.09162 1.86272
2370.04318 1.86337
2367.99474 1.86154
2365.94630 1.85445
2363.89787 1.84959
2361.84943 1.84753
2359.80099 1.84619
2357.75255 1.85054
2355.70411 1.85531
2353.65567 1.85587
2351.60723 1.85623
2349.55880 1.85773
2347.51036 1.85873
2345.46192 1.85721
2343.41348 1.85232
2341.36504 1.84693
2339.31660 1.84383
2337.26817 1.84198
2335.21973 1.84150
2333.17129 1.84409
2331.12285 1.84788
2329.07441 1.85071
2327.02597 1.85120
2324.97754 1.84973
2322.92910 1.84791
2320.88066 1.84713
2318.83222 1.84769
2316.78378 1.84644
2314.73534 1.84388
2312.68691 1.84292
2310.63847 1.84268
2308.59003 1.84285
2306.54159 1.84386
2304.49315 1.84356
2302.44471 1.84095
2300.39628 1.83787
2298.34784 1.83594
2296.29940 1.83507
2294.25096 1.83512
2292.20252 1.83619
2290.15408 1.83738
2288.10565 1.83743
2286.05721 1.83578
2284.00877 1.83407
2281.96033 1.83476
2279.91189 1.83661
2277.86345 1.83719
2275.81502 1.83707
2273.76658 1.83707
2271.71814 1.83687
2269.66970 1.83687
2267.62126 1.83746
2265.57282 1.83838
2263.52439 1.83888
2261.47595 1.83761
2259.42751 1.83503
2257.37907 1.83317
2255.33063 1.83278
2253.28219 1.83324
2251.23376 1.83400
2249.18532 1.83423
2247.13688 1.83328
2245.08844 1.83274
2243.04000 1.83322
2240.99156 1.83363
2238.94313 1.83399
2236.89469 1.83437
2234.84625 1.83453
2232.79781 1.83472
2230.74937 1.83495
2228.70093 1.83508
2226.65250 1.83500
2224.60406 1.83455
2222.55562 1.83376
2220.50718 1.83283
2218.45874 1.83208
2216.41030 1.83178
2214.36186 1.83218
2212.31343 1.83318
2210.26499 1.83357
2208.21655 1.83290
2206.16811 1.83233
2204.11967 1.83271
2202.07123 1.83390
2200.02280 1.83529
2197.97436 1.83559
2195.92592 1.83417
2193.87748 1.83216
2191.82904 1.83074
2189.78060 1.83005
2187.73217 1.82960
2185.68373 1.82899
2183.63529 1.82796
2181.58685 1.82719
2179.53841 1.82736
2177.48997 1.82770
2175.44154 1.82796
2173.39310 1.82828
2171.34466 1.82811
2169.29622 1.82785
2167.24778 1.82872
2165.19934 1.82974
2163.15091 1.82948
2161.10247 1.82841
2159.05403 1.82703
2157.00559 1.82604
2154.95715 1.82568
2152.90871 1.82507
2150.86028 1.82410
2148.81184 1.82338
2146.76340 1.82297
2144.71496 1.82195
2142.66652 1.82099
2140.61808 1.82126
2138.56965 1.82114
2136.52121 1.81984
2134.47277 1.81860
2132.42433 1.81829
2130.37589 1.81869
2128.32745 1.81853
2126.27902 1.81833
2124.23058 1.81870
2122.18214 1.81872
2120.13370 1.81849
2118.08526 1.81837
2116.03682 1.81802
2113.98839 1.81753
2111.93995 1.81799
2109.89151 1.81910
2107.84307 1.81930
2105.79463 1.81884
2103.74619 1.81810
2101.69776 1.81668
2099.64932 1.81517
2097.60088 1.81472
2095.55244 1.81480
2093.50400 1.81402
2091.45556 1.81376
2089.40713 1.81458
2087.35869 1.81480
2085.31025 1.81471
2083.26181 1.81474
2081.21337 1.81442
2079.16493 1.81390
2077.11649 1.81357
2075.06806 1.81362
2073.01962 1.81366
2070.97118 1.81378
2068.92274 1.81382
2066.87430 1.81329
2064.82586 1.81345
2062.77743 1.81454
2060.72899 1.81448
2058.68055 1.81358
2056.63211 1.81371
2054.58367 1.81489
2052.53523 1.81625
2050.48680 1.81742
2048.43836 1.81787
2046.38992 1.81753
2044.34148 1.81745
2042.29304 1.81726
2040.24460 1.81618
2038.19617 1.81473
2036.14773 1.81319
2034.09929 1.81131
2032.05085 1.80914
2030.00241 1.80717
2027.95397 1.80534
2025.90554 1.80367
2023.85710 1.80288
2021.80866 1.80316
2019.76022 1.80351
2017.71178 1.80286
2015.66334 1.80218
2013.61491 1.80298
2011.56647 1.80493
2009.51803 1.80701
2007.46959 1.80799
2005.42115 1.80775
2003.37271 1.80772
2001.32428 1.80837
1999.27584 1.80905
1997.22740 1.80933
1995.17896 1.80875
1993.13052 1.80749
1991.08208 1.80708
1989.03365 1.80761
1986.98521 1.80785
1984.93677 1.80758
1982.88833 1.80755
1980.83989 1.80805
1978.79145 1.80810
1976.74302 1.80754
1974.69458 1.80771
1972.64614 1.80858
1970.59770 1.80784
1968.54926 1.80545
1966.50082 1.80434
1964.45239 1.80501
1962.40395 1.80552
1960.35551 1.80536
1958.30707 1.80471
1956.25863 1.80464
1954.21019 1.80540
1952.16176 1.80525
1950.11332 1.80440
1948.06488 1.80421
1946.01644 1.80485
1943.96800 1.80584
1941.91956 1.80691
1939.87112 1.80756
1937.82269 1.80726
1935.77425 1.80707
1933.72581 1.80761
1931.67737 1.80760
1929.62893 1.80610
1927.58049 1.80397
1925.53206 1.80262
1923.48362 1.80185
1921.43518 1.80074
1919.38674 1.79941
1917.33830 1.79858
1915.28986 1.79830
1913.24143 1.79779
1911.19299 1.79706
1909.14455 1.79672
1907.09611 1.79637
1905.04767 1.79513
1902.99923 1.79351
1900.95080 1.79276
1898.90236 1.79338
1896.85392 1.79456
1894.80548 1.79484
1892.75704 1.79445
1890.70860 1.79453
1888.66017 1.79504
1886.61173 1.79554
1884.56329 1.79589
1882.51485 1.79636
1880.46641 1.79715
1878.41797 1.79767
1876.36954 1.79697
1874.32110 1.79525
1872.27266 1.79309
1870.22422 1.79072
1868.17578 1.78996
1866.12734 1.79119
1864.07891 1.79201
1862.03047 1.79242
1859.98203 1.79324
1857.93359 1.79464
1855.88515 1.79577
1853.83671 1.79603
1851.78828 1.79560
1849.73984 1.79506
1847.69140 1.79473
1845.64296 1.79432
1843.59452 1.79455
1841.54608 1.79533
1839.49765 1.79503
1837.44921 1.79418
1835.40077 1.79460
1833.35233 1.79623
1831.30389 1.79721
1829.25545 1.79687
1827.20702 1.79708
1825.15858 1.79884
1823.11014 1.80047
1821.06170 1.80091
1819.01326 1.80174
1816.96482 1.80301
1814.91639 1.80309
1812.86795 1.80151
1810.81951 1.79976
1808.77107 1.79973
1806.72263 1.80031
1804.67419 1.80016
1802.62575 1.80028
1800.57732 1.80127
1798.52888 1.80163
1796.48044 1.80212
1794.43200 1.80395
1792.38356 1.80635
1790.33512 1.80907
1788.28669 1.81140
1786.23825 1.81265
1784.18981 1.81344
1782.14137 1.81382
1780.09293 1.81339
1778.04449 1.81290
1775.99606 1.81274
1773.94762 1.81218
1771.89918 1.81211
1769.85074 1.81547
1767.80230 1.81957
1765.75386 1.82188
1763.70543 1.82245
1761.65699 1.82222
1759.60855 1.82347
1757.56011 1.82696
1755.51167 1.83155
1753.46323 1.83508
1751.41480 1.83786
1749.36636 1.84197
1747.31792 1.84659
1745.26948 1.85018
1743.22104 1.85252
1741.17260 1.85467
1739.12417 1.85850
1737.07573 1.86137
1735.02729 1.86237
1732.97885 1.86496
1730.93041 1.86791
1728.88197 1.87058
1726.83354 1.87403
1724.78510 1.87818
1722.73666 1.88263
1720.68822 1.88643
1718.63978 1.88938
1716.59134 1.89291
1714.54291 1.89951
1712.49447 1.90620
1710.44603 1.91111
1708.39759 1.91566
1706.34915 1.92214
1704.30071 1.92899
1702.25228 1.93342
1700.20384 1.93997
1698.15540 1.95245
1696.10696 1.96467
1694.05852 1.97333
1692.01008 1.97962
1689.96165 1.98676
1687.91321 1.99477
1685.86477 2.00427
1683.81633 2.01643
1681.76789 2.02112
1679.71945 2.02438
1677.67102 2.03029
1675.62258 2.03665
1673.57414 2.04232
1671.52570 2.04833
1669.47726 2.05618
1667.42882 2.06279
1665.38038 2.06609
1663.33195 2.06977
1661.28351 2.07631
1659.23507 2.08318
1657.18663 2.08901
1655.13819 2.09457
1653.08975 2.10123
1651.04132 2.10397
1648.99288 2.10443
1646.94444 2.10536
1644.89600 2.10803
1642.84756 2.11079
1640.79912 2.11316
1638.75069 2.11456
1636.70225 2.11400
1634.65381 2.11465
1632.60537 2.11667
1630.55693 2.11745
1628.50849 2.11680
1626.46006 2.11466
1624.41162 2.11045
1622.36318 2.10342
1620.31474 2.09846
1618.26630 2.09690
1616.21786 2.09437
1614.16943 2.08928
1612.12099 2.08495
1610.07255 2.08087
1608.02411 2.07639
1605.97567 2.07287
1603.92723 2.06948
1601.87880 2.06418
1599.83036 2.05835
1597.78192 2.05406
1595.73348 2.05045
1593.68504 2.04629
1591.63660 2.04298
1589.58817 2.04157
1587.53973 2.04128
1585.49129 2.04163
1583.44285 2.04235
1581.39441 2.04306
1579.34597 2.04500
1577.29754 2.04814
1575.24910 2.04792
1573.20066 2.04618
1571.15222 2.04578
1569.10378 2.04394
1567.05534 2.04263
1565.00691 2.04434
1562.95847 2.04578
1560.91003 2.04549
1558.86159 2.04725
1556.81315 2.05026
1554.76471 2.05038
1552.71628 2.05038
1550.66784 2.05023
1548.61940 2.04981
1546.57096 2.04995
1544.52252 2.05105
1542.47408 2.05299
1540.42565 2.05457
1538.37721 2.05552
1536.32877 2.05637
1534.28033 2.05641
1532.23189 2.05556
1530.18345 2.05477
1528.13501 2.05412
1526.08658 2.05499
1524.03814 2.05547
1521.98970 2.04882
1519.94126 2.04133
1517.89282 2.04010
1515.84438 2.03726
1513.79595 2.03171
1511.74751 2.02680
1509.69907 2.02397
1507.65063 2.02502
1505.60219 2.02323
1503.55375 2.01732
1501.50532 2.01377
1499.45688 2.01347
1497.40844 2.01313
1495.36000 2.00904
1493.31156 2.00648
1491.26312 2.00694
1489.21469 2.00572
1487.16625 2.00226
1485.11781 2.00137
1483.06937 2.00122
1481.02093 1.99943
1478.97249 1.99667
1476.92406 1.99491
1474.87562 1.99460
1472.82718 1.99681
1470.77874 1.99993
1468.73030 2.00099
1466.68186 2.00135
1464.63343 2.00236
1462.58499 2.00417
1460.53655 2.00649
1458.48811 2.00886
1456.43967 2.00755
1454.39123 2.00503
1452.34280 2.00395
1450.29436 2.00260
1448.24592 2.00153
1446.19748 2.00177
1444.14904 2.00237
1442.10060 2.00295
1440.05217 2.00320
1438.00373 2.00367
1435.95529 2.00609
1433.90685 2.00906
1431.85841 2.01087
1429.80997 2.01193
1427.76154 2.01319
1425.71310 2.01408
1423.66466 2.01365
1421.61622 2.01316
1419.56778 2.01499
1417.51934 2.01834
1415.47091 2.01962
1413.42247 2.02010
1411.37403 2.02023
1409.32559 2.01869
1407.27715 2.01631
1405.22871 2.01530
1403.18028 2.01566
1401.13184 2.01549
1399.08340 2.01417
1397.03496 2.01272
1394.98652 2.01162
1392.93808 2.00961
1390.88965 2.00662
1388.84121 2.00382
1386.79277 2.00294
1384.74433 2.00375
1382.69589 2.00424
1380.64745 2.00366
1378.59901 2.00236
1376.55058 2.00098
1374.50214 1.99972
1372.45370 1.99854
1370.40526 1.99761
1368.35682 1.99737
1366.30838 1.99774
1364.25995 1.99828
1362.21151 1.99903
1360.16307 1.99970
1358.11463 1.99939
1356.06619 1.99841
1354.01775 1.99818
1351.96932 1.99838
1349.92088 1.99780
1347.87244 1.99645
1345.82400 1.99471
1343.77556 1.99343
1341.72712 1.99285
1339.67869 1.99238
1337.63025 1.99184
1335.58181 1.99241
1333.53337 1.99442
1331.48493 1.99565
1329.43649 1.99518
1327.38806 1.99525
1325.33962 1.99735
1323.29118 2.00120
1321.24274 2.00576
1319.19430 2.00919
1317.14586 2.01075
1315.09743 2.01232
1313.04899 2.01434
1311.00055 2.01578
1308.95211 2.01712
1306.90367 2.01787
1304.85523 2.01706
1302.80680 2.01596
1300.75836 2.01543
1298.70992 2.01509
1296.66148 2.01483
1294.61304 2.01428
1292.56460 2.01352
1290.51617 2.01474
1288.46773 2.01879
1286.41929 2.02214
1284.37085 2.02294
1282.32241 2.02443
1280.27397 2.02816
1278.22554 2.03156
1276.17710 2.03392
1274.12866 2.03681
1272.08022 2.04072
1270.03178 2.04528
1267.98334 2.04938
1265.93491 2.05325
1263.88647 2.05805
1261.83803 2.06300
1259.78959 2.06760
1257.74115 2.07159
1255.69271 2.07417
1253.64428 2.07617
1251.59584 2.07878
1249.54740 2.08290
1247.49896 2.08851
1245.45052 2.09437
1243.40208 2.09930
1241.35364 2.10277
1239.30521 2.10626
1237.25677 2.11151
1235.20833 2.11807
1233.15989 2.12466
1231.11145 2.13109
1229.06301 2.13687
1227.01458 2.14217
1224.96614 2.14895
1222.91770 2.15692
1220.86926 2.16345
1218.82082 2.16879
1216.77238 2.17562
1214.72395 2.18411
1212.67551 2.19286
1210.62707 2.20087
1208.57863 2.20836
1206.53019 2.21751
1204.48175 2.22745
1202.43332 2.23602
1200.38488 2.24520
1198.33644 2.25567
1196.28800 2.26543
1194.23956 2.27365
1192.19112 2.28164
1190.14269 2.29269
1188.09425 2.30600
1186.04581 2.31689
1183.99737 2.32577
1181.94893 2.33556
1179.90049 2.34661
1177.85206 2.35904
1175.80362 2.37071
1173.75518 2.38033
1171.70674 2.39112
1169.65830 2.40207
1167.60986 2.41122
1165.56143 2.42107
1163.51299 2.42989
1161.46455 2.43603
1159.41611 2.44694
1157.36767 2.46153
1155.31923 2.46740
1153.27080 2.46867
1151.22236 2.47634
1149.17392 2.48901
1147.12548 2.50195
1145.07704 2.51156
1143.02860 2.51618
1140.98017 2.51783
1138.93173 2.52043
1136.88329 2.52741
1134.83485 2.53741
1132.78641 2.54355
1130.73797 2.54436
1128.68954 2.54603
1126.64110 2.54761
1124.59266 2.54534
1122.54422 2.54373
1120.49578 2.54641
1118.44734 2.55034
1116.39891 2.54969
1114.35047 2.54475
1112.30203 2.54146
1110.25359 2.54306
1108.20515 2.54790
1106.15671 2.55137
1104.10827 2.55355
1102.05984 2.55405
1100.01140 2.55096
1097.96296 2.54895
1095.91452 2.54977
1093.86608 2.55117
1091.81764 2.55490
1089.76921 2.56036
1087.72077 2.56302
1085.67233 2.56571
1083.62389 2.57279
1081.57545 2.57927
1079.52701 2.58197
1077.47858 2.58698
1075.43014 2.59576
1073.38170 2.60163
1071.33326 2.60081
1069.28482 2.59398
1067.23638 2.58256
1065.18795 2.57178
1063.13951 2.56578
1061.09107 2.56049
1059.04263 2.55222
1056.99419 2.53931
1054.94575 2.52304
1052.89732 2.50998
1050.84888 2.50429
1048.80044 2.50321
1046.75200 2.49859
1044.70356 2.48999
1042.65512 2.48398
1040.60669 2.47699
1038.55825 2.46334
1036.50981 2.45070
1034.46137 2.44748
1032.41293 2.44906
1030.36449 2.44903
1028.31606 2.44938
1026.26762 2.45154
1024.21918 2.45380
1022.17074 2.45625
1020.12230 2.45748
1018.07386 2.45613
1016.02543 2.45322
1013.97699 2.44931
1011.92855 2.44585
1009.88011 2.44529
1007.83167 2.45037
1005.78323 2.45787
1003.73480 2.46126
1001.68636 2.46313
999.63792 2.46307
997.58948 2.45664
995.54104 2.45443
993.49260 2.46507
991.44417 2.47824
989.39573 2.48633
987.34729 2.49293
985.29885 2.49823
983.25041 2.50145
981.20197 2.50491
979.15354 2.50967
977.10510 2.51230
975.05666 2.51208
973.00822 2.51506
970.95978 2.52130
968.91134 2.53016
966.86290 2.54665
964.81447 2.56147
962.76603 2.55849
960.71759 2.54988
958.66915 2.55364
956.62071 2.56020
954.57227 2.56004
952.52384 2.55955
950.47540 2.55718
948.42696 2.55373
946.37852 2.55517
944.33008 2.55474
942.28164 2.55220
940.23321 2.55396
938.18477 2.55519
936.13633 2.55095
934.08789 2.54365
932.03945 2.53905
929.99101 2.53913
927.94258 2.53887
925.89414 2.53574
923.84570 2.53797
921.79726 2.54591
919.74882 2.54508
917.70038 2.53624
915.65195 2.53047
913.60351 2.52698
911.55507 2.52488
909.50663 2.52496
907.45819 2.52076
905.40975 2.51372
903.36132 2.51289
901.31288 2.51854
899.26444 2.52522
897.21600 2.52770
895.16756 2.52439
893.11912 2.52201
891.07069 2.52804
889.02225 2.53529
886.97381 2.53924
884.92537 2.54705
882.87693 2.55461
880.82849 2.55433
878.78006 2.54656
876.73162 2.53530
874.68318 2.52306
872.63474 2.51483
870.58630 2.51476
868.53786 2.51185
866.48943 2.49810
864.44099 2.48503
862.39255 2.48007
860.34411 2.47446
858.29567 2.46371
856.24723 2.45644
854.19880 2.46138
852.15036 2.47078
850.10192 2.46814
848.05348 2.46080
846.00504 2.46253
843.95660 2.46693
841.90817 2.46995
839.85973 2.47433
837.81129 2.47659
835.76285 2.47740
833.71441 2.48147
831.66597 2.48921
829.61753 2.49926
827.56910 2.50716
825.52066 2.51300
823.47222 2.52813
821.42378 2.54382
819.37534 2.54010
817.32690 2.53144
815.27847 2.53314
813.23003 2.53768
811.18159 2.54305
809.13315 2.55155
807.08471 2.54958
805.03627 2.53980
802.98784 2.55153
800.93940 2.58311
798.89096 2.60545
796.84252 2.61948
794.79408 2.63019
792.74564 2.62972
790.69721 2.63580
788.64877 2.65903
786.60033 2.68189
784.55189 2.68675
782.50345 2.67964
780.45501 2.66941
778.40658 2.64820
776.35814 2.63222
774.30970 2.64865
772.26126 2.67651
770.21282 2.68051
768.16438 2.68139
766.11595 2.68734
764.06751 2.68801
762.01907 2.70896
759.97063 2.76024
757.92219 2.81325
755.87375 2.83915
753.82532 2.82494
751.77688 2.78049
749.72844 2.76097
747.68000 2.78632
745.63156 2.80592
743.58312 2.79944
741.53469 2.80926
739.48625 2.85799
737.43781 2.89803
735.38937 2.89118
733.34093 2.89414
731.29249 2.94560
729.24406 3.01583
727.19562 3.07060
725.14718 3.10320
723.09874 3.06777
721.05030 2.97640
719.00186 2.91938
716.95343 2.91982
714.90499 2.97292
712.85655 3.05680
710.80811 3.04569
708.75967 2.96741
706.71123 2.97084
704.66280 3.02016
702.61436 3.02895
700.56592 3.05284
698.51748 3.18682
696.46904 3.40201
694.42060 3.36331
692.37216 3.14753
690.32373 2.99879
688.27529 2.97645
686.22685 3.10018
684.17841 3.25902
682.12997 3.33585
680.08153 3.35758
678.03310 3.37108
675.98466 3.46911
673.93622 3.43070
671.88778 3.27784
669.83934 3.22773
667.79090 3.03904
665.74247 2.83806
663.69403 2.78185
661.64559 2.79369
659.59715 2.71646
657.54871 2.54504
655.50027 2.42262
653.45184 2.33049
651.40340 2.25310
649.35496 2.20662
647.30652 2.15699
645.25808 2.09025
643.20964 2.03503
641.16121 2.00937
639.11277 2.00330
637.06433 1.98075
635.01589 1.93168
632.96745 1.88572
630.91901 1.85000
628.87058 1.81140
626.82214 1.76727
624.77370 1.73103
622.72526 1.71802
620.67682 1.71863
618.62838 1.70351
616.57995 1.67697
614.53151 1.66513
612.48307 1.65560
610.43463 1.62931
608.38619 1.59737
606.33775 1.57510
604.28932 1.56900
602.24088 1.57468
600.19244 1.57530
598.14400 1.57092
