3996.50324 1.88984
3994.45480 1.88983
3992.40636 1.88902
3990.35792 1.88799
3988.30948 1.88688
3986.26104 1.88563
3984.21261 1.88462
3982.16417 1.88462
3980.11573 1.88702
3978.06729 1.89041
3976.01885 1.89054
3973.97041 1.88798
3971.92198 1.88590
3969.87354 1.88564
3967.82510 1.88734
3965.77666 1.88872
3963.72822 1.88798
3961.67978 1.88720
3959.63135 1.88583
3957.58291 1.88255
3955.53447 1.88170
3953.48603 1.88449
3951.43759 1.88671
3949.38915 1.88588
3947.34072 1.88438
3945.29228 1.88495
3943.24384 1.88544
3941.19540 1.88401
3939.14696 1.88242
3937.09852 1.88179
3935.05009 1.88218
3933.00165 1.88229
3930.95321 1.88124
3928.90477 1.87996
3926.85633 1.87935
3924.80789 1.88057
3922.75946 1.88264
3920.71102 1.88315
3918.66258 1.88230
3916.61414 1.88222
3914.56570 1.88264
3912.51726 1.88191
3910.46883 1.87974
3908.42039 1.87662
3906.37195 1.87432
3904.32351 1.87487
3902.27507 1.87794
3900.22663 1.87890
3898.17820 1.87677
3896.12976 1.87477
3894.08132 1.87392
3892.03288 1.87401
3889.98444 1.87483
3887.93600 1.87507
3885.88756 1.87436
3883.83913 1.87408
3881.79069 1.87467
3879.74225 1.87601
3877.69381 1.87728
3875.64537 1.87719
3873.59693 1.87632
3871.54850 1.87499
3869.50006 1.87132
3867.45162 1.86963
3865.40318 1.86981
3863.35474 1.86927
3861.30630 1.87256
3859.25787 1.87551
3857.20943 1.87137
3855.16099 1.86192
3853.11255 1.85892
3851.06411 1.86507
3849.01567 1.86806
3846.96724 1.86995
3844.91880 1.87228
3842.87036 1.87247
3840.82192 1.86960
3838.77348 1.86958
3836.72504 1.87326
3834.67661 1.87499
3832.62817 1.87479
3830.57973 1.87382
3828.53129 1.87161
3826.48285 1.87018
3824.43441 1.87423
3822.38598 1.88051
3820.33754 1.88023
3818.28910 1.87727
3816.24066 1.87546
3814.19222 1.87293
3812.14378 1.87119
3810.09535 1.86902
3808.04691 1.86640
3805.99847 1.86642
3803.95003 1.86750
3801.90159 1.86608
3799.85315 1.86519
3797.80472 1.86583
3795.75628 1.86584
3793.70784 1.86692
3791.65940 1.86985
3789.61096 1.87249
3787.56252 1.87381
3785.51409 1.87388
3783.46565 1.87203
3781.41721 1.87040
3779.36877 1.87042
3777.32033 1.87162
3775.27189 1.87278
3773.22346 1.87305
3771.17502 1.87196
3769.12658 1.87061
3767.07814 1.87065
3765.02970 1.87013
3762.98126 1.87106
3760.93283 1.87473
3758.88439 1.87671
3756.83595 1.87621
3754.78751 1.87651
3752.73907 1.87666
3750.69063 1.87468
3748.64219 1.87325
3746.59376 1.87637
3744.54532 1.88020
3742.49688 1.87855
3740.44844 1.87667
3738.40000 1.87644
3736.35156 1.87739
3734.30313 1.87763
3732.25469 1.87531
3730.20625 1.87450
3728.15781 1.87530
3726.10937 1.87725
3724.06093 1.88056
3722.01250 1.88393
3719.96406 1.88701
3717.91562 1.88867
3715.86718 1.88863
3713.81874 1.89023
3711.77030 1.89830
3709.72187 1.90895
3707.67343 1.91382
3705.62499 1.91786
3703.57655 1.92366
3701.52811 1.93066
3699.47967 1.93792
3697.43124 1.94346
3695.38280 1.94680
3693.33436 1.94815
3691.28592 1.94598
3689.23748 1.93892
3687.18904 1.93317
3685.14061 1.93243
3683.09217 1.93314
3681.04373 1.93315
3678.99529 1.93571
3676.94685 1.94426
3674.89841 1.95280
3672.84998 1.95551
3670.80154 1.95951
3668.75310 1.96315
3666.70466 1.96495
3664.65622 1.96838
3662.60778 1.97275
3660.55935 1.97907
3658.51091 1.98841
3656.46247 1.99999
3654.41403 2.00995
3652.36559 2.01737
3650.31715 2.02803
3648.26872 2.03833
3646.22028 2.04068
3644.17184 2.04313
3642.12340 2.04969
3640.07496 2.06057
3638.02652 2.06912
3635.97809 2.07192
3633.92965 2.07467
3631.88121 2.08026
3629.83277 2.08729
3627.78433 2.10038
3625.73589 2.11218
3623.68746 2.11445
3621.63902 2.10808
3619.59058 2.10313
3617.54214 2.11114
3615.49370 2.12261
3613.44526 2.13128
3611.39682 2.13741
3609.34839 2.14033
3607.29995 2.14167
3605.25151 2.14355
3603.20307 2.14772
3601.15463 2.15620
3599.10619 2.16422
3597.05776 2.16423
3595.00932 2.15884
3592.96088 2.15858
3590.91244 2.16416
3588.86400 2.16803
3586.81556 2.16785
3584.76713 2.16842
3582.71869 2.17055
3580.67025 2.17472
3578.62181 2.18303
3576.57337 2.19051
3574.52493 2.19344
3572.47650 2.19456
3570.42806 2.19613
3568.37962 2.20340
3566.33118 2.21584
3564.28274 2.21891
3562.23430 2.21588
3560.18587 2.21405
3558.13743 2.21516
3556.08899 2.21736
3554.04055 2.22174
3551.99211 2.23092
3549.94367 2.23755
3547.89524 2.23664
3545.84680 2.23347
3543.79836 2.23272
3541.74992 2.23508
3539.70148 2.23815
3537.65304 2.24026
3535.60461 2.24170
3533.55617 2.24191
3531.50773 2.24236
3529.45929 2.24545
3527.41085 2.25133
3525.36241 2.25799
3523.31398 2.26502
3521.26554 2.27156
3519.21710 2.27458
3517.16866 2.27398
3515.12022 2.27043
3513.07178 2.26519
3511.02335 2.26254
3508.97491 2.26326
3506.92647 2.26801
3504.87803 2.27597
3502.82959 2.27617
3500.78115 2.26791
3498.73272 2.26504
3496.68428 2.27124
3494.63584 2.27906
3492.58740 2.28234
3490.53896 2.28314
3488.49052 2.28417
3486.44209 2.28491
3484.39365 2.28413
3482.34521 2.28290
3480.29677 2.28150
3478.24833 2.28321
3476.19989 2.28769
3474.15146 2.28849
3472.10302 2.28783
3470.05458 2.28778
3468.00614 2.28585
3465.95770 2.28370
3463.90926 2.28370
3461.86082 2.28796
3459.81239 2.29604
3457.76395 2.30168
3455.71551 2.30199
3453.66707 2.30096
3451.61863 2.30174
3449.57019 2.30230
3447.52176 2.29804
3445.47332 2.29259
3443.42488 2.29367
3441.37644 2.29791
3439.32800 2.29916
3437.27956 2.29887
3435.23113 2.29917
3433.18269 2.29671
3431.13425 2.29049
3429.08581 2.28717
3427.03737 2.29042
3424.98893 2.29493
3422.94050 2.29633
3420.89206 2.29570
3418.84362 2.29547
3416.79518 2.29872
3414.74674 2.30363
3412.69830 2.30568
3410.64987 2.30375
3408.60143 2.29784
3406.55299 2.29278
3404.50455 2.29219
3402.45611 2.29350
3400.40767 2.29464
3398.35924 2.29614
3396.31080 2.29659
3394.26236 2.29208
3392.21392 2.28824
3390.16548 2.29065
3388.11704 2.29402
3386.06861 2.29594
3384.02017 2.29775
3381.97173 2.29934
3379.92329 2.29834
3377.87485 2.29371
3375.82641 2.29143
3373.77798 2.29334
3371.72954 2.29373
3369.68110 2.29228
3367.63266 2.29129
3365.58422 2.29092
3363.53578 2.29209
3361.48735 2.29457
3359.43891 2.29564
3357.39047 2.29223
3355.34203 2.28806
3353.29359 2.28881
3351.24515 2.29003
3349.19672 2.28619
3347.14828 2.28280
3345.09984 2.28605
3343.05140 2.29104
3341.00296 2.29050
3338.95452 2.28593
3336.90609 2.28200
3334.85765 2.28060
3332.80921 2.28214
3330.76077 2.28208
3328.71233 2.27972
3326.66389 2.28202
3324.61545 2.28552
3322.56702 2.28327
3320.51858 2.27992
3318.47014 2.27949
3316.42170 2.27941
3314.37326 2.27885
3312.32482 2.28022
3310.27639 2.28172
3308.22795 2.27916
3306.17951 2.27822
3304.13107 2.28200
3302.08263 2.28254
3300.03419 2.28060
3297.98576 2.28194
3295.93732 2.28356
3293.88888 2.28225
3291.84044 2.28033
3289.79200 2.27777
3287.74356 2.27339
3285.69513 2.26955
3283.64669 2.26655
3281.59825 2.26786
3279.54981 2.27461
3277.50137 2.27758
3275.45293 2.27497
3273.40450 2.27247
3271.35606 2.26947
3269.30762 2.26623
3267.25918 2.26647
3265.21074 2.26839
3263.16230 2.26734
3261.11387 2.26573
3259.06543 2.26669
3257.01699 2.26700
3254.96855 2.26494
3252.92011 2.26121
3250.87167 2.25719
3248.82324 2.25420
3246.77480 2.25200
3244.72636 2.25238
3242.67792 2.25654
3240.62948 2.26176
3238.58104 2.26520
3236.53261 2.26549
3234.48417 2.26261
3232.43573 2.25814
3230.38729 2.25508
3228.33885 2.25769
3226.29041 2.26418
3224.24198 2.26719
3222.19354 2.26487
3220.14510 2.25956
3218.09666 2.25459
3216.04822 2.25179
3213.99978 2.24933
3211.95135 2.24647
3209.90291 2.24657
3207.85447 2.25173
3205.80603 2.25603
3203.75759 2.25402
3201.70915 2.24994
3199.66072 2.24979
3197.61228 2.25149
3195.56384 2.24799
3193.51540 2.24256
3191.46696 2.24375
3189.41852 2.24768
3187.37008 2.24785
3185.32165 2.24536
3183.27321 2.24235
3181.22477 2.24013
3179.17633 2.24002
3177.12789 2.24257
3175.07945 2.24454
3173.03102 2.24237
3170.98258 2.23821
3168.93414 2.23621
3166.88570 2.23627
3164.83726 2.23604
3162.78882 2.23411
3160.74039 2.23245
3158.69195 2.23313
3156.64351 2.23158
3154.59507 2.22888
3152.54663 2.22942
3150.49819 2.22833
3148.44976 2.22529
3146.40132 2.22425
3144.35288 2.22308
3142.30444 2.22118
3140.25600 2.22180
3138.20756 2.22367
3136.15913 2.22172
3134.11069 2.21664
3132.06225 2.21449
3130.01381 2.21697
3127.96537 2.21886
3125.91693 2.21598
3123.86850 2.21132
3121.82006 2.20906
3119.77162 2.20778
3117.72318 2.20640
3115.67474 2.20763
3113.62630 2.20993
3111.57787 2.20793
3109.52943 2.20309
3107.48099 2.20088
3105.43255 2.20203
3103.38411 2.20331
3101.33567 2.20115
3099.28724 2.19769
3097.23880 2.19664
3095.19036 2.19566
3093.14192 2.19410
3091.09348 2.19409
3089.04504 2.19501
3086.99661 2.19420
3084.94817 2.19003
3082.89973 2.18625
3080.85129 2.18589
3078.80285 2.18650
3076.75441 2.18677
3074.70598 2.18795
3072.65754 2.18858
3070.60910 2.18670
3068.56066 2.18361
3066.51222 2.18080
3064.46378 2.18046
3062.41535 2.18214
3060.36691 2.18212
3058.31847 2.18007
3056.27003 2.17763
3054.22159 2.17573
3052.17315 2.17457
3050.12471 2.17364
3048.07628 2.17273
3046.02784 2.17225
3043.97940 2.17139
3041.93096 2.17003
3039.88252 2.16994
3037.83408 2.17031
3035.78565 2.16963
3033.73721 2.16953
3031.68877 2.17021
3029.64033 2.16863
3027.59189 2.16431
3025.54345 2.16006
3023.49502 2.15782
3021.44658 2.15701
3019.39814 2.15674
3017.34970 2.15707
3015.30126 2.15818
3013.25282 2.15780
3011.20439 2.15554
3009.15595 2.15528
3007.10751 2.15597
3005.05907 2.15441
3003.01063 2.15165
3000.96219 2.15012
2998.91376 2.15062
2996.86532 2.15157
2994.81688 2.15051
2992.76844 2.14803
2990.72000 2.14657
2988.67156 2.14563
2986.62313 2.14524
2984.57469 2.14573
2982.52625 2.14528
2980.47781 2.14331
2978.42937 2.14174
2976.38093 2.14147
2974.33250 2.13998
2972.28406 2.13607
2970.23562 2.13200
2968.18718 2.13011
2966.13874 2.13092
2964.09030 2.13144
2962.04187 2.12883
2959.99343 2.12602
2957.94499 2.12626
2955.89655 2.12817
2953.84811 2.12888
2951.79967 2.12592
2949.75124 2.12083
2947.70280 2.11882
2945.65436 2.12018
2943.60592 2.12206
2941.55748 2.12299
2939.50904 2.12101
2937.46061 2.11910
2935.41217 2.12169
2933.36373 2.12493
2931.31529 2.12484
2929.26685 2.12426
2927.21841 2.12477
2925.16998 2.12617
2923.12154 2.12733
2921.07310 2.12402
2919.02466 2.11777
2916.97622 2.11529
2914.92778 2.11673
2912.87934 2.11596
2910.83091 2.11181
2908.78247 2.10807
2906.73403 2.10618
2904.68559 2.10565
2902.63715 2.10472
2900.58871 2.10237
2898.54028 2.09939
2896.49184 2.09792
2894.44340 2.09766
2892.39496 2.09700
2890.34652 2.09728
2888.29808 2.09684
2886.24965 2.09381
2884.20121 2.08961
2882.15277 2.08588
2880.10433 2.08618
2878.05589 2.09020
2876.00745 2.09233
2873.95902 2.09111
2871.91058 2.08866
2869.86214 2.08653
2867.81370 2.08556
2865.76526 2.08542
2863.71682 2.08538
2861.66839 2.08401
2859.61995 2.08241
2857.57151 2.08231
2855.52307 2.08060
2853.47463 2.07730
2851.42619 2.07638
2849.37776 2.07593
2847.32932 2.07247
2845.28088 2.06863
2843.23244 2.06732
2841.18400 2.06600
2839.13556 2.06309
2837.08713 2.06101
2835.03869 2.06090
2832.99025 2.06069
2830.94181 2.05821
2828.89337 2.05384
2826.84493 2.05091
2824.79650 2.05146
2822.74806 2.05199
2820.69962 2.05016
2818.65118 2.04770
2816.60274 2.04575
2814.55430 2.04551
2812.50587 2.04694
2810.45743 2.04784
2808.40899 2.04707
2806.36055 2.04641
2804.31211 2.04679
2802.26367 2.04547
2800.21524 2.04204
2798.16680 2.03829
2796.11836 2.03553
2794.06992 2.03562
2792.02148 2.03675
2789.97304 2.03697
2787.92461 2.03648
2785.87617 2.03409
2783.82773 2.03212
2781.77929 2.03255
2779.73085 2.03174
2777.68241 2.02764
2775.63397 2.02227
2773.58554 2.01805
2771.53710 2.01645
2769.48866 2.01660
2767.44022 2.01623
2765.39178 2.01568
2763.34334 2.01598
2761.29491 2.01491
2759.24647 2.01197
2757.19803 2.01083
2755.14959 2.01113
2753.10115 2.00938
2751.05271 2.00720
2749.00428 2.00672
2746.95584 2.00655
2744.90740 2.00550
2742.85896 2.00273
2740.81052 1.99983
2738.76208 1.99983
2736.71365 2.00196
2734.66521 2.00304
2732.61677 2.00253
2730.56833 2.00247
2728.51989 2.00312
2726.47145 2.00288
2724.42302 2.00111
2722.37458 1.99843
2720.32614 1.99668
2718.27770 1.99669
2716.22926 1.99582
2714.18082 1.99257
2712.13239 1.98908
2710.08395 1.98726
2708.03551 1.98795
2705.98707 1.98970
2703.93863 1.98886
2701.89019 1.98581
2699.84176 1.98487
2697.79332 1.98596
2695.74488 1.98518
2693.69644 1.98287
2691.64800 1.98140
2689.59956 1.98026
2687.55113 1.97856
2685.50269 1.97730
2683.45425 1.97702
2681.40581 1.97666
2679.35737 1.97575
2677.30893 1.97490
2675.26050 1.97441
2673.21206 1.97364
2671.16362 1.97261
2669.11518 1.97182
2667.06674 1.97019
2665.01830 1.96817
2662.96987 1.96721
2660.92143 1.96653
2658.87299 1.96613
2656.82455 1.96552
2654.77611 1.96371
2652.72767 1.96183
2650.67924 1.96006
2648.63080 1.95848
2646.58236 1.95725
2644.53392 1.95560
2642.48548 1.95389
2640.43704 1.95294
2638.38860 1.95238
2636.34017 1.95162
2634.29173 1.95004
2632.24329 1.94714
2630.19485 1.94400
2628.14641 1.94205
2626.09797 1.94092
2624.04954 1.93934
2622.00110 1.93775
2619.95266 1.93723
2617.90422 1.93714
2615.85578 1.93666
2613.80734 1.93552
2611.75891 1.93336
2609.71047 1.93026
2607.66203 1.92773
2605.61359 1.92710
2603.56515 1.92696
2601.51671 1.92598
2599.46828 1.92469
2597.41984 1.92328
2595.37140 1.92218
2593.32296 1.92213
2591.27452 1.92202
2589.22608 1.92054
2587.17765 1.91854
2585.12921 1.91739
2583.08077 1.91703
2581.03233 1.91602
2578.98389 1.91425
2576.93545 1.91406
2574.88702 1.91529
2572.83858 1.91538
2570.79014 1.91527
2568.74170 1.91565
2566.69326 1.91448
2564.64482 1.91302
2562.59639 1.91305
2560.54795 1.91372
2558.49951 1.91509
2556.45107 1.91595
2554.40263 1.91451
2552.35419 1.91214
2550.30576 1.91120
2548.25732 1.91169
2546.20888 1.91101
2544.16044 1.90879
2542.11200 1.90736
2540.06356 1.90673
2538.01513 1.90606
2535.96669 1.90653
2533.91825 1.90808
2531.86981 1.90816
2529.82137 1.90606
2527.77293 1.90374
2525.72450 1.90286
2523.67606 1.90344
2521.62762 1.90395
2519.57918 1.90283
2517.53074 1.90084
2515.48230 1.89954
2513.43387 1.89856
2511.38543 1.89774
2509.33699 1.89752
2507.28855 1.89773
2505.24011 1.89815
2503.19167 1.89791
2501.14324 1.89679
2499.09480 1.89593
2497.04636 1.89526
2494.99792 1.89407
2492.94948 1.89266
2490.90104 1.89122
2488.85260 1.89029
2486.80417 1.89007
2484.75573 1.89010
2482.70729 1.89015
2480.65885 1.88984
2478.61041 1.88875
2476.56197 1.88691
2474.51354 1.88560
2472.46510 1.88513
2470.41666 1.88463
2468.36822 1.88372
2466.31978 1.88208
2464.27134 1.88029
2462.22291 1.87877
2460.17447 1.87797
2458.12603 1.87807
2456.07759 1.87762
2454.02915 1.87652
2451.98071 1.87586
2449.93228 1.87588
2447.88384 1.87631
2445.83540 1.87581
2443.78696 1.87388
2441.73852 1.87261
2439.69008 1.87255
2437.64165 1.87207
2435.59321 1.87107
2433.54477 1.87015
2431.49633 1.86883
2429.44789 1.86759
2427.39945 1.86796
2425.35102 1.86857
2423.30258 1.86752
2421.25414 1.86618
2419.20570 1.86489
2417.15726 1.86310
2415.10882 1.86234
2413.06039 1.86302
2411.01195 1.86374
2408.96351 1.86369
2406.91507 1.86327
2404.86663 1.86254
2402.81819 1.86137
2400.76976 1.86094
2398.72132 1.86145
2396.67288 1.86148
2394.62444 1.86025
2392.57600 1.85876
2390.52756 1.85831
2388.47913 1.85885
2386.43069 1.85983
2384.38225 1.86074
2382.33381 1.86126
2380.28537 1.86128
2378.23693 1.86028
2376.18850 1.85892
2374.14006 1.85942
2372.09162 1.86246
2370.04318 1.86473
2367.99474 1.86248
2365.94630 1.85851
2363.89787 1.85568
2361.84943 1.85360
2359.80099 1.85263
2357.75255 1.85193
2355.70411 1.85415
2353.65567 1.85565
2351.60723 1.85331
2349.55880 1.85293
2347.51036 1.85636
2345.46192 1.85976
2343.41348 1.85756
2341.36504 1.85204
2339.31660 1.84893
2337.26817 1.84816
2335.21973 1.84614
2333.17129 1.84207
2331.12285 1.84010
2329.07441 1.84258
2327.02597 1.84483
2324.97754 1.84418
2322.92910 1.84354
2320.88066 1.84422
2318.83222 1.84482
2316.78378 1.84430
2314.73534 1.84362
2312.68691 1.84328
2310.63847 1.84242
2308.59003 1.84172
2306.54159 1.84177
2304.49315 1.84198
2302.44471 1.84196
2300.39628 1.84099
2298.34784 1.83881
2296.29940 1.83644
2294.25096 1.83499
2292.20252 1.83461
2290.15408 1.83468
2288.10565 1.83433
2286.05721 1.83285
2284.00877 1.83154
2281.96033 1.83167
2279.91189 1.83223
2277.86345 1.83257
2275.81502 1.83301
2273.76658 1.83409
2271.71814 1.83593
2269.66970 1.83744
2267.62126 1.83778
2265.57282 1.83777
2263.52439 1.83761
2261.47595 1.83582
2259.42751 1.83341
2257.37907 1.83285
2255.33063 1.83319
2253.28219 1.83321
2251.23376 1.83321
2249.18532 1.83272
2247.13688 1.83163
2245.08844 1.83087
2243.04000 1.83117
2240.99156 1.83149
2238.94313 1.83091
2236.89469 1.83050
2234.84625 1.83127
2232.79781 1.83313
2230.74937 1.83485
2228.70093 1.83494
2226.65250 1.83352
2224.60406 1.83203
2222.55562 1.83118
2220.50718 1.83131
2218.45874 1.83217
2216.41030 1.83273
2214.36186 1.83228
2212.31343 1.83115
2210.26499 1.83041
2208.21655 1.83011
2206.16811 1.83028
2204.11967 1.83075
2202.07123 1.83005
2200.02280 1.82875
2197.97436 1.82865
2195.92592 1.82923
2193.87748 1.82980
2191.82904 1.82980
2189.78060 1.82850
2187.73217 1.82708
2185.68373 1.82620
2183.63529 1.82529
2181.58685 1.82507
2179.53841 1.82559
2177.48997 1.82552
2175.44154 1.82494
2173.39310 1.82478
2171.34466 1.82506
2169.29622 1.82496
2167.24778 1.82462
2165.19934 1.82476
2163.15091 1.82482
2161.10247 1.82471
2159.05403 1.82487
2157.00559 1.82517
2154.95715 1.82473
2152.90871 1.82304
2150.86028 1.82123
2148.81184 1.82065
2146.76340 1.82121
2144.71496 1.82103
2142.66652 1.81989
2140.61808 1.81907
2138.56965 1.81891
2136.52121 1.81866
2134.47277 1.81705
2132.42433 1.81471
2130.37589 1.81334
2128.32745 1.81280
2126.27902 1.81280
2124.23058 1.81335
2122.18214 1.81360
2120.13370 1.81380
2118.08526 1.81464
2116.03682 1.81564
2113.98839 1.81673
2111.93995 1.81775
2109.89151 1.81814
2107.84307 1.81816
2105.79463 1.81788
2103.74619 1.81679
2101.69776 1.81516
2099.64932 1.81387
2097.60088 1.81305
2095.55244 1.81248
2093.50400 1.81213
2091.45556 1.81130
2089.40713 1.80959
2087.35869 1.80848
2085.31025 1.80904
2083.26181 1.81003
2081.21337 1.81087
2079.16493 1.81239
2077.11649 1.81410
2075.06806 1.81431
2073.01962 1.81289
2070.97118 1.81176
2068.92274 1.81191
2066.87430 1.81216
2064.82586 1.81188
2062.77743 1.81162
2060.72899 1.81110
2058.68055 1.81052
2056.63211 1.81119
2054.58367 1.81230
2052.53523 1.81231
2050.48680 1.81216
2048.43836 1.81344
2046.38992 1.81546
2044.34148 1.81568
2042.29304 1.81324
2040.24460 1.81072
2038.19617 1.80981
2036.14773 1.80900
2034.09929 1.80716
2032.05085 1.80500
2030.00241 1.80348
2027.95397 1.80291
2025.90554 1.80294
2023.85710 1.80264
2021.80866 1.80200
2019.76022 1.80138
2017.71178 1.80105
2015.66334 1.80158
2013.61491 1.80190
2011.56647 1.80180
2009.51803 1.80278
2007.46959 1.80404
2005.42115 1.80397
2003.37271 1.80326
2001.32428 1.80343
1999.27584 1.80452
1997.22740 1.80512
1995.17896 1.80469
1993.13052 1.80481
1991.08208 1.80608
1989.03365 1.80653
1986.98521 1.80606
1984.93677 1.80574
1982.88833 1.80497
1980.83989 1.80423
1978.79145 1.80448
1976.74302 1.80493
1974.69458 1.80490
1972.64614 1.80439
1970.59770 1.80358
1968.54926 1.80320
1966.50082 1.80299
1964.45239 1.80204
1962.40395 1.80102
1960.35551 1.80039
1958.30707 1.79946
1956.25863 1.79866
1954.21019 1.79900
1952.16176 1.80005
1950.11332 1.80121
1948.06488 1.80211
1946.01644 1.80195
1943.96800 1.80120
1941.91956 1.80077
1939.87112 1.80027
1937.82269 1.79980
1935.77425 1.80063
1933.72581 1.80220
1931.67737 1.80246
1929.62893 1.80173
1927.58049 1.80168
1925.53206 1.80196
1923.48362 1.80085
1921.43518 1.79897
1919.38674 1.79797
1917.33830 1.79742
1915.28986 1.79661
1913.24143 1.79557
1911.19299 1.79422
1909.14455 1.79219
1907.09611 1.79056
1905.04767 1.79034
1902.99923 1.79069
1900.95080 1.79054
1898.90236 1.78996
1896.85392 1.78960
1894.80548 1.78986
1892.75704 1.79074
1890.70860 1.79147
1888.66017 1.79181
1886.61173 1.79226
1884.56329 1.79242
1882.51485 1.79244
1880.46641 1.79335
1878.41797 1.79399
1876.36954 1.79266
1874.32110 1.79061
1872.27266 1.78868
1870.22422 1.78617
1868.17578 1.78544
1866.12734 1.78799
1864.07891 1.79028
1862.03047 1.79193
1859.98203 1.79317
1857.93359 1.79348
1855.88515 1.79369
1853.83671 1.79390
1851.78828 1.79314
1849.73984 1.79200
1847.69140 1.79232
1845.64296 1.79344
1843.59452 1.79296
1841.54608 1.79188
1839.49765 1.79138
1837.44921 1.79136
1835.40077 1.79192
1833.35233 1.79266
1831.30389 1.79298
1829.25545 1.79328
1827.20702 1.79448
1825.15858 1.79598
1823.11014 1.79675
1821.06170 1.79688
1819.01326 1.79715
1816.96482 1.79813
1814.91639 1.79937
1812.86795 1.79912
1810.81951 1.79743
1808.77107 1.79688
1806.72263 1.79777
1804.67419 1.79854
1802.62575 1.79892
1800.57732 1.79922
1798.52888 1.79997
1796.48044 1.80206
1794.43200 1.80411
1792.38356 1.80488
1790.33512 1.80618
1788.28669 1.80780
1786.23825 1.80844
1784.18981 1.80847
1782.14137 1.80870
1780.09293 1.80908
1778.04449 1.80996
1775.99606 1.81070
1773.94762 1.81001
1771.89918 1.80984
1769.85074 1.81286
1767.80230 1.81560
1765.75386 1.81681
1763.70543 1.81784
1761.65699 1.82025
1759.60855 1.82325
1757.56011 1.82580
1755.51167 1.82861
1753.46323 1.83077
1751.41480 1.83273
1749.36636 1.83659
1747.31792 1.84186
1745.26948 1.84578
1743.22104 1.84824
1741.17260 1.85164
1739.12417 1.85627
1737.07573 1.85889
1735.02729 1.85891
1732.97885 1.85989
1730.93041 1.86260
1728.88197 1.86558
1726.83354 1.86981
1724.78510 1.87426
1722.73666 1.87796
1720.68822 1.88008
1718.63978 1.88096
1716.59134 1.88673
1714.54291 1.89577
1712.49447 1.90174
1710.44603 1.90764
1708.39759 1.91392
1706.34915 1.92031
1704.30071 1.92674
1702.25228 1.93167
1700.20384 1.93866
1698.15540 1.94912
1696.10696 1.95965
1694.05852 1.96933
1692.01008 1.97509
1689.96165 1.97948
1687.91321 1.98445
1685.86477 1.99149
1683.81633 2.00466
1681.76789 2.01601
1679.71945 2.02251
1677.67102 2.02691
1675.62258 2.03292
1673.57414 2.04278
1671.52570 2.05133
1669.47726 2.05709
1667.42882 2.06073
1665.38038 2.06520
1663.33195 2.07233
1661.28351 2.07899
1659.23507 2.08283
1657.18663 2.08607
1655.13819 2.08950
1653.08975 2.09513
1651.04132 2.10110
1648.99288 2.10419
1646.94444 2.10399
1644.89600 2.10397
1642.84756 2.10687
1640.79912 2.10965
1638.75069 2.11105
1636.70225 2.11050
1634.65381 2.10871
1632.60537 2.10850
1630.55693 2.10803
1628.50849 2.10728
1626.46006 2.10677
1624.41162 2.10414
1622.36318 2.09945
1620.31474 2.09519
1618.26630 2.09035
1616.21786 2.08347
1614.16943 2.07881
1612.12099 2.07741
1610.07255 2.07599
1608.02411 2.07269
1605.97567 2.06974
1603.92723 2.06712
1601.87880 2.06215
1599.83036 2.05637
1597.78192 2.05242
1595.73348 2.04870
1593.68504 2.04427
1591.63660 2.04217
1589.58817 2.04324
1587.53973 2.04409
1585.49129 2.04203
1583.44285 2.03989
1581.39441 2.04064
1579.34597 2.04212
1577.29754 2.04202
1575.24910 2.04008
1573.20066 2.03852
1571.15222 2.03896
1569.10378 2.04135
1567.05534 2.04313
1565.00691 2.04415
1562.95847 2.04539
1560.91003 2.04713
1558.86159 2.04631
1556.81315 2.04345
1554.76471 2.04527
1552.71628 2.04772
1550.66784 2.04819
1548.61940 2.04731
1546.57096 2.04845
1544.52252 2.05318
1542.47408 2.05721
1540.42565 2.05471
1538.37721 2.05358
1536.32877 2.05342
1534.28033 2.05290
1532.23189 2.05428
1530.18345 2.05515
1528.13501 2.05405
1526.08658 2.05215
1524.03814 2.05081
1521.98970 2.04809
1519.94126 2.04210
1517.89282 2.03816
1515.84438 2.03758
1513.79595 2.03560
1511.74751 2.02998
1509.69907 2.02357
1507.65063 2.01817
1505.60219 2.01308
1503.55375 2.01056
1501.50532 2.00886
1499.45688 2.00689
1497.40844 2.00478
1495.36000 2.00261
1493.31156 2.00059
1491.26312 1.99911
1489.21469 1.99813
1487.16625 1.99755
1485.11781 1.99670
1483.06937 1.99537
1481.02093 1.99392
1478.97249 1.99272
1476.92406 1.99316
1474.87562 1.99647
1472.82718 1.99845
1470.77874 1.99709
1468.73030 1.99657
1466.68186 1.99619
1464.63343 1.99717
1462.58499 1.99976
1460.53655 2.00246
1458.48811 2.00701
1456.43967 2.00950
1454.39123 2.00614
1452.34280 2.00303
1450.29436 2.00176
1448.24592 2.00192
1446.19748 2.00118
1444.14904 2.00018
1442.10060 2.00031
1440.05217 2.00071
1438.00373 2.00130
1435.95529 2.00340
1433.90685 2.00523
1431.85841 2.00680
1429.80997 2.01004
1427.76154 2.01326
1425.71310 2.01443
1423.66466 2.01477
1421.61622 2.01565
1419.56778 2.01683
1417.51934 2.01705
1415.47091 2.01715
1413.42247 2.01784
1411.37403 2.01856
1409.32559 2.01892
1407.27715 2.01762
1405.22871 2.01470
1403.18028 2.01302
1401.13184 2.01219
1399.08340 2.00969
1397.03496 2.00723
1394.98652 2.00650
1392.93808 2.00533
1390.88965 2.00356
1388.84121 2.00191
1386.79277 2.00077
1384.74433 2.00032
1382.69589 2.00068
1380.64745 2.00176
1378.59901 2.00261
1376.55058 2.00215
1374.50214 1.99841
1372.45370 1.99365
1370.40526 1.99273
1368.35682 1.99400
1366.30838 1.99459
1364.25995 1.99503
1362.21151 1.99714
1360.16307 1.99888
1358.11463 1.99834
1356.06619 1.99720
1354.01775 1.99607
1351.96932 1.99477
1349.92088 1.99367
1347.87244 1.99214
1345.82400 1.98966
1343.77556 1.98726
1341.72712 1.98593
1339.67869 1.98568
1337.63025 1.98640
1335.58181 1.98820
1333.53337 1.98995
1331.48493 1.98984
1329.43649 1.98995
1327.38806 1.99298
1325.33962 1.99570
1323.29118 1.99660
1321.24274 1.99969
1319.19430 2.00522
1317.14586 2.00876
1315.09743 2.00912
1313.04899 2.00914
1311.00055 2.01062
1308.95211 2.01234
1306.90367 2.01298
1304.85523 2.01278
1302.80680 2.01186
1300.75836 2.01096
1298.70992 2.01038
1296.66148 2.00926
1294.61304 2.00894
1292.56460 2.01055
1290.51617 2.01327
1288.46773 2.01634
1286.41929 2.01928
1284.37085 2.02233
1282.32241 2.02456
1280.27397 2.02507
1278.22554 2.02622
1276.17710 2.03026
1274.12866 2.03691
1272.08022 2.04341
1270.03178 2.04671
1267.98334 2.04898
1265.93491 2.05325
1263.88647 2.05684
1261.83803 2.05807
1259.78959 2.05944
1257.74115 2.06217
1255.69271 2.06604
1253.64428 2.07023
1251.59584 2.07428
1249.54740 2.07902
1247.49896 2.08441
1245.45052 2.08961
1243.40208 2.09441
1241.35364 2.09937
1239.30521 2.10432
1237.25677 2.10885
1235.20833 2.11424
1233.15989 2.12063
1231.11145 2.12683
1229.06301 2.13289
1227.01458 2.13981
1224.96614 2.14717
1222.91770 2.15339
1220.86926 2.15919
1218.82082 2.16595
1216.77238 2.17295
1214.72395 2.17972
1212.67551 2.18693
1210.62707 2.19510
1208.57863 2.20417
1206.53019 2.21290
1204.48175 2.22089
1202.43332 2.22967
1200.38488 2.24055
1198.33644 2.25333
1196.28800 2.26639
1194.23956 2.27763
1192.19112 2.28638
1190.14269 2.29460
1188.09425 2.30372
1186.04581 2.31381
1183.99737 2.32477
1181.94893 2.33434
1179.90049 2.34244
1177.85206 2.35225
1175.80362 2.36358
1173.75518 2.37458
1171.70674 2.38527
1169.65830 2.39457
1167.60986 2.40278
1165.56143 2.41284
1163.51299 2.42383
1161.46455 2.43312
1159.41611 2.44390
1157.36767 2.45839
1155.31923 2.46986
1153.27080 2.47525
1151.22236 2.48071
1149.17392 2.48877
1147.12548 2.49623
1145.07704 2.50234
1143.02860 2.51139
1140.98017 2.52318
1138.93173 2.52969
1136.88329 2.52909
1134.83485 2.52767
1132.78641 2.52911
1130.73797 2.53328
1128.68954 2.53630
1126.64110 2.53742
1124.59266 2.54037
1122.54422 2.54071
1120.49578 2.53537
1118.44734 2.53603
1116.39891 2.54543
1114.35047 2.55072
1112.30203 2.55002
1110.25359 2.54911
1108.20515 2.54927
1106.15671 2.55076
1104.10827 2.55276
1102.05984 2.55475
1100.01140 2.55619
1097.96296 2.55571
1095.91452 2.55508
1093.86608 2.55660
1091.81764 2.55896
1089.76921 2.56205
1087.72077 2.56610
1085.67233 2.57051
1083.62389 2.57342
1081.57545 2.57678
1079.52701 2.58744
1077.47858 2.59808
1075.43014 2.59836
1073.38170 2.59636
1071.33326 2.59576
1069.28482 2.58835
1067.23638 2.57489
1065.18795 2.56586
1063.13951 2.56038
1061.09107 2.54634
1059.04263 2.53218
1056.99419 2.53025
1054.94575 2.53054
1052.89732 2.52413
1050.84888 2.51453
1048.80044 2.50494
1046.75200 2.49509
1044.70356 2.48678
1042.65512 2.47848
1040.60669 2.46840
1038.55825 2.46063
1036.50981 2.45531
1034.46137 2.45025
1032.41293 2.44626
1030.36449 2.44484
1028.31606 2.44750
1026.26762 2.45276
1024.21918 2.45645
1022.17074 2.45799
1020.12230 2.45646
1018.07386 2.45103
1016.02543 2.44871
1013.97699 2.45258
1011.92855 2.45355
1009.88011 2.44987
1007.83167 2.44825
1005.78323 2.44990
1003.73480 2.45530
1001.68636 2.45924
999.63792 2.45660
997.58948 2.45480
995.54104 2.46039
993.49260 2.47033
991.44417 2.47811
989.39573 2.48234
987.34729 2.48647
985.29885 2.48945
983.25041 2.48882
981.20197 2.49106
979.15354 2.49933
977.10510 2.50704
975.05666 2.51222
973.00822 2.51612
970.95978 2.52017
968.91134 2.52981
966.86290 2.54056
964.81447 2.54504
962.76603 2.54926
960.71759 2.55249
958.66915 2.54948
956.62071 2.54862
954.57227 2.55243
952.52384 2.55340
950.47540 2.55037
948.42696 2.54412
946.37852 2.54139
944.33008 2.54295
942.28164 2.54010
940.23321 2.53760
938.18477 2.54125
936.13633 2.54324
934.08789 2.53667
932.03945 2.53278
929.99101 2.53782
927.94258 2.54326
925.89414 2.54366
923.84570 2.53946
921.79726 2.53401
919.74882 2.52688
917.70038 2.52342
915.65195 2.52642
913.60351 2.52563
911.55507 2.51971
909.50663 2.51827
907.45819 2.52388
905.40975 2.53151
903.36132 2.53403
901.31288 2.52761
899.26444 2.52102
897.21600 2.52416
895.16756 2.53218
893.11912 2.53379
891.07069 2.53202
889.02225 2.53635
886.97381 2.54112
884.92537 2.53982
882.87693 2.53782
880.82849 2.53610
878.78006 2.53377
876.73162 2.53092
874.68318 2.52695
872.63474 2.51968
870.58630 2.50212
868.53786 2.48440
866.48943 2.47842
864.44099 2.47980
862.39255 2.48262
860.34411 2.48027
858.29567 2.46759
856.24723 2.45392
854.19880 2.45605
852.15036 2.46659
850.10192 2.46471
848.05348 2.45403
846.00504 2.44952
843.95660 2.45429
841.90817 2.46355
839.85973 2.47141
837.81129 2.47616
835.76285 2.47928
833.71441 2.47770
831.66597 2.47688
829.61753 2.48429
827.56910 2.48649
825.52066 2.47576
823.47222 2.47853
821.42378 2.50584
819.37534 2.52322
817.32690 2.51888
815.27847 2.52409
813.23003 2.54419
811.18159 2.55670
809.13315 2.55460
807.08471 2.54622
805.03627 2.54240
802.98784 2.55714
800.93940 2.58879
798.89096 2.61945
796.84252 2.63276
794.79408 2.62438
792.74564 2.61552
790.69721 2.61897
788.64877 2.61974
786.60033 2.61929
784.55189 2.62852
782.50345 2.63692
780.45501 2.64349
778.40658 2.65836
776.35814 2.67389
774.30970 2.68878
772.26126 2.71423
770.21282 2.73352
768.16438 2.71814
766.11595 2.68984
764.06751 2.68475
762.01907 2.69986
759.97063 2.71372
757.92219 2.71756
755.87375 2.72260
753.82532 2.73906
751.77688 2.76306
749.72844 2.79650
747.68000 2.83744
745.63156 2.85492
743.58312 2.83608
741.53469 2.81602
739.48625 2.79643
737.43781 2.78093
735.38937 2.81600
733.34093 2.87389
731.29249 2.88626
729.24406 2.87019
727.19562 2.86240
725.14718 2.89579
723.09874 2.95269
721.05030 2.97128
719.00186 2.98671
716.95343 3.06677
714.90499 3.13279
712.85655 3.10435
710.80811 3.09861
708.75967 3.13400
706.71123 3.12646
704.66280 3.06818
702.61436 3.02099
700.56592 2.98856
698.51748 2.97391
696.46904 3.04591
694.42060 3.16520
692.37216 3.23058
690.32373 3.29442
688.27529 3.33524
686.22685 3.33338
684.17841 3.37817
682.12997 3.66540
680.08153 4.10031
678.03310 3.51936
675.98466 3.25199
673.93622 3.17551
671.88778 3.14564
669.83934 3.18144
667.79090 3.15859
665.74247 3.01229
663.69403 2.84889
661.64559 2.70230
659.59715 2.60577
657.54871 2.52426
655.50027 2.42444
653.45184 2.30227
651.40340 2.20213
649.35496 2.16643
647.30652 2.15692
645.25808 2.11238
643.20964 2.05133
641.16121 2.01029
639.11277 1.98634
637.06433 1.95284
635.01589 1.91206
632.96745 1.87177
630.91901 1.81525
628.87058 1.76832
626.82214 1.75865
624.77370 1.75736
622.72526 1.73190
620.67682 1.69528
618.62838 1.66286
616.57995 1.64376
614.53151 1.63674
612.48307 1.62904
610.43463 1.62514
608.38619 1.62218
606.33775 1.60889
604.28932 1.59184
602.24088 1.56708
600.19244 1.52776
598.14400 1.49046
