3996.50324 1.72470
3994.45480 1.72681
3992.40636 1.72678
3990.35792 1.72626
3988.30948 1.72603
3986.26104 1.72499
3984.21261 1.72392
3982.16417 1.72483
3980.11573 1.72577
3978.06729 1.72477
3976.01885 1.72378
3973.97041 1.72303
3971.92198 1.72212
3969.87354 1.72173
3967.82510 1.72129
3965.77666 1.72095
3963.72822 1.72158
3961.67978 1.72266
3959.63135 1.72335
3957.58291 1.72296
3955.53447 1.72138
3953.48603 1.72023
3951.43759 1.72026
3949.38915 1.72104
3947.34072 1.72196
3945.29228 1.72271
3943.24384 1.72241
3941.19540 1.72033
3939.14696 1.71909
3937.09852 1.72085
3935.05009 1.72350
3933.00165 1.72372
3930.95321 1.72131
3928.90477 1.71845
3926.85633 1.71737
3924.80789 1.71793
3922.75946 1.71877
3920.71102 1.72007
3918.66258 1.72151
3916.61414 1.72187
3914.56570 1.72174
3912.51726 1.72285
3910.46883 1.72432
3908.42039 1.72459
3906.37195 1.72507
3904.32351 1.72719
3902.27507 1.72716
3900.22663 1.72245
3898.17820 1.71896
3896.12976 1.71897
3894.08132 1.71992
3892.03288 1.72073
3889.98444 1.72096
3887.93600 1.72111
3885.88756 1.72191
3883.83913 1.72295
3881.79069 1.72386
3879.74225 1.72435
3877.69381 1.72441
3875.64537 1.72409
3873.59693 1.72462
3871.54850 1.72918
3869.50006 1.73310
3867.45162 1.73175
3865.40318 1.73157
3863.35474 1.73322
3861.30630 1.73272
3859.25787 1.73109
3857.20943 1.72968
3855.16099 1.72841
3853.11255 1.72811
3851.06411 1.72797
3849.01567 1.72676
3846.96724 1.72577
3844.91880 1.72510
3842.87036 1.72502
3840.82192 1.72765
3838.77348 1.73154
3836.72504 1.73070
3834.67661 1.72785
3832.62817 1.72742
3830.57973 1.72891
3828.53129 1.73018
3826.48285 1.73065
3824.43441 1.73072
3822.38598 1.72994
3820.33754 1.72685
3818.28910 1.72422
3816.24066 1.72520
3814.19222 1.72834
3812.14378 1.72988
3810.09535 1.73022
3808.04691 1.73050
3805.99847 1.73087
3803.95003 1.73253
3801.90159 1.73636
3799.85315 1.73847
3797.80472 1.73645
3795.75628 1.73270
3793.70784 1.72947
3791.65940 1.72817
3789.61096 1.72922
3787.56252 1.73127
3785.51409 1.73158
3783.46565 1.72963
3781.41721 1.72840
3779.36877 1.72935
3777.32033 1.73101
3775.27189 1.73138
3773.22346 1.73010
3771.17502 1.72840
3769.12658 1.72942
3767.07814 1.73310
3765.02970 1.73553
3762.98126 1.73563
3760.93283 1.73465
3758.88439 1.73352
3756.83595 1.73316
3754.78751 1.73469
3752.73907 1.73650
3750.69063 1.73235
3748.64219 1.72843
3746.59376 1.73063
3744.54532 1.73250
3742.49688 1.73233
3740.44844 1.73336
3738.40000 1.73535
3736.35156 1.73697
3734.30313 1.73668
3732.25469 1.73654
3730.20625 1.73753
3728.15781 1.73839
3726.10937 1.73949
3724.06093 1.74119
3722.01250 1.74306
3719.96406 1.74542
3717.91562 1.74730
3715.86718 1.74908
3713.81874 1.75241
3711.77030 1.75761
3709.72187 1.76262
3707.67343 1.76655
3705.62499 1.77169
3703.57655 1.77768
3701.52811 1.78369
3699.47967 1.78890
3697.43124 1.79144
3695.38280 1.79163
3693.33436 1.79114
3691.28592 1.79108
3689.23748 1.78977
3687.18904 1.78757
3685.14061 1.78679
3683.09217 1.78726
3681.04373 1.79007
3678.99529 1.79464
3676.94685 1.79911
3674.89841 1.80363
3672.84998 1.80794
3670.80154 1.81266
3668.75310 1.81778
3666.70466 1.82112
3664.65622 1.82313
3662.60778 1.82509
3660.55935 1.82911
3658.51091 1.83465
3656.46247 1.83997
3654.41403 1.84474
3652.36559 1.84941
3650.31715 1.85761
3648.26872 1.86874
3646.22028 1.87232
3644.17184 1.87417
3642.12340 1.87847
3640.07496 1.88476
3638.02652 1.89110
3635.97809 1.89663
3633.92965 1.90115
3631.88121 1.90551
3629.83277 1.91270
3627.78433 1.92298
3625.73589 1.92970
3623.68746 1.93445
3621.63902 1.93808
3619.59058 1.94065
3617.54214 1.94201
3615.49370 1.94038
3613.44526 1.93818
3611.39682 1.94058
3609.34839 1.94679
3607.29995 1.95207
3605.25151 1.95388
3603.20307 1.95569
3601.15463 1.95957
3599.10619 1.96313
3597.05776 1.96524
3595.00932 1.96663
3592.96088 1.96888
3590.91244 1.97303
3588.86400 1.97750
3586.81556 1.98135
3584.76713 1.98260
3582.71869 1.98248
3580.67025 1.98501
3578.62181 1.98881
3576.57337 1.99084
3574.52493 1.99162
3572.47650 1.99183
3570.42806 1.99250
3568.37962 1.99416
3566.33118 1.99710
3564.28274 2.00143
3562.23430 2.00536
3560.18587 2.00851
3558.13743 2.01153
3556.08899 2.01215
3554.04055 2.01162
3551.99211 2.01391
3549.94367 2.01609
3547.89524 2.01710
3545.84680 2.02097
3543.79836 2.02625
3541.74992 2.02769
3539.70148 2.02583
3537.65304 2.02531
3535.60461 2.03074
3533.55617 2.03797
3531.50773 2.04143
3529.45929 2.04272
3527.41085 2.04287
3525.36241 2.04242
3523.31398 2.04369
3521.26554 2.04657
3519.21710 2.04648
3517.16866 2.04438
3515.12022 2.04579
3513.07178 2.04841
3511.02335 2.04944
3508.97491 2.05154
3506.92647 2.05305
3504.87803 2.05158
3502.82959 2.05150
3500.78115 2.05387
3498.73272 2.05498
3496.68428 2.05702
3494.63584 2.06128
3492.58740 2.06412
3490.53896 2.06552
3488.49052 2.06704
3486.44209 2.06790
3484.39365 2.06755
3482.34521 2.06697
3480.29677 2.06778
3478.24833 2.06960
3476.19989 2.07130
3474.15146 2.07257
3472.10302 2.07404
3470.05458 2.07590
3468.00614 2.07587
3465.95770 2.07509
3463.90926 2.07921
3461.86082 2.08532
3459.81239 2.08542
3457.76395 2.08220
3455.71551 2.08130
3453.66707 2.08092
3451.61863 2.08028
3449.57019 2.08328
3447.52176 2.08860
3445.47332 2.08960
3443.42488 2.08630
3441.37644 2.08318
3439.32800 2.08164
3437.27956 2.08281
3435.23113 2.08629
3433.18269 2.08707
3431.13425 2.08484
3429.08581 2.08366
3427.03737 2.08431
3424.98893 2.08778
3422.94050 2.09172
3420.89206 2.09218
3418.84362 2.09162
3416.79518 2.09152
3414.74674 2.09134
3412.69830 2.09248
3410.64987 2.09488
3408.60143 2.09607
3406.55299 2.09615
3404.50455 2.09695
3402.45611 2.09647
3400.40767 2.09356
3398.35924 2.09106
3396.31080 2.09138
3394.26236 2.09356
3392.21392 2.09467
3390.16548 2.09339
3388.11704 2.09184
3386.06861 2.09326
3384.02017 2.09447
3381.97173 2.09284
3379.92329 2.09345
3377.87485 2.09456
3375.82641 2.09310
3373.77798 2.09291
3371.72954 2.09230
3369.68110 2.08846
3367.63266 2.08486
3365.58422 2.08381
3363.53578 2.08351
3361.48735 2.08377
3359.43891 2.08555
3357.39047 2.08660
3355.34203 2.08459
3353.29359 2.08148
3351.24515 2.08093
3349.19672 2.08225
3347.14828 2.08194
3345.09984 2.07923
3343.05140 2.07744
3341.00296 2.07849
3338.95452 2.07955
3336.90609 2.07852
3334.85765 2.07607
3332.80921 2.07438
3330.76077 2.07555
3328.71233 2.07878
3326.66389 2.08166
3324.61545 2.08260
3322.56702 2.08382
3320.51858 2.08557
3318.47014 2.08367
3316.42170 2.08031
3314.37326 2.08015
3312.32482 2.08150
3310.27639 2.08100
3308.22795 2.08007
3306.17951 2.07996
3304.13107 2.07905
3302.08263 2.07824
3300.03419 2.07634
3297.98576 2.07308
3295.93732 2.07235
3293.88888 2.07304
3291.84044 2.07295
3289.79200 2.07374
3287.74356 2.07434
3285.69513 2.07219
3283.64669 2.06856
3281.59825 2.06629
3279.54981 2.06568
3277.50137 2.06621
3275.45293 2.06817
3273.40450 2.06926
3271.35606 2.06817
3269.30762 2.06705
3267.25918 2.06767
3265.21074 2.07075
3263.16230 2.07352
3261.11387 2.07243
3259.06543 2.06899
3257.01699 2.06572
3254.96855 2.06450
3252.92011 2.06612
3250.87167 2.06688
3248.82324 2.06614
3246.77480 2.06608
3244.72636 2.06520
3242.67792 2.06394
3240.62948 2.06382
3238.58104 2.06334
3236.53261 2.06115
3234.48417 2.05934
3232.43573 2.05985
3230.38729 2.06110
3228.33885 2.06168
3226.29041 2.06144
3224.24198 2.06094
3222.19354 2.06157
3220.14510 2.06279
3218.09666 2.06246
3216.04822 2.06074
3213.99978 2.05852
3211.95135 2.05653
3209.90291 2.05556
3207.85447 2.05470
3205.80603 2.05270
3203.75759 2.05007
3201.70915 2.04869
3199.66072 2.04806
3197.61228 2.04648
3195.56384 2.04547
3193.51540 2.04682
3191.46696 2.04776
3189.41852 2.04616
3187.37008 2.04416
3185.32165 2.04190
3183.27321 2.03913
3181.22477 2.03831
3179.17633 2.03920
3177.12789 2.03924
3175.07945 2.03818
3173.03102 2.03673
3170.98258 2.03667
3168.93414 2.03814
3166.88570 2.03759
3164.83726 2.03514
3162.78882 2.03346
3160.74039 2.03276
3158.69195 2.03228
3156.64351 2.03133
3154.59507 2.02985
3152.54663 2.02849
3150.49819 2.02785
3148.44976 2.02797
3146.40132 2.02796
3144.35288 2.02720
3142.30444 2.02586
3140.25600 2.02517
3138.20756 2.02452
3136.15913 2.02143
3134.11069 2.01876
3132.06225 2.01967
3130.01381 2.02073
3127.96537 2.01947
3125.91693 2.01848
3123.86850 2.01931
3121.82006 2.01885
3119.77162 2.01617
3117.72318 2.01537
3115.67474 2.01633
3113.62630 2.01489
3111.57787 2.01266
3109.52943 2.01204
3107.48099 2.01144
3105.43255 2.00976
3103.38411 2.00622
3101.33567 2.00142
3099.28724 1.99724
3097.23880 1.99429
3095.19036 1.99361
3093.14192 1.99489
3091.09348 1.99579
3089.04504 1.99549
3086.99661 1.99458
3084.94817 1.99395
3082.89973 1.99309
3080.85129 1.99182
3078.80285 1.99076
3076.75441 1.98950
3074.70598 1.98804
3072.65754 1.98661
3070.60910 1.98616
3068.56066 1.98619
3066.51222 1.98473
3064.46378 1.98266
3062.41535 1.98133
3060.36691 1.98083
3058.31847 1.98135
3056.27003 1.98094
3054.22159 1.97745
3052.17315 1.97427
3050.12471 1.97451
3048.07628 1.97484
3046.02784 1.97359
3043.97940 1.97365
3041.93096 1.97426
3039.88252 1.97325
3037.83408 1.97241
3035.78565 1.97164
3033.73721 1.96891
3031.68877 1.96572
3029.64033 1.96443
3027.59189 1.96443
3025.54345 1.96270
3023.49502 1.95849
3021.44658 1.95547
3019.39814 1.95469
3017.34970 1.95458
3015.30126 1.95510
3013.25282 1.95421
3011.20439 1.95106
3009.15595 1.94883
3007.10751 1.94815
3005.05907 1.94764
3003.01063 1.94647
3000.96219 1.94439
2998.91376 1.94381
2996.86532 1.94440
2994.81688 1.94276
2992.76844 1.94019
2990.72000 1.93931
2988.67156 1.93847
2986.62313 1.93594
2984.57469 1.93350
2982.52625 1.93212
2980.47781 1.93097
2978.42937 1.93072
2976.38093 1.93098
2974.33250 1.93015
2972.28406 1.92899
2970.23562 1.92858
2968.18718 1.92852
2966.13874 1.92822
2964.09030 1.92730
2962.04187 1.92662
2959.99343 1.92665
2957.94499 1.92569
2955.89655 1.92374
2953.84811 1.92285
2951.79967 1.92283
2949.75124 1.92297
2947.70280 1.92321
2945.65436 1.92332
2943.60592 1.92363
2941.55748 1.92301
2939.50904 1.92157
2937.46061 1.92181
2935.41217 1.92276
2933.36373 1.92336
2931.31529 1.92409
2929.26685 1.92308
2927.21841 1.92006
2925.16998 1.91722
2923.12154 1.91595
2921.07310 1.91534
2919.02466 1.91373
2916.97622 1.91170
2914.92778 1.90935
2912.87934 1.90571
2910.83091 1.90210
2908.78247 1.89966
2906.73403 1.89761
2904.68559 1.89596
2902.63715 1.89438
2900.58871 1.89289
2898.54028 1.89173
2896.49184 1.89004
2894.44340 1.88782
2892.39496 1.88516
2890.34652 1.88263
2888.29808 1.88173
2886.24965 1.88204
2884.20121 1.88228
2882.15277 1.88273
2880.10433 1.88312
2878.05589 1.88219
2876.00745 1.87961
2873.95902 1.87649
2871.91058 1.87460
2869.86214 1.87395
2867.81370 1.87331
2865.76526 1.87198
2863.71682 1.87069
2861.66839 1.87099
2859.61995 1.87221
2857.57151 1.87277
2855.52307 1.87305
2853.47463 1.87312
2851.42619 1.87248
2849.37776 1.87048
2847.32932 1.86645
2845.28088 1.86260
2843.23244 1.86084
2841.18400 1.85975
2839.13556 1.85807
2837.08713 1.85524
2835.03869 1.85095
2832.99025 1.84742
2830.94181 1.84627
2828.89337 1.84590
2826.84493 1.84547
2824.79650 1.84519
2822.74806 1.84502
2820.69962 1.84479
2818.65118 1.84322
2816.60274 1.84121
2814.55430 1.84069
2812.50587 1.83961
2810.45743 1.83718
2808.40899 1.83542
2806.36055 1.83482
2804.31211 1.83508
2802.26367 1.83492
2800.21524 1.83341
2798.16680 1.83132
2796.11836 1.83076
2794.06992 1.83260
2792.02148 1.83390
2789.97304 1.83252
2787.92461 1.83104
2785.87617 1.83103
2783.82773 1.83094
2781.77929 1.83075
2779.73085 1.83066
2777.68241 1.83029
2775.63397 1.82962
2773.58554 1.82879
2771.53710 1.82887
2769.48866 1.82999
2767.44022 1.83034
2765.39178 1.82842
2763.34334 1.82594
2761.29491 1.82446
2759.24647 1.82344
2757.19803 1.82324
2755.14959 1.82380
2753.10115 1.82385
2751.05271 1.82378
2749.00428 1.82479
2746.95584 1.82589
2744.90740 1.82539
2742.85896 1.82304
2740.81052 1.82136
2738.76208 1.82204
2736.71365 1.82295
2734.66521 1.82348
2732.61677 1.82405
2730.56833 1.82271
2728.51989 1.81967
2726.47145 1.81829
2724.42302 1.81802
2722.37458 1.81654
2720.32614 1.81557
2718.27770 1.81557
2716.22926 1.81446
2714.18082 1.81288
2712.13239 1.81243
2710.08395 1.81210
2708.03551 1.81126
2705.98707 1.81044
2703.93863 1.80944
2701.89019 1.80858
2699.84176 1.80774
2697.79332 1.80681
2695.74488 1.80667
2693.69644 1.80717
2691.64800 1.80725
2689.59956 1.80644
2687.55113 1.80510
2685.50269 1.80390
2683.45425 1.80333
2681.40581 1.80316
2679.35737 1.80252
2677.30893 1.80124
2675.26050 1.79999
2673.21206 1.79926
2671.16362 1.79955
2669.11518 1.80014
2667.06674 1.79971
2665.01830 1.79912
2662.96987 1.79870
2660.92143 1.79768
2658.87299 1.79625
2656.82455 1.79463
2654.77611 1.79361
2652.72767 1.79401
2650.67924 1.79526
2648.63080 1.79647
2646.58236 1.79719
2644.53392 1.79717
2642.48548 1.79684
2640.43704 1.79672
2638.38860 1.79626
2636.34017 1.79535
2634.29173 1.79461
2632.24329 1.79391
2630.19485 1.79332
2628.14641 1.79296
2626.09797 1.79190
2624.04954 1.79010
2622.00110 1.78879
2619.95266 1.78813
2617.90422 1.78772
2615.85578 1.78730
2613.80734 1.78700
2611.75891 1.78673
2609.71047 1.78565
2607.66203 1.78491
2605.61359 1.78561
2603.56515 1.78652
2601.51671 1.78640
2599.46828 1.78566
2597.41984 1.78615
2595.37140 1.78773
2593.32296 1.78890
2591.27452 1.78937
2589.22608 1.78941
2587.17765 1.78991
2585.12921 1.79077
2583.08077 1.79126
2581.03233 1.79241
2578.98389 1.79474
2576.93545 1.79708
2574.88702 1.79850
2572.83858 1.79889
2570.79014 1.79881
2568.74170 1.79841
2566.69326 1.79789
2564.64482 1.79783
2562.59639 1.79818
2560.54795 1.79866
2558.49951 1.79884
2556.45107 1.79819
2554.40263 1.79748
2552.35419 1.79720
2550.30576 1.79662
2548.25732 1.79589
2546.20888 1.79581
2544.16044 1.79633
2542.11200 1.79611
2540.06356 1.79487
2538.01513 1.79402
2535.96669 1.79386
2533.91825 1.79417
2531.86981 1.79471
2529.82137 1.79497
2527.77293 1.79497
2525.72450 1.79449
2523.67606 1.79400
2521.62762 1.79457
2519.57918 1.79504
2517.53074 1.79420
2515.48230 1.79371
2513.43387 1.79444
2511.38543 1.79526
2509.33699 1.79573
2507.28855 1.79595
2505.24011 1.79587
2503.19167 1.79524
2501.14324 1.79400
2499.09480 1.79234
2497.04636 1.79062
2494.99792 1.79047
2492.94948 1.79156
2490.90104 1.79064
2488.85260 1.78815
2486.80417 1.78727
2484.75573 1.78824
2482.70729 1.78929
2480.65885 1.78901
2478.61041 1.78806
2476.56197 1.78792
2474.51354 1.78781
2472.46510 1.78686
2470.41666 1.78613
2468.36822 1.78612
2466.31978 1.78613
2464.27134 1.78650
2462.22291 1.78746
2460.17447 1.78789
2458.12603 1.78710
2456.07759 1.78588
2454.02915 1.78531
2451.98071 1.78582
2449.93228 1.78629
2447.88384 1.78542
2445.83540 1.78449
2443.78696 1.78430
2441.73852 1.78355
2439.69008 1.78250
2437.64165 1.78226
2435.59321 1.78253
2433.54477 1.78251
2431.49633 1.78225
2429.44789 1.78268
2427.39945 1.78350
2425.35102 1.78336
2423.30258 1.78249
2421.25414 1.78182
2419.20570 1.78188
2417.15726 1.78198
2415.10882 1.78126
2413.06039 1.78077
2411.01195 1.78091
2408.96351 1.78080
2406.91507 1.78101
2404.86663 1.78209
2402.81819 1.78269
2400.76976 1.78200
2398.72132 1.78076
2396.67288 1.78011
2394.62444 1.78013
2392.57600 1.77968
2390.52756 1.77892
2388.47913 1.77910
2386.43069 1.78052
2384.38225 1.78175
2382.33381 1.78220
2380.28537 1.78336
2378.23693 1.78507
2376.18850 1.78628
2374.14006 1.78766
2372.09162 1.78861
2370.04318 1.78857
2367.99474 1.78844
2365.94630 1.78731
2363.89787 1.78410
2361.84943 1.77964
2359.80099 1.77668
2357.75255 1.78005
2355.70411 1.78501
2353.65567 1.78326
2351.60723 1.78079
2349.55880 1.78032
2347.51036 1.77942
2345.46192 1.77967
2343.41348 1.78000
2341.36504 1.77653
2339.31660 1.77505
2337.26817 1.77791
2335.21973 1.78073
2333.17129 1.78189
2331.12285 1.78224
2329.07441 1.78078
2327.02597 1.77842
2324.97754 1.77827
2322.92910 1.78026
2320.88066 1.78232
2318.83222 1.78352
2316.78378 1.78499
2314.73534 1.78554
2312.68691 1.78430
2310.63847 1.78471
2308.59003 1.78683
2306.54159 1.78784
2304.49315 1.78902
2302.44471 1.79217
2300.39628 1.79488
2298.34784 1.79505
2296.29940 1.79459
2294.25096 1.79465
2292.20252 1.79413
2290.15408 1.79327
2288.10565 1.79325
2286.05721 1.79400
2284.00877 1.79502
2281.96033 1.79567
2279.91189 1.79516
2277.86345 1.79368
2275.81502 1.79234
2273.76658 1.79239
2271.71814 1.79317
2269.66970 1.79283
2267.62126 1.79195
2265.57282 1.79183
2263.52439 1.79155
2261.47595 1.79087
2259.42751 1.79108
2257.37907 1.79199
2255.33063 1.79208
2253.28219 1.79148
2251.23376 1.79125
2249.18532 1.79125
2247.13688 1.79109
2245.08844 1.79075
2243.04000 1.79003
2240.99156 1.78934
2238.94313 1.78962
2236.89469 1.78983
2234.84625 1.78903
2232.79781 1.78899
2230.74937 1.78992
2228.70093 1.79085
2226.65250 1.79243
2224.60406 1.79422
2222.55562 1.79505
2220.50718 1.79554
2218.45874 1.79591
2216.41030 1.79583
2214.36186 1.79552
2212.31343 1.79516
2210.26499 1.79583
2208.21655 1.79689
2206.16811 1.79666
2204.11967 1.79679
2202.07123 1.79837
2200.02280 1.79947
2197.97436 1.79904
2195.92592 1.79758
2193.87748 1.79602
2191.82904 1.79532
2189.78060 1.79490
2187.73217 1.79406
2185.68373 1.79362
2183.63529 1.79384
2181.58685 1.79418
2179.53841 1.79407
2177.48997 1.79351
2175.44154 1.79381
2173.39310 1.79534
2171.34466 1.79634
2169.29622 1.79584
2167.24778 1.79525
2165.19934 1.79581
2163.15091 1.79670
2161.10247 1.79683
2159.05403 1.79648
2157.00559 1.79623
2154.95715 1.79608
2152.90871 1.79635
2150.86028 1.79682
2148.81184 1.79644
2146.76340 1.79573
2144.71496 1.79568
2142.66652 1.79599
2140.61808 1.79596
2138.56965 1.79560
2136.52121 1.79532
2134.47277 1.79476
2132.42433 1.79355
2130.37589 1.79206
2128.32745 1.79095
2126.27902 1.79029
2124.23058 1.78980
2122.18214 1.78934
2120.13370 1.78917
2118.08526 1.78958
2116.03682 1.78981
2113.98839 1.78927
2111.93995 1.78855
2109.89151 1.78863
2107.84307 1.78924
2105.79463 1.78906
2103.74619 1.78845
2101.69776 1.78863
2099.64932 1.78966
2097.60088 1.79106
2095.55244 1.79225
2093.50400 1.79291
2091.45556 1.79314
2089.40713 1.79331
2087.35869 1.79345
2085.31025 1.79351
2083.26181 1.79401
2081.21337 1.79489
2079.16493 1.79511
2077.11649 1.79429
2075.06806 1.79389
2073.01962 1.79525
2070.97118 1.79802
2068.92274 1.80107
2066.87430 1.80284
2064.82586 1.80333
2062.77743 1.80374
2060.72899 1.80400
2058.68055 1.80452
2056.63211 1.80592
2054.58367 1.80721
2052.53523 1.80735
2050.48680 1.80649
2048.43836 1.80484
2046.38992 1.80278
2044.34148 1.80100
2042.29304 1.79979
2040.24460 1.79922
2038.19617 1.79853
2036.14773 1.79723
2034.09929 1.79586
2032.05085 1.79523
2030.00241 1.79568
2027.95397 1.79580
2025.90554 1.79449
2023.85710 1.79315
2021.80866 1.79345
2019.76022 1.79447
2017.71178 1.79479
2015.66334 1.79522
2013.61491 1.79572
2011.56647 1.79567
2009.51803 1.79563
2007.46959 1.79529
2005.42115 1.79457
2003.37271 1.79487
2001.32428 1.79599
1999.27584 1.79630
1997.22740 1.79568
1995.17896 1.79495
1993.13052 1.79442
1991.08208 1.79402
1989.03365 1.79410
1986.98521 1.79460
1984.93677 1.79474
1982.88833 1.79472
1980.83989 1.79539
1978.79145 1.79662
1976.74302 1.79786
1974.69458 1.79910
1972.64614 1.80002
1970.59770 1.79998
1968.54926 1.79937
1966.50082 1.79916
1964.45239 1.79914
1962.40395 1.79856
1960.35551 1.79802
1958.30707 1.79793
1956.25863 1.79761
1954.21019 1.79651
1952.16176 1.79516
1950.11332 1.79410
1948.06488 1.79291
1946.01644 1.79144
1943.96800 1.79034
1941.91956 1.79023
1939.87112 1.79072
1937.82269 1.79021
1935.77425 1.78855
1933.72581 1.78734
1931.67737 1.78697
1929.62893 1.78682
1927.58049 1.78684
1925.53206 1.78674
1923.48362 1.78620
1921.43518 1.78608
1919.38674 1.78563
1917.33830 1.78371
1915.28986 1.78279
1913.24143 1.78313
1911.19299 1.78225
1909.14455 1.78038
1907.09611 1.77941
1905.04767 1.77932
1902.99923 1.77935
1900.95080 1.77945
1898.90236 1.77984
1896.85392 1.78037
1894.80548 1.78114
1892.75704 1.78259
1890.70860 1.78462
1888.66017 1.78681
1886.61173 1.78865
1884.56329 1.79026
1882.51485 1.79111
1880.46641 1.79080
1878.41797 1.79018
1876.36954 1.78953
1874.32110 1.78876
1872.27266 1.78823
1870.22422 1.78818
1868.17578 1.78881
1866.12734 1.78978
1864.07891 1.78983
1862.03047 1.78875
1859.98203 1.78744
1857.93359 1.78661
1855.88515 1.78606
1853.83671 1.78590
1851.78828 1.78621
1849.73984 1.78634
1847.69140 1.78587
1845.64296 1.78453
1843.59452 1.78432
1841.54608 1.78637
1839.49765 1.78797
1837.44921 1.78906
1835.40077 1.78997
1833.35233 1.79006
1831.30389 1.78975
1829.25545 1.78989
1827.20702 1.79003
1825.15858 1.78902
1823.11014 1.78800
1821.06170 1.78797
1819.01326 1.78809
1816.96482 1.78876
1814.91639 1.79096
1812.86795 1.79334
1810.81951 1.79430
1808.77107 1.79552
1806.72263 1.79836
1804.67419 1.80082
1802.62575 1.80211
1800.57732 1.80390
1798.52888 1.80628
1796.48044 1.80816
1794.43200 1.80958
1792.38356 1.81064
1790.33512 1.81077
1788.28669 1.80989
1786.23825 1.80857
1784.18981 1.80725
1782.14137 1.80612
1780.09293 1.80555
1778.04449 1.80613
1775.99606 1.80684
1773.94762 1.80602
1771.89918 1.80434
1769.85074 1.80430
1767.80230 1.80561
1765.75386 1.80780
1763.70543 1.80984
1761.65699 1.81111
1759.60855 1.81200
1757.56011 1.81324
1755.51167 1.81485
1753.46323 1.81553
1751.41480 1.81531
1749.36636 1.81621
1747.31792 1.81810
1745.26948 1.81929
1743.22104 1.82025
1741.17260 1.82183
1739.12417 1.82373
1737.07573 1.82415
1735.02729 1.82378
1732.97885 1.82639
1730.93041 1.83092
1728.88197 1.83507
1726.83354 1.83820
1724.78510 1.84096
1722.73666 1.84505
1720.68822 1.84922
1718.63978 1.85235
1716.59134 1.85766
1714.54291 1.86606
1712.49447 1.87267
1710.44603 1.87732
1708.39759 1.88041
1706.34915 1.88205
1704.30071 1.88383
1702.25228 1.88649
1700.20384 1.88947
1698.15540 1.89241
1696.10696 1.89628
1694.05852 1.90179
1692.01008 1.90604
1689.96165 1.91056
1687.91321 1.91615
1685.86477 1.92008
1683.81633 1.92829
1681.76789 1.94273
1679.71945 1.95359
1677.67102 1.96138
1675.62258 1.96762
1673.57414 1.97194
1671.52570 1.97492
1669.47726 1.98262
1667.42882 1.99297
1665.38038 1.99904
1663.33195 2.00382
1661.28351 2.00823
1659.23507 2.01167
1657.18663 2.01522
1655.13819 2.01985
1653.08975 2.02701
1651.04132 2.02850
1648.99288 2.02731
1646.94444 2.02921
1644.89600 2.03385
1642.84756 2.03597
1640.79912 2.03767
1638.75069 2.04167
1636.70225 2.04642
1634.65381 2.04548
1632.60537 2.04245
1630.55693 2.04015
1628.50849 2.03781
1626.46006 2.03710
1624.41162 2.03677
1622.36318 2.03369
1620.31474 2.02997
1618.26630 2.02792
1616.21786 2.02671
1614.16943 2.02329
1612.12099 2.01891
1610.07255 2.01566
1608.02411 2.01233
1605.97567 2.00735
1603.92723 2.00306
1601.87880 2.00042
1599.83036 1.99756
1597.78192 1.99446
1595.73348 1.99213
1593.68504 1.99084
1591.63660 1.98955
1589.58817 1.98751
1587.53973 1.98609
1585.49129 1.98502
1583.44285 1.98315
1581.39441 1.98141
1579.34597 1.98082
1577.29754 1.98073
1575.24910 1.97995
1573.20066 1.97977
1571.15222 1.98071
1569.10378 1.98218
1567.05534 1.98371
1565.00691 1.98630
1562.95847 1.98914
1560.91003 1.99000
1558.86159 1.99031
1556.81315 1.99481
1554.76471 1.99868
1552.71628 2.00116
1550.66784 2.00214
1548.61940 2.00208
1546.57096 2.00286
1544.52252 2.00513
1542.47408 2.00601
1540.42565 2.00223
1538.37721 1.99997
1536.32877 1.99946
1534.28033 1.99865
1532.23189 1.99736
1530.18345 1.99531
1528.13501 1.99301
1526.08658 1.98991
1524.03814 1.98593
1521.98970 1.98111
1519.94126 1.97812
1517.89282 1.97909
1515.84438 1.98023
1513.79595 1.97989
1511.74751 1.98006
1509.69907 1.98067
1507.65063 1.97687
1505.60219 1.96839
1503.55375 1.96492
1501.50532 1.96295
1499.45688 1.96177
1497.40844 1.96113
1495.36000 1.95996
1493.31156 1.95965
1491.26312 1.96054
1489.21469 1.96009
1487.16625 1.95678
1485.11781 1.95368
1483.06937 1.95202
1481.02093 1.95174
1478.97249 1.95281
1476.92406 1.95523
1474.87562 1.95821
1472.82718 1.96035
1470.77874 1.96080
1468.73030 1.96141
1466.68186 1.96324
1464.63343 1.96535
1462.58499 1.96553
1460.53655 1.96468
1458.48811 1.96343
1456.43967 1.96170
1454.39123 1.96116
1452.34280 1.96092
1450.29436 1.96088
1448.24592 1.95872
1446.19748 1.95289
1444.14904 1.94860
1442.10060 1.94695
1440.05217 1.94545
1438.00373 1.94418
1435.95529 1.94423
1433.90685 1.94459
1431.85841 1.94456
1429.80997 1.94466
1427.76154 1.94537
1425.71310 1.94596
1423.66466 1.94595
1421.61622 1.94600
1419.56778 1.94664
1417.51934 1.94843
1415.47091 1.95024
1413.42247 1.95046
1411.37403 1.94924
1409.32559 1.94812
1407.27715 1.94794
1405.22871 1.94721
1403.18028 1.94440
1401.13184 1.94184
1399.08340 1.94147
1397.03496 1.94236
1394.98652 1.94217
1392.93808 1.94034
1390.88965 1.93847
1388.84121 1.93860
1386.79277 1.94120
1384.74433 1.94297
1382.69589 1.94233
1380.64745 1.94017
1378.59901 1.93783
1376.55058 1.93605
1374.50214 1.93476
1372.45370 1.93360
1370.40526 1.93168
1368.35682 1.92869
1366.30838 1.92573
1364.25995 1.92384
1362.21151 1.92284
1360.16307 1.92216
1358.11463 1.92127
1356.06619 1.91955
1354.01775 1.91746
1351.96932 1.91621
1349.92088 1.91540
1347.87244 1.91379
1345.82400 1.91166
1343.77556 1.91009
1341.72712 1.90929
1339.67869 1.90915
1337.63025 1.90935
1335.58181 1.90991
1333.53337 1.91102
1331.48493 1.91267
1329.43649 1.91532
1327.38806 1.91825
1325.33962 1.91998
1323.29118 1.92102
1321.24274 1.92225
1319.19430 1.92294
1317.14586 1.92308
1315.09743 1.92360
1313.04899 1.92418
1311.00055 1.92385
1308.95211 1.92273
1306.90367 1.92265
1304.85523 1.92433
1302.80680 1.92607
1300.75836 1.92733
1298.70992 1.92984
1296.66148 1.93321
1294.61304 1.93562
1292.56460 1.93756
1290.51617 1.93952
1288.46773 1.94067
1286.41929 1.94140
1284.37085 1.94317
1282.32241 1.94622
1280.27397 1.94920
1278.22554 1.95155
1276.17710 1.95499
1274.12866 1.95935
1272.08022 1.96311
1270.03178 1.96683
1267.98334 1.97012
1265.93491 1.97227
1263.88647 1.97364
1261.83803 1.97339
1259.78959 1.97184
1257.74115 1.97152
1255.69271 1.97262
1253.64428 1.97487
1251.59584 1.97987
1249.54740 1.98770
1247.49896 1.99585
1245.45052 2.00239
1243.40208 2.00914
1241.35364 2.01807
1239.30521 2.02846
1237.25677 2.03879
1235.20833 2.04813
1233.15989 2.05740
1231.11145 2.06797
1229.06301 2.07894
1227.01458 2.08952
1224.96614 2.10023
1222.91770 2.10950
1220.86926 2.11733
1218.82082 2.12690
1216.77238 2.13798
1214.72395 2.14673
1212.67551 2.15333
1210.62707 2.16098
1208.57863 2.16900
1206.53019 2.17583
1204.48175 2.18350
1202.43332 2.19257
1200.38488 2.20049
1198.33644 2.20723
1196.28800 2.21331
1194.23956 2.21918
1192.19112 2.22517
1190.14269 2.23050
1188.09425 2.23608
1186.04581 2.24178
1183.99737 2.24842
1181.94893 2.25634
1179.90049 2.26272
1177.85206 2.26685
1175.80362 2.27026
1173.75518 2.27588
1171.70674 2.28355
1169.65830 2.28873
1167.60986 2.29116
1165.56143 2.29298
1163.51299 2.29522
1161.46455 2.29902
1159.41611 2.30291
1157.36767 2.30524
1155.31923 2.30529
1153.27080 2.30437
1151.22236 2.30596
1149.17392 2.31110
1147.12548 2.31822
1145.07704 2.32332
1143.02860 2.32423
1140.98017 2.32541
1138.93173 2.33102
1136.88329 2.33754
1134.83485 2.34030
1132.78641 2.34254
1130.73797 2.34744
1128.68954 2.35262
1126.64110 2.35652
1124.59266 2.35939
1122.54422 2.36360
1120.49578 2.37125
1118.44734 2.37993
1116.39891 2.38789
1114.35047 2.39539
1112.30203 2.39881
1110.25359 2.39805
1108.20515 2.39949
1106.15671 2.40451
1104.10827 2.41106
1102.05984 2.41851
1100.01140 2.42606
1097.96296 2.43026
1095.91452 2.42989
1093.86608 2.42953
1091.81764 2.42913
1089.76921 2.42775
1087.72077 2.42946
1085.67233 2.43634
1083.62389 2.44373
1081.57545 2.44636
1079.52701 2.44473
1077.47858 2.44425
1075.43014 2.45037
1073.38170 2.45688
1071.33326 2.45577
1069.28482 2.45195
1067.23638 2.45140
1065.18795 2.45341
1063.13951 2.45510
1061.09107 2.45547
1059.04263 2.45666
1056.99419 2.46044
1054.94575 2.46506
1052.89732 2.46773
1050.84888 2.46752
1048.80044 2.46699
1046.75200 2.46616
1044.70356 2.46304
1042.65512 2.46119
1040.60669 2.45996
1038.55825 2.45574
1036.50981 2.45096
1034.46137 2.44686
1032.41293 2.44571
1030.36449 2.44698
1028.31606 2.44457
1026.26762 2.44070
1024.21918 2.43878
1022.17074 2.43973
1020.12230 2.44595
1018.07386 2.45271
1016.02543 2.45624
1013.97699 2.45887
1011.92855 2.45965
1009.88011 2.45620
1007.83167 2.45101
1005.78323 2.44830
1003.73480 2.44827
1001.68636 2.44836
999.63792 2.44669
997.58948 2.44709
995.54104 2.45419
993.49260 2.46003
991.44417 2.45786
989.39573 2.45346
987.34729 2.45035
985.29885 2.45162
983.25041 2.45535
981.20197 2.45357
979.15354 2.44922
977.10510 2.44942
975.05666 2.45503
973.00822 2.45953
970.95978 2.46181
968.91134 2.47041
966.86290 2.48500
964.81447 2.49399
962.76603 2.48952
960.71759 2.48354
958.66915 2.48856
956.62071 2.49999
954.57227 2.50827
952.52384 2.50660
950.47540 2.50110
948.42696 2.50134
946.37852 2.50506
944.33008 2.51026
942.28164 2.51623
940.23321 2.51774
938.18477 2.51771
936.13633 2.52026
934.08789 2.52323
932.03945 2.52732
929.99101 2.53000
927.94258 2.52915
925.89414 2.52774
923.84570 2.52822
921.79726 2.53246
919.74882 2.54043
917.70038 2.54678
915.65195 2.54524
913.60351 2.53889
911.55507 2.53508
909.50663 2.54056
907.45819 2.54574
905.40975 2.53501
903.36132 2.52494
901.31288 2.53068
899.26444 2.53845
897.21600 2.53640
895.16756 2.53381
893.11912 2.53805
891.07069 2.54437
889.02225 2.54961
886.97381 2.54850
884.92537 2.54081
882.87693 2.53547
880.82849 2.53731
878.78006 2.54384
876.73162 2.54862
874.68318 2.54936
872.63474 2.54380
870.58630 2.53879
868.53786 2.54449
866.48943 2.55076
864.44099 2.55093
862.39255 2.55250
860.34411 2.55571
858.29567 2.55598
856.24723 2.55760
854.19880 2.56598
852.15036 2.57034
850.10192 2.56081
848.05348 2.54997
846.00504 2.54827
843.95660 2.54945
841.90817 2.55263
839.85973 2.56344
837.81129 2.57378
835.76285 2.57236
833.71441 2.57358
831.66597 2.59056
829.61753 2.61072
827.56910 2.61793
825.52066 2.60610
823.47222 2.59730
821.42378 2.61405
819.37534 2.63726
817.32690 2.64422
815.27847 2.64529
813.23003 2.64870
811.18159 2.65860
809.13315 2.67186
807.08471 2.67401
805.03627 2.66422
802.98784 2.64771
800.93940 2.65124
798.89096 2.68025
796.84252 2.69557
794.79408 2.68973
792.74564 2.69121
790.69721 2.70755
788.64877 2.72185
786.60033 2.73113
784.55189 2.74221
782.50345 2.76125
780.45501 2.78198
778.40658 2.77471
776.35814 2.74872
774.30970 2.74852
772.26126 2.77135
770.21282 2.78184
768.16438 2.78244
766.11595 2.78801
764.06751 2.80263
762.01907 2.83424
759.97063 2.88624
757.92219 2.92990
755.87375 2.96098
753.82532 3.00256
751.77688 3.00653
749.72844 2.98696
747.68000 3.00012
745.63156 3.03411
743.58312 3.08021
741.53469 3.08917
739.48625 3.03654
737.43781 3.03078
735.38937 3.09168
733.34093 3.12913
731.29249 3.12216
729.24406 3.11934
727.19562 3.16593
725.14718 3.28353
723.09874 3.38843
721.05030 3.32756
719.00186 3.22914
716.95343 3.23077
714.90499 3.28104
712.85655 3.31737
710.80811 3.32937
708.75967 3.29302
706.71123 3.28435
704.66280 3.34672
702.61436 3.39815
700.56592 3.44057
698.51748 3.48409
696.46904 3.39164
694.42060 3.19532
692.37216 3.07535
690.32373 3.05430
688.27529 3.06897
686.22685 3.09101
684.17841 3.08528
682.12997 3.02917
680.08153 2.98240
678.03310 2.99535
675.98466 3.03322
673.93622 3.01195
671.88778 2.96638
669.83934 2.94007
667.79090 2.76902
665.74247 2.57007
663.69403 2.46756
661.64559 2.40252
659.59715 2.33553
657.54871 2.25659
655.50027 2.18624
653.45184 2.12680
651.40340 2.06582
649.35496 2.00225
647.30652 1.95612
645.25808 1.93494
643.20964 1.92381
641.16121 1.90785
639.11277 1.88657
637.06433 1.86951
635.01589 1.85516
632.96745 1.84108
630.91901 1.81914
628.87058 1.78833
626.82214 1.76900
624.77370 1.76058
622.72526 1.74658
620.67682 1.73265
618.62838 1.72718
616.57995 1.72755
614.53151 1.72495
612.48307 1.71238
610.43463 1.70294
608.38619 1.69647
606.33775 1.68159
604.28932 1.65879
602.24088 1.63151
600.19244 1.61982
598.14400 1.62798
