3996.50324 1.78400
3994.45480 1.79066
3992.40636 1.79826
3990.35792 1.80457
3988.30948 1.81064
3986.26104 1.81739
3984.21261 1.82418
3982.16417 1.83031
3980.11573 1.83600
3978.06729 1.84218
3976.01885 1.84927
3973.97041 1.85641
3971.92198 1.86305
3969.87354 1.86938
3967.82510 1.87369
3965.77666 1.87629
3963.72822 1.87994
3961.67978 1.88372
3959.63135 1.88463
3957.58291 1.88350
3955.53447 1.88360
3953.48603 1.88590
3951.43759 1.88836
3949.38915 1.88823
3947.34072 1.88517
3945.29228 1.88154
3943.24384 1.87671
3941.19540 1.87061
3939.14696 1.86488
3937.09852 1.85840
3935.05009 1.85058
3933.00165 1.84114
3930.95321 1.83253
3928.90477 1.82668
3926.85633 1.82126
3924.80789 1.81365
3922.75946 1.80437
3920.71102 1.79718
3918.66258 1.79174
3916.61414 1.78570
3914.56570 1.77911
3912.51726 1.77247
3910.46883 1.76595
3908.42039 1.76090
3906.37195 1.75680
3904.32351 1.75102
3902.27507 1.74343
3900.22663 1.73771
3898.17820 1.73423
3896.12976 1.72994
3894.08132 1.72482
3892.03288 1.72054
3889.98444 1.71711
3887.93600 1.71404
3885.88756 1.71281
3883.83913 1.71444
3881.79069 1.71539
3879.74225 1.71217
3877.69381 1.70842
3875.64537 1.70807
3873.59693 1.70930
3871.54850 1.70763
3869.50006 1.70409
3867.45162 1.70282
3865.40318 1.70306
3863.35474 1.70300
3861.30630 1.70334
3859.25787 1.70600
3857.20943 1.70917
3855.16099 1.71344
3853.11255 1.72297
3851.06411 1.72333
3849.01567 1.71811
3846.96724 1.71556
3844.91880 1.71555
3842.87036 1.71800
3840.82192 1.72482
3838.77348 1.73407
3836.72504 1.73856
3834.67661 1.74026
3832.62817 1.74375
3830.57973 1.74688
3828.53129 1.74780
3826.48285 1.74980
3824.43441 1.75531
3822.38598 1.76562
3820.33754 1.78133
3818.28910 1.78922
3816.24066 1.79128
3814.19222 1.79293
3812.14378 1.79660
3810.09535 1.80297
3808.04691 1.81168
3805.99847 1.82356
3803.95003 1.83345
3801.90159 1.83945
3799.85315 1.84254
3797.80472 1.84662
3795.75628 1.85289
3793.70784 1.85761
3791.65940 1.86008
3789.61096 1.86162
3787.56252 1.86322
3785.51409 1.86402
3783.46565 1.86371
3781.41721 1.86470
3779.36877 1.86606
3777.32033 1.86498
3775.27189 1.86121
3773.22346 1.85551
3771.17502 1.85032
3769.12658 1.84776
3767.07814 1.84428
3765.02970 1.83709
3762.98126 1.83000
3760.93283 1.82468
3758.88439 1.82124
3756.83595 1.81825
3754.78751 1.81334
3752.73907 1.80839
3750.69063 1.80124
3748.64219 1.79102
3746.59376 1.78725
3744.54532 1.78703
3742.49688 1.77897
3740.44844 1.76802
3738.40000 1.76005
3736.35156 1.75580
3734.30313 1.75015
3732.25469 1.74130
3730.20625 1.73526
3728.15781 1.73101
3726.10937 1.72686
3724.06093 1.72431
3722.01250 1.72131
3719.96406 1.71581
3717.91562 1.71127
3715.86718 1.70830
3713.81874 1.70656
3711.77030 1.70709
3709.72187 1.70708
3707.67343 1.70548
3705.62499 1.70538
3703.57655 1.70667
3701.52811 1.70858
3699.47967 1.70874
3697.43124 1.70711
3695.38280 1.70601
3693.33436 1.70526
3691.28592 1.70732
3689.23748 1.71455
3687.18904 1.71553
3685.14061 1.71190
3683.09217 1.71122
3681.04373 1.71307
3678.99529 1.71458
3676.94685 1.71880
3674.89841 1.73087
3672.84998 1.73601
3670.80154 1.73632
3668.75310 1.74128
3666.70466 1.74571
3664.65622 1.74932
3662.60778 1.75362
3660.55935 1.75764
3658.51091 1.76246
3656.46247 1.76989
3654.41403 1.77635
3652.36559 1.77935
3650.31715 1.78470
3648.26872 1.79941
3646.22028 1.81083
3644.17184 1.81657
3642.12340 1.82243
3640.07496 1.82914
3638.02652 1.83537
3635.97809 1.84181
3633.92965 1.85012
3631.88121 1.85832
3629.83277 1.86800
3627.78433 1.88056
3625.73589 1.88523
3623.68746 1.88709
3621.63902 1.88867
3619.59058 1.88888
3617.54214 1.89031
3615.49370 1.89542
3613.44526 1.90196
3611.39682 1.90489
3609.34839 1.90345
3607.29995 1.90123
3605.25151 1.89992
3603.20307 1.89807
3601.15463 1.89481
3599.10619 1.89057
3597.05776 1.88773
3595.00932 1.88643
3592.96088 1.88325
3590.91244 1.87794
3588.86400 1.87156
3586.81556 1.86372
3584.76713 1.85854
3582.71869 1.85586
3580.67025 1.85219
3578.62181 1.84683
3576.57337 1.84021
3574.52493 1.83186
3572.47650 1.82256
3570.42806 1.81548
3568.37962 1.81208
3566.33118 1.80932
3564.28274 1.80377
3562.23430 1.79637
3560.18587 1.78853
3558.13743 1.78148
3556.08899 1.77495
3554.04055 1.76922
3551.99211 1.76575
3549.94367 1.76455
3547.89524 1.76282
3545.84680 1.75928
3543.79836 1.75576
3541.74992 1.75336
3539.70148 1.75174
3537.65304 1.75015
3535.60461 1.74811
3533.55617 1.74608
3531.50773 1.74462
3529.45929 1.74427
3527.41085 1.74454
3525.36241 1.74502
3523.31398 1.74658
3521.26554 1.74702
3519.21710 1.74576
3517.16866 1.74632
3515.12022 1.74894
3513.07178 1.75167
3511.02335 1.75425
3508.97491 1.75672
3506.92647 1.75828
3504.87803 1.75887
3502.82959 1.76046
3500.78115 1.76387
3498.73272 1.76753
3496.68428 1.77119
3494.63584 1.77523
3492.58740 1.77945
3490.53896 1.78428
3488.49052 1.79005
3486.44209 1.79476
3484.39365 1.79771
3482.34521 1.80242
3480.29677 1.81021
3478.24833 1.81731
3476.19989 1.82164
3474.15146 1.82560
3472.10302 1.83160
3470.05458 1.83897
3468.00614 1.84648
3465.95770 1.85293
3463.90926 1.85839
3461.86082 1.86416
3459.81239 1.86995
3457.76395 1.87580
3455.71551 1.88286
3453.66707 1.88974
3451.61863 1.89492
3449.57019 1.89926
3447.52176 1.90335
3445.47332 1.90756
3443.42488 1.91289
3441.37644 1.91877
3439.32800 1.92253
3437.27956 1.92337
3435.23113 1.92364
3433.18269 1.92469
3431.13425 1.92503
3429.08581 1.92457
3427.03737 1.92425
3424.98893 1.92323
3422.94050 1.92069
3420.89206 1.91605
3418.84362 1.91035
3416.79518 1.90576
3414.74674 1.90247
3412.69830 1.89918
3410.64987 1.89479
3408.60143 1.88956
3406.55299 1.88302
3404.50455 1.87437
3402.45611 1.86473
3400.40767 1.85677
3398.35924 1.85192
3396.31080 1.84752
3394.26236 1.84132
3392.21392 1.83424
3390.16548 1.82740
3388.11704 1.82224
3386.06861 1.81825
3384.02017 1.81273
3381.97173 1.80607
3379.92329 1.80126
3377.87485 1.79827
3375.82641 1.79446
3373.77798 1.78970
3371.72954 1.78555
3369.68110 1.78238
3367.63266 1.77927
3365.58422 1.77589
3363.53578 1.77407
3361.48735 1.77284
3359.43891 1.77025
3357.39047 1.76916
3355.34203 1.77044
3353.29359 1.77017
3351.24515 1.76766
3349.19672 1.76622
3347.14828 1.76701
3345.09984 1.76780
3343.05140 1.76671
3341.00296 1.76491
3338.95452 1.76465
3336.90609 1.76647
3334.85765 1.76883
3332.80921 1.77063
3330.76077 1.77234
3328.71233 1.77422
3326.66389 1.77608
3324.61545 1.77732
3322.56702 1.77864
3320.51858 1.78149
3318.47014 1.78439
3316.42170 1.78619
3314.37326 1.78894
3312.32482 1.79325
3310.27639 1.79648
3308.22795 1.79899
3306.17951 1.80483
3304.13107 1.81295
3302.08263 1.81917
3300.03419 1.82336
3297.98576 1.82715
3295.93732 1.83088
3293.88888 1.83421
3291.84044 1.83747
3289.79200 1.84153
3287.74356 1.84651
3285.69513 1.85255
3283.64669 1.85930
3281.59825 1.86580
3279.54981 1.87224
3277.50137 1.87834
3275.45293 1.88319
3273.40450 1.88685
3271.35606 1.88937
3269.30762 1.89066
3267.25918 1.89193
3265.21074 1.89370
3263.16230 1.89503
3261.11387 1.89709
3259.06543 1.89996
3257.01699 1.90053
3254.96855 1.89819
3252.92011 1.89508
3250.87167 1.89144
3248.82324 1.88622
3246.77480 1.88133
3244.72636 1.87854
3242.67792 1.87591
3240.62948 1.87183
3238.58104 1.86600
3236.53261 1.85853
3234.48417 1.85129
3232.43573 1.84610
3230.38729 1.84147
3228.33885 1.83521
3226.29041 1.82824
3224.24198 1.82183
3222.19354 1.81546
3220.14510 1.80915
3218.09666 1.80412
3216.04822 1.79960
3213.99978 1.79325
3211.95135 1.78589
3209.90291 1.77999
3207.85447 1.77556
3205.80603 1.77100
3203.75759 1.76609
3201.70915 1.76165
3199.66072 1.75739
3197.61228 1.75348
3195.56384 1.74980
3193.51540 1.74558
3191.46696 1.74214
3189.41852 1.74021
3187.37008 1.73795
3185.32165 1.73478
3183.27321 1.73223
3181.22477 1.73058
3179.17633 1.72925
3177.12789 1.72838
3175.07945 1.72739
3173.03102 1.72606
3170.98258 1.72535
3168.93414 1.72489
3166.88570 1.72424
3164.83726 1.72328
3162.78882 1.72151
3160.74039 1.72039
3158.69195 1.72150
3156.64351 1.72358
3154.59507 1.72459
3152.54663 1.72435
3150.49819 1.72514
3148.44976 1.72809
3146.40132 1.73048
3144.35288 1.73162
3142.30444 1.73386
3140.25600 1.73710
3138.20756 1.73996
3136.15913 1.74187
3134.11069 1.74421
3132.06225 1.74766
3130.01381 1.75047
3127.96537 1.75353
3125.91693 1.75813
3123.86850 1.76298
3121.82006 1.76809
3119.77162 1.77425
3117.72318 1.78118
3115.67474 1.78736
3113.62630 1.79138
3111.57787 1.79515
3109.52943 1.80075
3107.48099 1.80680
3105.43255 1.81203
3103.38411 1.81771
3101.33567 1.82491
3099.28724 1.83220
3097.23880 1.83837
3095.19036 1.84377
3093.14192 1.84799
3091.09348 1.85124
3089.04504 1.85510
3086.99661 1.85894
3084.94817 1.86073
3082.89973 1.86156
3080.85129 1.86293
3078.80285 1.86399
3076.75441 1.86363
3074.70598 1.86133
3072.65754 1.85814
3070.60910 1.85536
3068.56066 1.85275
3066.51222 1.85037
3064.46378 1.84752
3062.41535 1.84198
3060.36691 1.83480
3058.31847 1.82870
3056.27003 1.82252
3054.22159 1.81523
3052.17315 1.80886
3050.12471 1.80412
3048.07628 1.79857
3046.02784 1.79056
3043.97940 1.78228
3041.93096 1.77610
3039.88252 1.77096
3037.83408 1.76514
3035.78565 1.75894
3033.73721 1.75338
3031.68877 1.74824
3029.64033 1.74265
3027.59189 1.73690
3025.54345 1.73128
3023.49502 1.72596
3021.44658 1.72150
3019.39814 1.71675
3017.34970 1.71174
3015.30126 1.70808
3013.25282 1.70484
3011.20439 1.70153
3009.15595 1.69901
3007.10751 1.69692
3005.05907 1.69483
3003.01063 1.69298
3000.96219 1.69173
2998.91376 1.69052
2996.86532 1.68881
2994.81688 1.68758
2992.76844 1.68722
2990.72000 1.68725
2988.67156 1.68789
2986.62313 1.68884
2984.57469 1.68917
2982.52625 1.68939
2980.47781 1.69059
2978.42937 1.69229
2976.38093 1.69391
2974.33250 1.69587
2972.28406 1.69838
2970.23562 1.70068
2968.18718 1.70255
2966.13874 1.70517
2964.09030 1.70878
2962.04187 1.71196
2959.99343 1.71431
2957.94499 1.71750
2955.89655 1.72233
2953.84811 1.72738
2951.79967 1.73162
2949.75124 1.73560
2947.70280 1.74016
2945.65436 1.74515
2943.60592 1.75016
2941.55748 1.75602
2939.50904 1.76304
2937.46061 1.77014
2935.41217 1.77702
2933.36373 1.78377
2931.31529 1.79044
2929.26685 1.79804
2927.21841 1.80697
2925.16998 1.81511
2923.12154 1.82112
2921.07310 1.82706
2919.02466 1.83298
2916.97622 1.83763
2914.92778 1.84047
2912.87934 1.84019
2910.83091 1.83940
2908.78247 1.84090
2906.73403 1.84242
2904.68559 1.84218
2902.63715 1.84138
2900.58871 1.84085
2898.54028 1.83936
2896.49184 1.83606
2894.44340 1.83229
2892.39496 1.82890
2890.34652 1.82376
2888.29808 1.81630
2886.24965 1.80979
2884.20121 1.80495
2882.15277 1.79979
2880.10433 1.79360
2878.05589 1.78633
2876.00745 1.77916
2873.95902 1.77260
2871.91058 1.76493
2869.86214 1.75658
2867.81370 1.74969
2865.76526 1.74380
2863.71682 1.73714
2861.66839 1.73057
2859.61995 1.72515
2857.57151 1.72031
2855.52307 1.71582
2853.47463 1.71140
2851.42619 1.70675
2849.37776 1.70131
2847.32932 1.69478
2845.28088 1.68779
2843.23244 1.68164
2841.18400 1.67755
2839.13556 1.67458
2837.08713 1.67184
2835.03869 1.66960
2832.99025 1.66726
2830.94181 1.66487
2828.89337 1.66311
2826.84493 1.66196
2824.79650 1.66129
2822.74806 1.66091
2820.69962 1.66073
2818.65118 1.66029
2816.60274 1.65894
2814.55430 1.65745
2812.50587 1.65711
2810.45743 1.65776
2808.40899 1.65836
2806.36055 1.65916
2804.31211 1.66037
2802.26367 1.66133
2800.21524 1.66272
2798.16680 1.66462
2796.11836 1.66633
2794.06992 1.66828
2792.02148 1.67119
2789.97304 1.67516
2787.92461 1.67922
2785.87617 1.68286
2783.82773 1.68680
2781.77929 1.69156
2779.73085 1.69689
2777.68241 1.70212
2775.63397 1.70749
2773.58554 1.71396
2771.53710 1.72138
2769.48866 1.72912
2767.44022 1.73693
2765.39178 1.74438
2763.34334 1.75131
2761.29491 1.75849
2759.24647 1.76666
2757.19803 1.77511
2755.14959 1.78320
2753.10115 1.79180
2751.05271 1.80138
2749.00428 1.81084
2746.95584 1.81868
2744.90740 1.82491
2742.85896 1.83082
2740.81052 1.83672
2738.76208 1.84242
2736.71365 1.84691
2734.66521 1.84930
2732.61677 1.85040
2730.56833 1.84972
2728.51989 1.84689
2726.47145 1.84345
2724.42302 1.83988
2722.37458 1.83546
2720.32614 1.82989
2718.27770 1.82313
2716.22926 1.81554
2714.18082 1.80760
2712.13239 1.79864
2710.08395 1.78940
2708.03551 1.78151
2705.98707 1.77336
2703.93863 1.76372
2701.89019 1.75425
2699.84176 1.74592
2697.79332 1.73872
2695.74488 1.73188
2693.69644 1.72458
2691.64800 1.71766
2689.59956 1.71130
2687.55113 1.70425
2685.50269 1.69670
2683.45425 1.69031
2681.40581 1.68549
2679.35737 1.68113
2677.30893 1.67662
2675.26050 1.67255
2673.21206 1.66908
2671.16362 1.66584
2669.11518 1.66263
2667.06674 1.65921
2665.01830 1.65625
2662.96987 1.65402
2660.92143 1.65181
2658.87299 1.64997
2656.82455 1.64867
2654.77611 1.64726
2652.72767 1.64584
2650.67924 1.64494
2648.63080 1.64449
2646.58236 1.64456
2644.53392 1.64475
2642.48548 1.64444
2640.43704 1.64406
2638.38860 1.64423
2636.34017 1.64499
2634.29173 1.64606
2632.24329 1.64758
2630.19485 1.65028
2628.14641 1.65373
2626.09797 1.65681
2624.04954 1.65954
2622.00110 1.66237
2619.95266 1.66571
2617.90422 1.66981
2615.85578 1.67371
2613.80734 1.67702
2611.75891 1.68082
2609.71047 1.68593
2607.66203 1.69218
2605.61359 1.69845
2603.56515 1.70398
2601.51671 1.70965
2599.46828 1.71681
2597.41984 1.72515
2595.37140 1.73290
2593.32296 1.73971
2591.27452 1.74673
2589.22608 1.75459
2587.17765 1.76288
2585.12921 1.77085
2583.08077 1.77822
2581.03233 1.78522
2578.98389 1.79203
2576.93545 1.79822
2574.88702 1.80400
2572.83858 1.80958
2570.79014 1.81467
2568.74170 1.81894
2566.69326 1.82148
2564.64482 1.82242
2562.59639 1.82222
2560.54795 1.82061
2558.49951 1.81756
2556.45107 1.81367
2554.40263 1.80934
2552.35419 1.80438
2550.30576 1.79908
2548.25732 1.79292
2546.20888 1.78526
2544.16044 1.77688
2542.11200 1.76871
2540.06356 1.76057
2538.01513 1.75259
2535.96669 1.74521
2533.91825 1.73762
2531.86981 1.72970
2529.82137 1.72212
2527.77293 1.71452
2525.72450 1.70640
2523.67606 1.69816
2521.62762 1.69064
2519.57918 1.68425
2517.53074 1.67870
2515.48230 1.67344
2513.43387 1.66855
2511.38543 1.66405
2509.33699 1.65956
2507.28855 1.65549
2505.24011 1.65246
2503.19167 1.65021
2501.14324 1.64768
2499.09480 1.64473
2497.04636 1.64231
2494.99792 1.64059
2492.94948 1.63953
2490.90104 1.63884
2488.85260 1.63785
2486.80417 1.63671
2484.75573 1.63616
2482.70729 1.63620
2480.65885 1.63608
2478.61041 1.63580
2476.56197 1.63610
2474.51354 1.63697
2472.46510 1.63827
2470.41666 1.64037
2468.36822 1.64235
2466.31978 1.64360
2464.27134 1.64499
2462.22291 1.64679
2460.17447 1.64901
2458.12603 1.65139
2456.07759 1.65344
2454.02915 1.65619
2451.98071 1.66017
2449.93228 1.66403
2447.88384 1.66704
2445.83540 1.66945
2443.78696 1.67207
2441.73852 1.67568
2439.69008 1.67994
2437.64165 1.68425
2435.59321 1.68833
2433.54477 1.69222
2431.49633 1.69664
2429.44789 1.70193
2427.39945 1.70732
2425.35102 1.71223
2423.30258 1.71686
2421.25414 1.72149
2419.20570 1.72596
2417.15726 1.73011
2415.10882 1.73403
2413.06039 1.73828
2411.01195 1.74332
2408.96351 1.74780
2406.91507 1.75120
2404.86663 1.75474
2402.81819 1.75877
2400.76976 1.76194
2398.72132 1.76302
2396.67288 1.76287
2394.62444 1.76217
2392.57600 1.76090
2390.52756 1.75917
2388.47913 1.75687
2386.43069 1.75394
2384.38225 1.75024
2382.33381 1.74606
2380.28537 1.74172
2378.23693 1.73737
2376.18850 1.73385
2374.14006 1.73020
2372.09162 1.72289
2370.04318 1.71258
2367.99474 1.70415
2365.94630 1.70171
2363.89787 1.70279
2361.84943 1.69500
2359.80099 1.67786
2357.75255 1.66599
2355.70411 1.66386
2353.65567 1.66407
2351.60723 1.66250
2349.55880 1.66026
2347.51036 1.65701
2345.46192 1.65155
2343.41348 1.64467
2341.36504 1.63867
2339.31660 1.63535
2337.26817 1.63552
2335.21973 1.63695
2333.17129 1.63741
2331.12285 1.63593
2329.07441 1.63331
2327.02597 1.63228
2324.97754 1.63281
2322.92910 1.63340
2320.88066 1.63305
2318.83222 1.63244
2316.78378 1.63285
2314.73534 1.63259
2312.68691 1.63065
2310.63847 1.62922
2308.59003 1.63006
2306.54159 1.63142
2304.49315 1.63104
2302.44471 1.62978
2300.39628 1.62881
2298.34784 1.62847
2296.29940 1.62914
2294.25096 1.63005
2292.20252 1.63065
2290.15408 1.63106
2288.10565 1.63104
2286.05721 1.63102
2284.00877 1.63207
2281.96033 1.63371
2279.91189 1.63474
2277.86345 1.63571
2275.81502 1.63680
2273.76658 1.63744
2271.71814 1.63840
2269.66970 1.63979
2267.62126 1.64134
2265.57282 1.64364
2263.52439 1.64638
2261.47595 1.64885
2259.42751 1.65127
2257.37907 1.65365
2255.33063 1.65552
2253.28219 1.65715
2251.23376 1.65897
2249.18532 1.66131
2247.13688 1.66411
2245.08844 1.66673
2243.04000 1.66918
2240.99156 1.67142
2238.94313 1.67298
2236.89469 1.67428
2234.84625 1.67637
2232.79781 1.67914
2230.74937 1.68162
2228.70093 1.68357
2226.65250 1.68528
2224.60406 1.68697
2222.55562 1.68822
2220.50718 1.68799
2218.45874 1.68701
2216.41030 1.68680
2214.36186 1.68692
2212.31343 1.68656
2210.26499 1.68546
2208.21655 1.68399
2206.16811 1.68284
2204.11967 1.68209
2202.07123 1.68122
2200.02280 1.67980
2197.97436 1.67838
2195.92592 1.67723
2193.87748 1.67564
2191.82904 1.67390
2189.78060 1.67263
2187.73217 1.67157
2185.68373 1.67023
2183.63529 1.66840
2181.58685 1.66649
2179.53841 1.66466
2177.48997 1.66264
2175.44154 1.66064
2173.39310 1.65930
2171.34466 1.65831
2169.29622 1.65650
2167.24778 1.65386
2165.19934 1.65171
2163.15091 1.65082
2161.10247 1.65062
2159.05403 1.65005
2157.00559 1.64849
2154.95715 1.64631
2152.90871 1.64449
2150.86028 1.64310
2148.81184 1.64171
2146.76340 1.64003
2144.71496 1.63803
2142.66652 1.63640
2140.61808 1.63502
2138.56965 1.63303
2136.52121 1.63085
2134.47277 1.62958
2132.42433 1.62908
2130.37589 1.62820
2128.32745 1.62675
2126.27902 1.62563
2124.23058 1.62476
2122.18214 1.62326
2120.13370 1.62180
2118.08526 1.62133
2116.03682 1.62078
2113.98839 1.61931
2111.93995 1.61818
2109.89151 1.61745
2107.84307 1.61619
2105.79463 1.61501
2103.74619 1.61411
2101.69776 1.61302
2099.64932 1.61173
2097.60088 1.61035
2095.55244 1.60924
2093.50400 1.60875
2091.45556 1.60842
2089.40713 1.60759
2087.35869 1.60665
2085.31025 1.60604
2083.26181 1.60570
2081.21337 1.60584
2079.16493 1.60644
2077.11649 1.60749
2075.06806 1.60917
2073.01962 1.61096
2070.97118 1.61253
2068.92274 1.61407
2066.87430 1.61577
2064.82586 1.61793
2062.77743 1.62030
2060.72899 1.62248
2058.68055 1.62448
2056.63211 1.62662
2054.58367 1.62948
2052.53523 1.63285
2050.48680 1.63627
2048.43836 1.63962
2046.38992 1.64257
2044.34148 1.64555
2042.29304 1.64908
2040.24460 1.65285
2038.19617 1.65630
2036.14773 1.65903
2034.09929 1.66143
2032.05085 1.66426
2030.00241 1.66711
2027.95397 1.66913
2025.90554 1.67037
2023.85710 1.67150
2021.80866 1.67317
2019.76022 1.67471
2017.71178 1.67492
2015.66334 1.67406
2013.61491 1.67306
2011.56647 1.67220
2009.51803 1.67080
2007.46959 1.66810
2005.42115 1.66519
2003.37271 1.66302
2001.32428 1.66107
1999.27584 1.65902
1997.22740 1.65676
1995.17896 1.65416
1993.13052 1.65167
1991.08208 1.64978
1989.03365 1.64822
1986.98521 1.64613
1984.93677 1.64358
1982.88833 1.64142
1980.83989 1.63923
1978.79145 1.63687
1976.74302 1.63512
1974.69458 1.63315
1972.64614 1.63030
1970.59770 1.62764
1968.54926 1.62543
1966.50082 1.62290
1964.45239 1.62024
1962.40395 1.61829
1960.35551 1.61675
1958.30707 1.61492
1956.25863 1.61292
1954.21019 1.61098
1952.16176 1.60920
1950.11332 1.60757
1948.06488 1.60551
1946.01644 1.60312
1943.96800 1.60108
1941.91956 1.59960
1939.87112 1.59811
1937.82269 1.59580
1935.77425 1.59279
1933.72581 1.59010
1931.67737 1.58860
1929.62893 1.58773
1927.58049 1.58629
1925.53206 1.58452
1923.48362 1.58319
1921.43518 1.58187
1919.38674 1.58046
1917.33830 1.57994
1915.28986 1.58047
1913.24143 1.58091
1911.19299 1.58098
1909.14455 1.58114
1907.09611 1.58165
1905.04767 1.58289
1902.99923 1.58473
1900.95080 1.58720
1898.90236 1.59057
1896.85392 1.59428
1894.80548 1.59850
1892.75704 1.60310
1890.70860 1.60775
1888.66017 1.61381
1886.61173 1.62063
1884.56329 1.62717
1882.51485 1.63414
1880.46641 1.64137
1878.41797 1.64804
1876.36954 1.65425
1874.32110 1.66021
1872.27266 1.66464
1870.22422 1.66774
1868.17578 1.67253
1866.12734 1.67790
1864.07891 1.68122
1862.03047 1.68378
1859.98203 1.68602
1857.93359 1.68738
1855.88515 1.68788
1853.83671 1.68779
1851.78828 1.68731
1849.73984 1.68648
1847.69140 1.68477
1845.64296 1.68230
1843.59452 1.68063
1841.54608 1.67972
1839.49765 1.67795
1837.44921 1.67556
1835.40077 1.67324
1833.35233 1.67042
1831.30389 1.66658
1829.25545 1.66252
1827.20702 1.65961
1825.15858 1.65710
1823.11014 1.65467
1821.06170 1.65181
1819.01326 1.64845
1816.96482 1.64547
1814.91639 1.64308
1812.86795 1.64075
1810.81951 1.63771
1808.77107 1.63461
1806.72263 1.63220
1804.67419 1.62980
1802.62575 1.62691
1800.57732 1.62458
1798.52888 1.62309
1796.48044 1.62103
1794.43200 1.61797
1792.38356 1.61469
1790.33512 1.61310
1788.28669 1.61206
1786.23825 1.60995
1784.18981 1.60702
1782.14137 1.60419
1780.09293 1.60200
1778.04449 1.60066
1775.99606 1.59894
1773.94762 1.59590
1771.89918 1.59261
1769.85074 1.59139
1767.80230 1.59106
1765.75386 1.58995
1763.70543 1.58825
1761.65699 1.58732
1759.60855 1.58752
1757.56011 1.58739
1755.51167 1.58727
1753.46323 1.58759
1751.41480 1.58857
1749.36636 1.59116
1747.31792 1.59468
1745.26948 1.59765
1743.22104 1.60040
1741.17260 1.60395
1739.12417 1.60860
1737.07573 1.61297
1735.02729 1.61833
1732.97885 1.62733
1730.93041 1.63497
1728.88197 1.64156
1726.83354 1.64782
1724.78510 1.65432
1722.73666 1.66124
1720.68822 1.66637
1718.63978 1.67202
1716.59134 1.68328
1714.54291 1.69369
1712.49447 1.70020
1710.44603 1.70578
1708.39759 1.71125
1706.34915 1.71755
1704.30071 1.72380
1702.25228 1.72804
1700.20384 1.73366
1698.15540 1.74054
1696.10696 1.74624
1694.05852 1.75250
1692.01008 1.75684
1689.96165 1.76003
1687.91321 1.76237
1685.86477 1.76416
1683.81633 1.76690
1681.76789 1.76775
1679.71945 1.76739
1677.67102 1.76753
1675.62258 1.76796
1673.57414 1.76760
1671.52570 1.76536
1669.47726 1.76131
1667.42882 1.75731
1665.38038 1.75326
1663.33195 1.74882
1661.28351 1.74518
1659.23507 1.74181
1657.18663 1.73731
1655.13819 1.73113
1653.08975 1.72200
1651.04132 1.71605
1648.99288 1.71176
1646.94444 1.70540
1644.89600 1.69977
1642.84756 1.69458
1640.79912 1.68876
1638.75069 1.68337
1636.70225 1.67737
1634.65381 1.67039
1632.60537 1.66582
1630.55693 1.66188
1628.50849 1.65730
1626.46006 1.65293
1624.41162 1.64981
1622.36318 1.64665
1620.31474 1.64258
1618.26630 1.63854
1616.21786 1.63589
1614.16943 1.63504
1612.12099 1.63422
1610.07255 1.63351
1608.02411 1.63343
1605.97567 1.63375
1603.92723 1.63437
1601.87880 1.63561
1599.83036 1.63774
1597.78192 1.64088
1595.73348 1.64466
1593.68504 1.64862
1591.63660 1.65293
1589.58817 1.65772
1587.53973 1.66309
1585.49129 1.66964
1583.44285 1.67741
1581.39441 1.68492
1579.34597 1.69136
1577.29754 1.70017
1575.24910 1.71296
1573.20066 1.72055
1571.15222 1.72694
1569.10378 1.73904
1567.05534 1.75037
1565.00691 1.75864
1562.95847 1.76607
1560.91003 1.77101
1558.86159 1.78189
1556.81315 1.79820
1554.76471 1.80630
1552.71628 1.81224
1550.66784 1.81781
1548.61940 1.82302
1546.57096 1.82687
1544.52252 1.83068
1542.47408 1.83435
1540.42565 1.83676
1538.37721 1.83894
1536.32877 1.84031
1534.28033 1.84146
1532.23189 1.84185
1530.18345 1.84014
1528.13501 1.83743
1526.08658 1.83436
1524.03814 1.83133
1521.98970 1.82582
1519.94126 1.81911
1517.89282 1.81233
1515.84438 1.80115
1513.79595 1.79011
1511.74751 1.78043
1509.69907 1.77040
1507.65063 1.75549
1505.60219 1.73746
1503.55375 1.72825
1501.50532 1.72026
1499.45688 1.71061
1497.40844 1.69783
1495.36000 1.68433
1493.31156 1.67488
1491.26312 1.66673
1489.21469 1.65705
1487.16625 1.64890
1485.11781 1.64289
1483.06937 1.63764
1481.02093 1.63263
1478.97249 1.62881
1476.92406 1.62714
1474.87562 1.62669
1472.82718 1.62571
1470.77874 1.62362
1468.73030 1.62157
1466.68186 1.62031
1464.63343 1.61984
1462.58499 1.61897
1460.53655 1.61821
1458.48811 1.61928
1456.43967 1.62230
1454.39123 1.62258
1452.34280 1.62192
1450.29436 1.62213
1448.24592 1.62353
1446.19748 1.62567
1444.14904 1.62813
1442.10060 1.63094
1440.05217 1.63347
1438.00373 1.63640
1435.95529 1.64137
1433.90685 1.64550
1431.85841 1.64867
1429.80997 1.65323
1427.76154 1.65809
1425.71310 1.66195
1423.66466 1.66567
1421.61622 1.66892
1419.56778 1.67336
1417.51934 1.68018
1415.47091 1.68461
1413.42247 1.68749
1411.37403 1.69074
1409.32559 1.69371
1407.27715 1.69563
1405.22871 1.69820
1403.18028 1.70174
1401.13184 1.70497
1399.08340 1.70850
1397.03496 1.71253
1394.98652 1.71673
1392.93808 1.72003
1390.88965 1.72246
1388.84121 1.72583
1386.79277 1.73043
1384.74433 1.73385
1382.69589 1.73632
1380.64745 1.73925
1378.59901 1.74209
1376.55058 1.74375
1374.50214 1.74327
1372.45370 1.73997
1370.40526 1.73481
1368.35682 1.72795
1366.30838 1.72024
1364.25995 1.71195
1362.21151 1.70135
1360.16307 1.69032
1358.11463 1.68102
1356.06619 1.67211
1354.01775 1.66276
1351.96932 1.65419
1349.92088 1.64714
1347.87244 1.64122
1345.82400 1.63610
1343.77556 1.63137
1341.72712 1.62637
1339.67869 1.62123
1337.63025 1.61733
1335.58181 1.61464
1333.53337 1.61185
1331.48493 1.60927
1329.43649 1.60788
1327.38806 1.60665
1325.33962 1.60468
1323.29118 1.60288
1321.24274 1.60216
1319.19430 1.60245
1317.14586 1.60251
1315.09743 1.60182
1313.04899 1.60200
1311.00055 1.60329
1308.95211 1.60404
1306.90367 1.60435
1304.85523 1.60571
1302.80680 1.60834
1300.75836 1.61094
1298.70992 1.61323
1296.66148 1.61660
1294.61304 1.62139
1292.56460 1.62659
1290.51617 1.63204
1288.46773 1.63800
1286.41929 1.64396
1284.37085 1.64984
1282.32241 1.65630
1280.27397 1.66333
1278.22554 1.67022
1276.17710 1.67706
1274.12866 1.68427
1272.08022 1.69136
1270.03178 1.69766
1267.98334 1.70348
1265.93491 1.70967
1263.88647 1.71686
1261.83803 1.72423
1259.78959 1.73003
1257.74115 1.73461
1255.69271 1.73935
1253.64428 1.74379
1251.59584 1.74817
1249.54740 1.75381
1247.49896 1.75955
1245.45052 1.76387
1243.40208 1.76776
1241.35364 1.77164
1239.30521 1.77459
1237.25677 1.77667
1235.20833 1.77768
1233.15989 1.77639
1231.11145 1.77330
1229.06301 1.76999
1227.01458 1.76633
1224.96614 1.76158
1222.91770 1.75608
1220.86926 1.75030
1218.82082 1.74471
1216.77238 1.74015
1214.72395 1.73628
1212.67551 1.73197
1210.62707 1.72760
1208.57863 1.72406
1206.53019 1.72088
1204.48175 1.71752
1202.43332 1.71415
1200.38488 1.71115
1198.33644 1.70897
1196.28800 1.70768
1194.23956 1.70654
1192.19112 1.70483
1190.14269 1.70298
1188.09425 1.70237
1186.04581 1.70293
1183.99737 1.70337
1181.94893 1.70343
1179.90049 1.70365
1177.85206 1.70455
1175.80362 1.70638
1173.75518 1.70881
1171.70674 1.71170
1169.65830 1.71512
1167.60986 1.71874
1165.56143 1.72296
1163.51299 1.72824
1161.46455 1.73418
1159.41611 1.74002
1157.36767 1.74500
1155.31923 1.74914
1153.27080 1.75339
1151.22236 1.75903
1149.17392 1.76566
1147.12548 1.77166
1145.07704 1.77690
1143.02860 1.78244
1140.98017 1.78895
1138.93173 1.79654
1136.88329 1.80528
1134.83485 1.81442
1132.78641 1.82298
1130.73797 1.83086
1128.68954 1.83883
1126.64110 1.84748
1124.59266 1.85554
1122.54422 1.86229
1120.49578 1.86996
1118.44734 1.87977
1116.39891 1.88920
1114.35047 1.89603
1112.30203 1.90136
1110.25359 1.90782
1108.20515 1.91554
1106.15671 1.92172
1104.10827 1.92617
1102.05984 1.93155
1100.01140 1.93746
1097.96296 1.94211
1095.91452 1.94607
1093.86608 1.94936
1091.81764 1.95187
1089.76921 1.95547
1087.72077 1.96026
1085.67233 1.96424
1083.62389 1.96695
1081.57545 1.97040
1079.52701 1.97550
1077.47858 1.97871
1075.43014 1.97918
1073.38170 1.97998
1071.33326 1.97957
1069.28482 1.97577
1067.23638 1.97132
1065.18795 1.96784
1063.13951 1.96394
1061.09107 1.95911
1059.04263 1.95296
1056.99419 1.94546
1054.94575 1.93859
1052.89732 1.93365
1050.84888 1.93000
1048.80044 1.92663
1046.75200 1.92234
1044.70356 1.91770
1042.65512 1.91453
1040.60669 1.91268
1038.55825 1.91212
1036.50981 1.91272
1034.46137 1.91303
1032.41293 1.91283
1030.36449 1.91150
1028.31606 1.90825
1026.26762 1.90435
1024.21918 1.90123
1022.17074 1.89969
1020.12230 1.89896
1018.07386 1.89756
1016.02543 1.89701
1013.97699 1.89848
1011.92855 1.89959
1009.88011 1.89948
1007.83167 1.90009
1005.78323 1.90185
1003.73480 1.90348
1001.68636 1.90500
999.63792 1.90735
997.58948 1.91007
995.54104 1.91277
993.49260 1.91616
991.44417 1.92069
989.39573 1.92619
987.34729 1.93186
985.29885 1.93770
983.25041 1.94314
981.20197 1.94625
979.15354 1.95012
977.10510 1.95793
975.05666 1.96602
973.00822 1.97396
970.95978 1.98439
968.91134 1.99481
966.86290 2.00388
964.81447 2.01396
962.76603 2.02549
960.71759 2.03733
958.66915 2.04867
956.62071 2.05877
954.57227 2.06778
952.52384 2.07612
950.47540 2.08367
948.42696 2.09037
946.37852 2.09771
944.33008 2.10707
942.28164 2.11566
940.23321 2.12062
938.18477 2.12411
936.13633 2.12887
934.08789 2.13391
932.03945 2.13952
929.99101 2.14602
927.94258 2.15007
925.89414 2.15175
923.84570 2.15438
921.79726 2.16025
919.74882 2.16737
917.70038 2.17119
915.65195 2.17131
913.60351 2.16744
911.55507 2.16067
909.50663 2.15436
907.45819 2.14699
905.40975 2.13710
903.36132 2.12587
901.31288 2.11351
899.26444 2.10052
897.21600 2.08863
895.16756 2.07909
893.11912 2.07089
891.07069 2.06396
889.02225 2.05890
886.97381 2.05423
884.92537 2.05070
882.87693 2.05065
880.82849 2.05080
878.78006 2.04793
876.73162 2.04597
874.68318 2.04770
872.63474 2.05113
870.58630 2.05440
868.53786 2.05647
866.48943 2.05773
864.44099 2.06122
862.39255 2.06703
860.34411 2.07309
858.29567 2.07919
856.24723 2.08256
854.19880 2.08151
852.15036 2.08076
850.10192 2.08468
848.05348 2.09067
846.00504 2.09603
843.95660 2.10018
841.90817 2.10355
839.85973 2.11058
837.81129 2.12222
835.76285 2.13544
833.71441 2.14957
831.66597 2.16641
829.61753 2.18343
827.56910 2.19626
825.52066 2.21041
823.47222 2.23224
821.42378 2.25551
819.37534 2.27327
817.32690 2.28931
815.27847 2.30213
813.23003 2.30978
811.18159 2.31649
809.13315 2.31927
807.08471 2.31943
805.03627 2.32342
802.98784 2.32932
800.93940 2.33286
798.89096 2.33673
796.84252 2.34069
794.79408 2.34100
792.74564 2.34075
790.69721 2.34009
788.64877 2.33424
786.60033 2.31853
784.55189 2.30047
782.50345 2.29340
780.45501 2.29647
778.40658 2.30563
776.35814 2.31101
774.30970 2.30027
772.26126 2.29069
770.21282 2.30044
768.16438 2.31698
766.11595 2.33343
764.06751 2.35419
762.01907 2.36613
759.97063 2.36814
757.92219 2.38438
755.87375 2.41813
753.82532 2.44946
751.77688 2.48199
749.72844 2.52741
747.68000 2.57275
745.63156 2.61472
743.58312 2.66422
741.53469 2.70568
739.48625 2.74297
737.43781 2.81873
735.38937 2.89958
733.34093 2.89286
731.29249 2.85903
729.24406 2.88908
727.19562 2.95389
725.14718 3.03377
723.09874 3.23400
721.05030 3.57067
719.00186 3.49810
716.95343 3.24000
714.90499 3.12695
712.85655 3.11376
710.80811 3.16124
708.75967 3.23160
706.71123 3.30191
704.66280 3.33361
702.61436 3.23828
700.56592 3.06593
698.51748 2.98706
696.46904 3.07035
694.42060 3.32206
692.37216 3.55424
690.32373 3.33926
688.27529 3.17084
686.22685 3.12169
684.17841 3.02455
682.12997 2.88320
680.08153 2.74363
678.03310 2.65148
675.98466 2.60676
673.93622 2.55616
671.88778 2.49374
669.83934 2.39074
667.79090 2.22837
665.74247 2.15357
663.69403 2.11090
661.64559 2.02839
659.59715 1.93781
657.54871 1.86702
655.50027 1.80960
653.45184 1.76151
651.40340 1.71996
649.35496 1.68104
647.30652 1.63988
645.25808 1.59629
643.20964 1.56548
641.16121 1.54907
639.11277 1.53011
637.06433 1.51108
635.01589 1.49875
632.96745 1.48329
630.91901 1.46566
628.87058 1.45676
626.82214 1.45374
624.77370 1.44156
622.72526 1.41917
620.67682 1.40084
618.62838 1.38868
616.57995 1.38312
614.53151 1.38017
612.48307 1.37136
610.43463 1.36546
608.38619 1.36959
606.33775 1.37290
604.28932 1.36506
602.24088 1.35570
600.19244 1.35274
598.14400 1.34872
