3996.50324 1.88667
3994.45480 1.89221
3992.40636 1.89703
3990.35792 1.89949
3988.30948 1.90068
3986.26104 1.90331
3984.21261 1.90810
3982.16417 1.91325
3980.11573 1.91573
3978.06729 1.91533
3976.01885 1.91611
3973.97041 1.91918
3971.92198 1.92155
3969.87354 1.92145
3967.82510 1.92015
3965.77666 1.92051
3963.72822 1.92143
3961.67978 1.92015
3959.63135 1.91867
3957.58291 1.91892
3955.53447 1.91858
3953.48603 1.91650
3951.43759 1.91403
3949.38915 1.91060
3947.34072 1.90558
3945.29228 1.90074
3943.24384 1.89541
3941.19540 1.88964
3939.14696 1.88582
3937.09852 1.88279
3935.05009 1.88062
3933.00165 1.87982
3930.95321 1.87752
3928.90477 1.87409
3926.85633 1.87056
3924.80789 1.86609
3922.75946 1.86093
3920.71102 1.85824
3918.66258 1.86070
3916.61414 1.86275
3914.56570 1.85987
3912.51726 1.85647
3910.46883 1.85535
3908.42039 1.85571
3906.37195 1.85754
3904.32351 1.86367
3902.27507 1.87343
3900.22663 1.88162
3898.17820 1.88278
3896.12976 1.87895
3894.08132 1.87764
3892.03288 1.88236
3889.98444 1.88806
3887.93600 1.89108
3885.88756 1.89771
3883.83913 1.90583
3881.79069 1.90814
3879.74225 1.90566
3877.69381 1.90329
3875.64537 1.90817
3873.59693 1.91846
3871.54850 1.92520
3869.50006 1.92775
3867.45162 1.92577
3865.40318 1.92435
3863.35474 1.92460
3861.30630 1.92059
3859.25787 1.91825
3857.20943 1.92219
3855.16099 1.93106
3853.11255 1.93726
3851.06411 1.92822
3849.01567 1.91803
3846.96724 1.91136
3844.91880 1.90756
3842.87036 1.90702
3840.82192 1.91080
3838.77348 1.91454
3836.72504 1.90720
3834.67661 1.89407
3832.62817 1.88468
3830.57973 1.87947
3828.53129 1.87678
3826.48285 1.87553
3824.43441 1.87534
3822.38598 1.87859
3820.33754 1.88000
3818.28910 1.87413
3816.24066 1.86867
3814.19222 1.86218
3812.14378 1.85537
3810.09535 1.85167
3808.04691 1.85382
3805.99847 1.85965
3803.95003 1.86263
3801.90159 1.86739
3799.85315 1.87102
3797.80472 1.86908
3795.75628 1.86659
3793.70784 1.86537
3791.65940 1.86770
3789.61096 1.87310
3787.56252 1.87871
3785.51409 1.88389
3783.46565 1.88764
3781.41721 1.89127
3779.36877 1.89627
3777.32033 1.89857
3775.27189 1.89909
3773.22346 1.90146
3771.17502 1.90762
3769.12658 1.91604
3767.07814 1.92067
3765.02970 1.92107
3762.98126 1.92043
3760.93283 1.92364
3758.88439 1.93051
3756.83595 1.93443
3754.78751 1.93592
3752.73907 1.93935
3750.69063 1.94519
3748.64219 1.94500
3746.59376 1.94203
3744.54532 1.93933
3742.49688 1.93170
3740.44844 1.92293
3738.40000 1.91798
3736.35156 1.91705
3734.30313 1.91632
3732.25469 1.91138
3730.20625 1.90285
3728.15781 1.89591
3726.10937 1.89284
3724.06093 1.88997
3722.01250 1.88477
3719.96406 1.87861
3717.91562 1.87185
3715.86718 1.86728
3713.81874 1.86965
3711.77030 1.87742
3709.72187 1.87664
3707.67343 1.87021
3705.62499 1.86620
3703.57655 1.86418
3701.52811 1.86545
3699.47967 1.86828
3697.43124 1.86923
3695.38280 1.86981
3693.33436 1.87286
3691.28592 1.87971
3689.23748 1.88676
3687.18904 1.88869
3685.14061 1.88855
3683.09217 1.88881
3681.04373 1.89098
3678.99529 1.89618
3676.94685 1.90686
3674.89841 1.92039
3672.84998 1.92477
3670.80154 1.92807
3668.75310 1.93123
3666.70466 1.93064
3664.65622 1.93131
3662.60778 1.93498
3660.55935 1.94086
3658.51091 1.94665
3656.46247 1.95119
3654.41403 1.95347
3652.36559 1.95565
3650.31715 1.96578
3648.26872 1.97933
3646.22028 1.97323
3644.17184 1.96131
3642.12340 1.95149
3640.07496 1.94554
3638.02652 1.94498
3635.97809 1.94609
3633.92965 1.94390
3631.88121 1.93978
3629.83277 1.93969
3627.78433 1.93844
3625.73589 1.92828
3623.68746 1.91915
3621.63902 1.91478
3619.59058 1.91054
3617.54214 1.90326
3615.49370 1.89793
3613.44526 1.89368
3611.39682 1.88968
3609.34839 1.88769
3607.29995 1.88574
3605.25151 1.88216
3603.20307 1.87995
3601.15463 1.88020
3599.10619 1.87932
3597.05776 1.87959
3595.00932 1.88479
3592.96088 1.88734
3590.91244 1.88659
3588.86400 1.89230
3586.81556 1.90446
3584.76713 1.90922
3582.71869 1.90882
3580.67025 1.91038
3578.62181 1.91612
3576.57337 1.92350
3574.52493 1.92975
3572.47650 1.93734
3570.42806 1.94643
3568.37962 1.95522
3566.33118 1.96450
3564.28274 1.97084
3562.23430 1.97417
3560.18587 1.97567
3558.13743 1.97468
3556.08899 1.97539
3554.04055 1.98023
3551.99211 1.98447
3549.94367 1.98597
3547.89524 1.98921
3545.84680 1.99253
3543.79836 1.99022
3541.74992 1.98550
3539.70148 1.98319
3537.65304 1.98237
3535.60461 1.97950
3533.55617 1.97614
3531.50773 1.97505
3529.45929 1.97261
3527.41085 1.96491
3525.36241 1.95537
3523.31398 1.94795
3521.26554 1.94266
3519.21710 1.93622
3517.16866 1.92671
3515.12022 1.91935
3513.07178 1.91740
3511.02335 1.91612
3508.97491 1.91289
3506.92647 1.90968
3504.87803 1.90653
3502.82959 1.90191
3500.78115 1.89594
3498.73272 1.89239
3496.68428 1.89239
3494.63584 1.89241
3492.58740 1.89216
3490.53896 1.89488
3488.49052 1.90003
3486.44209 1.90434
3484.39365 1.90871
3482.34521 1.91362
3480.29677 1.91618
3478.24833 1.91828
3476.19989 1.92527
3474.15146 1.93674
3472.10302 1.94616
3470.05458 1.95197
3468.00614 1.95639
3465.95770 1.96030
3463.90926 1.96615
3461.86082 1.97465
3459.81239 1.98303
3457.76395 1.98920
3455.71551 1.99404
3453.66707 2.00036
3451.61863 2.00834
3449.57019 2.01540
3447.52176 2.02048
3445.47332 2.02290
3443.42488 2.02299
3441.37644 2.02167
3439.32800 2.01702
3437.27956 2.01011
3435.23113 2.00645
3433.18269 2.00486
3431.13425 1.99966
3429.08581 1.99133
3427.03737 1.98298
3424.98893 1.97727
3422.94050 1.97442
3420.89206 1.96933
3418.84362 1.95973
3416.79518 1.95039
3414.74674 1.94472
3412.69830 1.94076
3410.64987 1.93500
3408.60143 1.92808
3406.55299 1.92228
3404.50455 1.91705
3402.45611 1.91182
3400.40767 1.90746
3398.35924 1.90473
3396.31080 1.90376
3394.26236 1.90396
3392.21392 1.90412
3390.16548 1.90390
3388.11704 1.90508
3386.06861 1.90880
3384.02017 1.91324
3381.97173 1.91627
3379.92329 1.91887
3377.87485 1.92305
3375.82641 1.92869
3373.77798 1.93433
3371.72954 1.93924
3369.68110 1.94448
3367.63266 1.95138
3365.58422 1.95911
3363.53578 1.96673
3361.48735 1.97485
3359.43891 1.98204
3357.39047 1.98684
3355.34203 1.99035
3353.29359 1.99458
3351.24515 2.00045
3349.19672 2.00567
3347.14828 2.00907
3345.09984 2.01077
3343.05140 2.01127
3341.00296 2.01329
3338.95452 2.01561
3336.90609 2.01514
3334.85765 2.01386
3332.80921 2.01309
3330.76077 2.01035
3328.71233 2.00375
3326.66389 1.99371
3324.61545 1.98363
3322.56702 1.97669
3320.51858 1.97070
3318.47014 1.96321
3316.42170 1.95570
3314.37326 1.94924
3312.32482 1.94280
3310.27639 1.93536
3308.22795 1.92642
3306.17951 1.91812
3304.13107 1.91395
3302.08263 1.91220
3300.03419 1.90960
3297.98576 1.90582
3295.93732 1.90136
3293.88888 1.89778
3291.84044 1.89586
3289.79200 1.89464
3287.74356 1.89358
3285.69513 1.89372
3283.64669 1.89493
3281.59825 1.89512
3279.54981 1.89621
3277.50137 1.90088
3275.45293 1.90692
3273.40450 1.91064
3271.35606 1.91133
3269.30762 1.91296
3267.25918 1.91887
3265.21074 1.92743
3263.16230 1.93491
3261.11387 1.94090
3259.06543 1.94837
3257.01699 1.95609
3254.96855 1.96119
3252.92011 1.96521
3250.87167 1.96995
3248.82324 1.97618
3246.77480 1.98164
3244.72636 1.98399
3242.67792 1.98665
3240.62948 1.99007
3238.58104 1.99127
3236.53261 1.99243
3234.48417 1.99492
3232.43573 1.99509
3230.38729 1.99262
3228.33885 1.98987
3226.29041 1.98457
3224.24198 1.97657
3222.19354 1.97007
3220.14510 1.96430
3218.09666 1.95651
3216.04822 1.94958
3213.99978 1.94559
3211.95135 1.94000
3209.90291 1.93042
3207.85447 1.92046
3205.80603 1.91315
3203.75759 1.90796
3201.70915 1.90225
3199.66072 1.89604
3197.61228 1.89055
3195.56384 1.88460
3193.51540 1.87898
3191.46696 1.87523
3189.41852 1.87279
3187.37008 1.87154
3185.32165 1.87119
3183.27321 1.87036
3181.22477 1.86916
3179.17633 1.86996
3177.12789 1.87327
3175.07945 1.87653
3173.03102 1.87869
3170.98258 1.88054
3168.93414 1.88302
3166.88570 1.88716
3164.83726 1.89160
3162.78882 1.89449
3160.74039 1.89828
3158.69195 1.90542
3156.64351 1.91315
3154.59507 1.91870
3152.54663 1.92362
3150.49819 1.92970
3148.44976 1.93587
3146.40132 1.94141
3144.35288 1.94657
3142.30444 1.95077
3140.25600 1.95471
3138.20756 1.95878
3136.15913 1.96117
3134.11069 1.96063
3132.06225 1.95785
3130.01381 1.95635
3127.96537 1.95740
3125.91693 1.95754
3123.86850 1.95532
3121.82006 1.95152
3119.77162 1.94636
3117.72318 1.94069
3115.67474 1.93513
3113.62630 1.92886
3111.57787 1.92182
3109.52943 1.91549
3107.48099 1.91056
3105.43255 1.90501
3103.38411 1.89754
3101.33567 1.89030
3099.28724 1.88429
3097.23880 1.87829
3095.19036 1.87170
3093.14192 1.86557
3091.09348 1.86113
3089.04504 1.85844
3086.99661 1.85609
3084.94817 1.85255
3082.89973 1.84965
3080.85129 1.84887
3078.80285 1.84936
3076.75441 1.84962
3074.70598 1.84894
3072.65754 1.84895
3070.60910 1.85045
3068.56066 1.85250
3066.51222 1.85454
3064.46378 1.85824
3062.41535 1.86413
3060.36691 1.86947
3058.31847 1.87340
3056.27003 1.87760
3054.22159 1.88340
3052.17315 1.88973
3050.12471 1.89409
3048.07628 1.89730
3046.02784 1.90204
3043.97940 1.90848
3041.93096 1.91543
3039.88252 1.92180
3037.83408 1.92603
3035.78565 1.92829
3033.73721 1.93111
3031.68877 1.93474
3029.64033 1.93657
3027.59189 1.93576
3025.54345 1.93418
3023.49502 1.93332
3021.44658 1.93289
3019.39814 1.93156
3017.34970 1.92854
3015.30126 1.92428
3013.25282 1.91983
3011.20439 1.91602
3009.15595 1.91236
3007.10751 1.90701
3005.05907 1.89961
3003.01063 1.89222
3000.96219 1.88525
2998.91376 1.87805
2996.86532 1.87132
2994.81688 1.86547
2992.76844 1.86060
2990.72000 1.85548
2988.67156 1.84937
2986.62313 1.84385
2984.57469 1.84002
2982.52625 1.83692
2980.47781 1.83253
2978.42937 1.82768
2976.38093 1.82542
2974.33250 1.82580
2972.28406 1.82567
2970.23562 1.82380
2968.18718 1.82248
2966.13874 1.82301
2964.09030 1.82455
2962.04187 1.82657
2959.99343 1.82852
2957.94499 1.83065
2955.89655 1.83414
2953.84811 1.83909
2951.79967 1.84477
2949.75124 1.85000
2947.70280 1.85481
2945.65436 1.86080
2943.60592 1.86818
2941.55748 1.87615
2939.50904 1.88410
2937.46061 1.89145
2935.41217 1.89806
2933.36373 1.90315
2931.31529 1.90547
2929.26685 1.90642
2927.21841 1.90938
2925.16998 1.91371
2923.12154 1.91592
2921.07310 1.91555
2919.02466 1.91396
2916.97622 1.91169
2914.92778 1.90878
2912.87934 1.90526
2910.83091 1.90101
2908.78247 1.89601
2906.73403 1.89066
2904.68559 1.88402
2902.63715 1.87521
2900.58871 1.86619
2898.54028 1.85884
2896.49184 1.85205
2894.44340 1.84479
2892.39496 1.83731
2890.34652 1.83003
2888.29808 1.82302
2886.24965 1.81621
2884.20121 1.81031
2882.15277 1.80496
2880.10433 1.79943
2878.05589 1.79462
2876.00745 1.79018
2873.95902 1.78544
2871.91058 1.78191
2869.86214 1.78075
2867.81370 1.78092
2865.76526 1.78162
2863.71682 1.78277
2861.66839 1.78364
2859.61995 1.78484
2857.57151 1.78773
2855.52307 1.79158
2853.47463 1.79513
2851.42619 1.79853
2849.37776 1.80284
2847.32932 1.80826
2845.28088 1.81406
2843.23244 1.81971
2841.18400 1.82596
2839.13556 1.83301
2837.08713 1.83893
2835.03869 1.84422
2832.99025 1.85107
2830.94181 1.85825
2828.89337 1.86465
2826.84493 1.87068
2824.79650 1.87411
2822.74806 1.87529
2820.69962 1.87807
2818.65118 1.88219
2816.60274 1.88504
2814.55430 1.88506
2812.50587 1.88323
2810.45743 1.88102
2808.40899 1.87779
2806.36055 1.87370
2804.31211 1.86961
2802.26367 1.86484
2800.21524 1.85855
2798.16680 1.85080
2796.11836 1.84162
2794.06992 1.83195
2792.02148 1.82334
2789.97304 1.81566
2787.92461 1.80800
2785.87617 1.79999
2783.82773 1.79217
2781.77929 1.78576
2779.73085 1.78049
2777.68241 1.77534
2775.63397 1.77036
2773.58554 1.76509
2771.53710 1.75940
2769.48866 1.75591
2767.44022 1.75591
2765.39178 1.75688
2763.34334 1.75696
2761.29491 1.75702
2759.24647 1.75753
2757.19803 1.75868
2755.14959 1.76186
2753.10115 1.76624
2751.05271 1.76991
2749.00428 1.77372
2746.95584 1.77801
2744.90740 1.78237
2742.85896 1.78828
2740.81052 1.79650
2738.76208 1.80415
2736.71365 1.80939
2734.66521 1.81473
2732.61677 1.82207
2730.56833 1.83022
2728.51989 1.83781
2726.47145 1.84543
2724.42302 1.85379
2722.37458 1.86121
2720.32614 1.86635
2718.27770 1.87008
2716.22926 1.87283
2714.18082 1.87432
2712.13239 1.87459
2710.08395 1.87399
2708.03551 1.87225
2705.98707 1.86912
2703.93863 1.86558
2701.89019 1.86141
2699.84176 1.85509
2697.79332 1.84653
2695.74488 1.83678
2693.69644 1.82744
2691.64800 1.81959
2689.59956 1.81148
2687.55113 1.80244
2685.50269 1.79483
2683.45425 1.78837
2681.40581 1.78077
2679.35737 1.77242
2677.30893 1.76535
2675.26050 1.75982
2673.21206 1.75466
2671.16362 1.74963
2669.11518 1.74568
2667.06674 1.74319
2665.01830 1.74122
2662.96987 1.73956
2660.92143 1.73909
2658.87299 1.73967
2656.82455 1.74021
2654.77611 1.74087
2652.72767 1.74270
2650.67924 1.74572
2648.63080 1.74944
2646.58236 1.75389
2644.53392 1.75908
2642.48548 1.76474
2640.43704 1.77098
2638.38860 1.77799
2636.34017 1.78579
2634.29173 1.79426
2632.24329 1.80250
2630.19485 1.80958
2628.14641 1.81622
2626.09797 1.82343
2624.04954 1.83028
2622.00110 1.83549
2619.95266 1.84037
2617.90422 1.84595
2615.85578 1.85019
2613.80734 1.85214
2611.75891 1.85291
2609.71047 1.85247
2607.66203 1.85071
2605.61359 1.84866
2603.56515 1.84623
2601.51671 1.84228
2599.46828 1.83635
2597.41984 1.82904
2595.37140 1.82177
2593.32296 1.81468
2591.27452 1.80635
2589.22608 1.79615
2587.17765 1.78498
2585.12921 1.77412
2583.08077 1.76424
2581.03233 1.75518
2578.98389 1.74716
2576.93545 1.74042
2574.88702 1.73421
2572.83858 1.72881
2570.79014 1.72421
2568.74170 1.71881
2566.69326 1.71319
2564.64482 1.70910
2562.59639 1.70646
2560.54795 1.70497
2558.49951 1.70406
2556.45107 1.70347
2554.40263 1.70407
2552.35419 1.70548
2550.30576 1.70701
2548.25732 1.70976
2546.20888 1.71419
2544.16044 1.71851
2542.11200 1.72278
2540.06356 1.72852
2538.01513 1.73540
2535.96669 1.74286
2533.91825 1.75029
2531.86981 1.75798
2529.82137 1.76688
2527.77293 1.77616
2525.72450 1.78490
2523.67606 1.79296
2521.62762 1.80048
2519.57918 1.80804
2517.53074 1.81483
2515.48230 1.82016
2513.43387 1.82475
2511.38543 1.82814
2509.33699 1.82924
2507.28855 1.82868
2505.24011 1.82765
2503.19167 1.82599
2501.14324 1.82269
2499.09480 1.81736
2497.04636 1.81096
2494.99792 1.80395
2492.94948 1.79614
2490.90104 1.78774
2488.85260 1.77849
2486.80417 1.76860
2484.75573 1.75862
2482.70729 1.74851
2480.65885 1.73911
2478.61041 1.73052
2476.56197 1.72183
2474.51354 1.71366
2472.46510 1.70677
2470.41666 1.70138
2468.36822 1.69726
2466.31978 1.69312
2464.27134 1.68863
2462.22291 1.68453
2460.17447 1.68145
2458.12603 1.67932
2456.07759 1.67806
2454.02915 1.67771
2451.98071 1.67774
2449.93228 1.67816
2447.88384 1.67964
2445.83540 1.68188
2443.78696 1.68460
2441.73852 1.68883
2439.69008 1.69460
2437.64165 1.70048
2435.59321 1.70602
2433.54477 1.71150
2431.49633 1.71747
2429.44789 1.72488
2427.39945 1.73310
2425.35102 1.74104
2423.30258 1.74912
2421.25414 1.75758
2419.20570 1.76631
2417.15726 1.77460
2415.10882 1.78187
2413.06039 1.78869
2411.01195 1.79484
2408.96351 1.79949
2406.91507 1.80212
2404.86663 1.80274
2402.81819 1.80241
2400.76976 1.80159
2398.72132 1.79912
2396.67288 1.79443
2394.62444 1.78803
2392.57600 1.78092
2390.52756 1.77388
2388.47913 1.76685
2386.43069 1.76034
2384.38225 1.75500
2382.33381 1.75072
2380.28537 1.74724
2378.23693 1.74392
2376.18850 1.74078
2374.14006 1.73841
2372.09162 1.73725
2370.04318 1.73739
2367.99474 1.73774
2365.94630 1.73836
2363.89787 1.73692
2361.84943 1.73321
2359.80099 1.73449
2357.75255 1.73630
2355.70411 1.72948
2353.65567 1.71992
2351.60723 1.71408
2349.55880 1.71119
2347.51036 1.71109
2345.46192 1.71466
2343.41348 1.72032
2341.36504 1.72691
2339.31660 1.73370
2337.26817 1.73695
2335.21973 1.73837
2333.17129 1.74383
2331.12285 1.75178
2329.07441 1.75841
2327.02597 1.76605
2324.97754 1.77453
2322.92910 1.78085
2320.88066 1.78496
2318.83222 1.78798
2316.78378 1.79173
2314.73534 1.79694
2312.68691 1.80144
2310.63847 1.80384
2308.59003 1.80463
2306.54159 1.80395
2304.49315 1.80236
2302.44471 1.80057
2300.39628 1.79815
2298.34784 1.79467
2296.29940 1.79011
2294.25096 1.78434
2292.20252 1.77776
2290.15408 1.77074
2288.10565 1.76248
2286.05721 1.75302
2284.00877 1.74403
2281.96033 1.73584
2279.91189 1.72722
2277.86345 1.71846
2275.81502 1.71064
2273.76658 1.70293
2271.71814 1.69443
2269.66970 1.68620
2267.62126 1.67932
2265.57282 1.67381
2263.52439 1.66904
2261.47595 1.66440
2259.42751 1.66017
2257.37907 1.65715
2255.33063 1.65566
2253.28219 1.65541
2251.23376 1.65591
2249.18532 1.65645
2247.13688 1.65688
2245.08844 1.65786
2243.04000 1.66003
2240.99156 1.66372
2238.94313 1.66813
2236.89469 1.67276
2234.84625 1.67835
2232.79781 1.68443
2230.74937 1.69054
2228.70093 1.69728
2226.65250 1.70412
2224.60406 1.71103
2222.55562 1.71843
2220.50718 1.72540
2218.45874 1.73225
2216.41030 1.73994
2214.36186 1.74750
2212.31343 1.75342
2210.26499 1.75774
2208.21655 1.76121
2206.16811 1.76470
2204.11967 1.76823
2202.07123 1.77056
2200.02280 1.77204
2197.97436 1.77317
2195.92592 1.77284
2193.87748 1.77063
2191.82904 1.76692
2189.78060 1.76162
2187.73217 1.75544
2185.68373 1.74968
2183.63529 1.74369
2181.58685 1.73676
2179.53841 1.72945
2177.48997 1.72154
2175.44154 1.71280
2173.39310 1.70367
2171.34466 1.69538
2169.29622 1.68865
2167.24778 1.68250
2165.19934 1.67667
2163.15091 1.67106
2161.10247 1.66521
2159.05403 1.66008
2157.00559 1.65659
2154.95715 1.65428
2152.90871 1.65194
2150.86028 1.64952
2148.81184 1.64781
2146.76340 1.64667
2144.71496 1.64655
2142.66652 1.64798
2140.61808 1.64940
2138.56965 1.65044
2136.52121 1.65249
2134.47277 1.65530
2132.42433 1.65851
2130.37589 1.66243
2128.32745 1.66722
2126.27902 1.67271
2124.23058 1.67812
2122.18214 1.68336
2120.13370 1.68868
2118.08526 1.69415
2116.03682 1.69944
2113.98839 1.70429
2111.93995 1.70872
2109.89151 1.71256
2107.84307 1.71653
2105.79463 1.72060
2103.74619 1.72406
2101.69776 1.72712
2099.64932 1.72946
2097.60088 1.73073
2095.55244 1.73132
2093.50400 1.73159
2091.45556 1.73141
2089.40713 1.73002
2087.35869 1.72704
2085.31025 1.72320
2083.26181 1.71887
2081.21337 1.71443
2079.16493 1.71036
2077.11649 1.70602
2075.06806 1.70093
2073.01962 1.69577
2070.97118 1.69117
2068.92274 1.68681
2066.87430 1.68207
2064.82586 1.67678
2062.77743 1.67116
2060.72899 1.66615
2058.68055 1.66205
2056.63211 1.65826
2054.58367 1.65461
2052.53523 1.65113
2050.48680 1.64803
2048.43836 1.64577
2046.38992 1.64446
2044.34148 1.64381
2042.29304 1.64350
2040.24460 1.64325
2038.19617 1.64348
2036.14773 1.64485
2034.09929 1.64742
2032.05085 1.65124
2030.00241 1.65600
2027.95397 1.66042
2025.90554 1.66429
2023.85710 1.66909
2021.80866 1.67543
2019.76022 1.68201
2017.71178 1.68767
2015.66334 1.69276
2013.61491 1.69809
2011.56647 1.70382
2009.51803 1.71020
2007.46959 1.71739
2005.42115 1.72431
2003.37271 1.72953
2001.32428 1.73354
1999.27584 1.73751
1997.22740 1.74087
1995.17896 1.74311
1993.13052 1.74489
1991.08208 1.74549
1989.03365 1.74405
1986.98521 1.74094
1984.93677 1.73639
1982.88833 1.73157
1980.83989 1.72661
1978.79145 1.72115
1976.74302 1.71565
1974.69458 1.71009
1972.64614 1.70445
1970.59770 1.69945
1968.54926 1.69504
1966.50082 1.68961
1964.45239 1.68315
1962.40395 1.67735
1960.35551 1.67237
1958.30707 1.66758
1956.25863 1.66231
1954.21019 1.65685
1952.16176 1.65259
1950.11332 1.64913
1948.06488 1.64584
1946.01644 1.64366
1943.96800 1.64240
1941.91956 1.63987
1939.87112 1.63576
1937.82269 1.63291
1935.77425 1.63216
1933.72581 1.63169
1931.67737 1.63057
1929.62893 1.62968
1927.58049 1.62958
1925.53206 1.63094
1923.48362 1.63466
1921.43518 1.63888
1919.38674 1.64265
1917.33830 1.64681
1915.28986 1.65064
1913.24143 1.65564
1911.19299 1.66343
1909.14455 1.67223
1907.09611 1.67914
1905.04767 1.68473
1902.99923 1.69085
1900.95080 1.69759
1898.90236 1.70469
1896.85392 1.71167
1894.80548 1.71689
1892.75704 1.71982
1890.70860 1.72281
1888.66017 1.72460
1886.61173 1.72309
1884.56329 1.72040
1882.51485 1.71719
1880.46641 1.71338
1878.41797 1.70831
1876.36954 1.70192
1874.32110 1.69624
1872.27266 1.69295
1870.22422 1.69142
1868.17578 1.68637
1866.12734 1.67558
1864.07891 1.66526
1862.03047 1.65763
1859.98203 1.65125
1857.93359 1.64458
1855.88515 1.63807
1853.83671 1.63255
1851.78828 1.62797
1849.73984 1.62495
1847.69140 1.62400
1845.64296 1.62357
1843.59452 1.61928
1841.54608 1.61194
1839.49765 1.60718
1837.44921 1.60505
1835.40077 1.60299
1833.35233 1.60140
1831.30389 1.60261
1829.25545 1.60443
1827.20702 1.60319
1825.15858 1.60198
1823.11014 1.60172
1821.06170 1.60155
1819.01326 1.60290
1816.96482 1.60596
1814.91639 1.60990
1812.86795 1.61562
1810.81951 1.62299
1808.77107 1.62947
1806.72263 1.63533
1804.67419 1.64230
1802.62575 1.65111
1800.57732 1.66092
1798.52888 1.66981
1796.48044 1.67805
1794.43200 1.68747
1792.38356 1.69829
1790.33512 1.70341
1788.28669 1.70323
1786.23825 1.70442
1784.18981 1.70723
1782.14137 1.70894
1780.09293 1.70839
1778.04449 1.70594
1775.99606 1.70403
1773.94762 1.70282
1771.89918 1.69826
1769.85074 1.68922
1767.80230 1.67936
1765.75386 1.67074
1763.70543 1.66445
1761.65699 1.65790
1759.60855 1.65074
1757.56011 1.64424
1755.51167 1.63688
1753.46323 1.63101
1751.41480 1.62919
1749.36636 1.62822
1747.31792 1.62288
1745.26948 1.61595
1743.22104 1.61030
1741.17260 1.60692
1739.12417 1.60539
1737.07573 1.60516
1735.02729 1.60784
1732.97885 1.61079
1730.93041 1.60837
1728.88197 1.60516
1726.83354 1.60446
1724.78510 1.60728
1722.73666 1.61174
1720.68822 1.61697
1718.63978 1.62861
1716.59134 1.64525
1714.54291 1.64944
1712.49447 1.64963
1710.44603 1.65421
1708.39759 1.66361
1706.34915 1.67836
1704.30071 1.69280
1702.25228 1.70293
1700.20384 1.71988
1698.15540 1.73972
1696.10696 1.74989
1694.05852 1.75360
1692.01008 1.75755
1689.96165 1.76680
1687.91321 1.77687
1685.86477 1.78503
1683.81633 1.79599
1681.76789 1.80002
1679.71945 1.79720
1677.67102 1.79343
1675.62258 1.79104
1673.57414 1.78999
1671.52570 1.78869
1669.47726 1.78192
1667.42882 1.76896
1665.38038 1.75973
1663.33195 1.75234
1661.28351 1.74046
1659.23507 1.72946
1657.18663 1.72431
1655.13819 1.72285
1653.08975 1.71443
1651.04132 1.70115
1648.99288 1.69626
1646.94444 1.69002
1644.89600 1.67705
1642.84756 1.66809
1640.79912 1.66446
1638.75069 1.66480
1636.70225 1.66818
1634.65381 1.66768
1632.60537 1.66350
1630.55693 1.66240
1628.50849 1.66509
1626.46006 1.66921
1624.41162 1.67355
1622.36318 1.67678
1620.31474 1.67815
1618.26630 1.68342
1616.21786 1.69310
1614.16943 1.69746
1612.12099 1.70159
1610.07255 1.71148
1608.02411 1.72429
1605.97567 1.73594
1603.92723 1.74694
1601.87880 1.75766
1599.83036 1.76759
1597.78192 1.77748
1595.73348 1.78703
1593.68504 1.79468
1591.63660 1.80084
1589.58817 1.80580
1587.53973 1.80862
1585.49129 1.80957
1583.44285 1.80988
1581.39441 1.81005
1579.34597 1.81019
1577.29754 1.80887
1575.24910 1.80008
1573.20066 1.79001
1571.15222 1.78363
1569.10378 1.77545
1567.05534 1.76556
1565.00691 1.75779
1562.95847 1.75157
1560.91003 1.74789
1558.86159 1.74575
1556.81315 1.73963
1554.76471 1.73332
1552.71628 1.72851
1550.66784 1.72515
1548.61940 1.72236
1546.57096 1.72328
1544.52252 1.72990
1542.47408 1.73805
1540.42565 1.73872
1538.37721 1.72765
1536.32877 1.72067
1534.28033 1.71965
1532.23189 1.71958
1530.18345 1.71922
1528.13501 1.72318
1526.08658 1.73024
1524.03814 1.73520
1521.98970 1.73884
1519.94126 1.74082
1517.89282 1.74204
1515.84438 1.74270
1513.79595 1.74240
1511.74751 1.74535
1509.69907 1.75312
1507.65063 1.76488
1505.60219 1.76956
1503.55375 1.76805
1501.50532 1.77039
1499.45688 1.77768
1497.40844 1.78749
1495.36000 1.79150
1493.31156 1.79233
1491.26312 1.79784
1489.21469 1.80414
1487.16625 1.79859
1485.11781 1.78850
1483.06937 1.78059
1481.02093 1.77328
1478.97249 1.76562
1476.92406 1.75946
1474.87562 1.75475
1472.82718 1.74279
1470.77874 1.72202
1468.73030 1.70605
1466.68186 1.69380
1464.63343 1.67942
1462.58499 1.66596
1460.53655 1.65914
1458.48811 1.65594
1456.43967 1.64616
1454.39123 1.63340
1452.34280 1.62437
1450.29436 1.61766
1448.24592 1.61169
1446.19748 1.60370
1444.14904 1.59560
1442.10060 1.59009
1440.05217 1.58747
1438.00373 1.58794
1435.95529 1.58947
1433.90685 1.58845
1431.85841 1.58754
1429.80997 1.58776
1427.76154 1.58771
1425.71310 1.59057
1423.66466 1.59741
1421.61622 1.60442
1419.56778 1.61302
1417.51934 1.62114
1415.47091 1.62488
1413.42247 1.63081
1411.37403 1.64086
1409.32559 1.65240
1407.27715 1.66511
1405.22871 1.67939
1403.18028 1.69055
1401.13184 1.69916
1399.08340 1.70911
1397.03496 1.71694
1394.98652 1.71944
1392.93808 1.71724
1390.88965 1.71472
1388.84121 1.71417
1386.79277 1.71123
1384.74433 1.70355
1382.69589 1.69585
1380.64745 1.68926
1378.59901 1.68262
1376.55058 1.67559
1374.50214 1.66609
1372.45370 1.65301
1370.40526 1.64041
1368.35682 1.62885
1366.30838 1.61933
1364.25995 1.61328
1362.21151 1.60636
1360.16307 1.59620
1358.11463 1.58742
1356.06619 1.58133
1354.01775 1.57629
1351.96932 1.57191
1349.92088 1.56861
1347.87244 1.56588
1345.82400 1.56399
1343.77556 1.56454
1341.72712 1.56815
1339.67869 1.57208
1337.63025 1.57163
1335.58181 1.56881
1333.53337 1.56779
1331.48493 1.56935
1329.43649 1.57297
1327.38806 1.57792
1325.33962 1.58393
1323.29118 1.59177
1321.24274 1.60246
1319.19430 1.61541
1317.14586 1.62760
1315.09743 1.63761
1313.04899 1.64679
1311.00055 1.65566
1308.95211 1.66445
1306.90367 1.67282
1304.85523 1.68043
1302.80680 1.68718
1300.75836 1.69184
1298.70992 1.69436
1296.66148 1.69523
1294.61304 1.69371
1292.56460 1.69038
1290.51617 1.68702
1288.46773 1.68373
1286.41929 1.67970
1284.37085 1.67474
1282.32241 1.66847
1280.27397 1.66066
1278.22554 1.65146
1276.17710 1.64139
1274.12866 1.63141
1272.08022 1.62177
1270.03178 1.61273
1267.98334 1.60515
1265.93491 1.59910
1263.88647 1.59449
1261.83803 1.59132
1259.78959 1.58939
1257.74115 1.58879
1255.69271 1.58982
1253.64428 1.59255
1251.59584 1.59622
1249.54740 1.60000
1247.49896 1.60323
1245.45052 1.60580
1243.40208 1.60854
1241.35364 1.61185
1239.30521 1.61602
1237.25677 1.62163
1235.20833 1.62868
1233.15989 1.63718
1231.11145 1.64735
1229.06301 1.65946
1227.01458 1.67332
1224.96614 1.68833
1222.91770 1.70399
1220.86926 1.71922
1218.82082 1.73387
1216.77238 1.74807
1214.72395 1.76033
1212.67551 1.77017
1210.62707 1.77819
1208.57863 1.78416
1206.53019 1.78851
1204.48175 1.79189
1202.43332 1.79410
1200.38488 1.79473
1198.33644 1.79348
1196.28800 1.79094
1194.23956 1.78770
1192.19112 1.78310
1190.14269 1.77726
1188.09425 1.77071
1186.04581 1.76251
1183.99737 1.75327
1181.94893 1.74508
1179.90049 1.73815
1177.85206 1.73211
1175.80362 1.72716
1173.75518 1.72390
1171.70674 1.72320
1169.65830 1.72438
1167.60986 1.72603
1165.56143 1.72817
1163.51299 1.73115
1161.46455 1.73476
1159.41611 1.73858
1157.36767 1.74246
1155.31923 1.74650
1153.27080 1.75094
1151.22236 1.75610
1149.17392 1.76269
1147.12548 1.77102
1145.07704 1.78091
1143.02860 1.79264
1140.98017 1.80631
1138.93173 1.82169
1136.88329 1.83867
1134.83485 1.85744
1132.78641 1.87792
1130.73797 1.89857
1128.68954 1.91854
1126.64110 1.93820
1124.59266 1.95690
1122.54422 1.97327
1120.49578 1.98613
1118.44734 1.99504
1116.39891 1.99992
1114.35047 2.00127
1112.30203 2.00047
1110.25359 1.99672
1108.20515 1.98808
1106.15671 1.97626
1104.10827 1.96366
1102.05984 1.94932
1100.01140 1.93321
1097.96296 1.91814
1095.91452 1.90522
1093.86608 1.89330
1091.81764 1.88208
1089.76921 1.87177
1087.72077 1.86262
1085.67233 1.85605
1083.62389 1.85305
1081.57545 1.85237
1079.52701 1.85230
1077.47858 1.85328
1075.43014 1.85618
1073.38170 1.86054
1071.33326 1.86600
1069.28482 1.87282
1067.23638 1.88143
1065.18795 1.89126
1063.13951 1.90255
1061.09107 1.91601
1059.04263 1.93124
1056.99419 1.94775
1054.94575 1.96553
1052.89732 1.98476
1050.84888 2.00372
1048.80044 2.02134
1046.75200 2.03914
1044.70356 2.05740
1042.65512 2.07406
1040.60669 2.08772
1038.55825 2.09724
1036.50981 2.10159
1034.46137 2.10434
1032.41293 2.10813
1030.36449 2.10933
1028.31606 2.10612
1026.26762 2.10170
1024.21918 2.09759
1022.17074 2.09101
1020.12230 2.08089
1018.07386 2.06944
1016.02543 2.05641
1013.97699 2.04110
1011.92855 2.02553
1009.88011 2.01122
1007.83167 1.99908
1005.78323 1.98951
1003.73480 1.97997
1001.68636 1.96902
999.63792 1.95970
997.58948 1.95258
995.54104 1.94494
993.49260 1.93739
991.44417 1.93251
989.39573 1.93090
987.34729 1.93105
985.29885 1.93174
983.25041 1.93436
981.20197 1.94015
979.15354 1.94827
977.10510 1.95865
975.05666 1.97117
973.00822 1.98424
970.95978 1.99723
968.91134 2.01189
966.86290 2.02992
964.81447 2.04933
962.76603 2.06791
960.71759 2.08754
958.66915 2.10962
956.62071 2.13189
954.57227 2.15127
952.52384 2.16737
950.47540 2.18173
948.42696 2.19366
946.37852 2.20076
944.33008 2.20223
942.28164 2.19921
940.23321 2.19412
938.18477 2.18734
936.13633 2.17834
934.08789 2.16849
932.03945 2.15771
929.99101 2.14553
927.94258 2.13148
925.89414 2.11850
923.84570 2.11165
921.79726 2.10521
919.74882 2.09505
917.70038 2.08970
915.65195 2.08944
913.60351 2.08631
911.55507 2.08038
909.50663 2.07623
907.45819 2.07310
905.40975 2.06732
903.36132 2.06130
901.31288 2.05687
899.26444 2.05268
897.21600 2.05346
895.16756 2.06175
893.11912 2.07268
891.07069 2.08416
889.02225 2.09745
886.97381 2.11288
884.92537 2.13074
882.87693 2.15010
880.82849 2.16914
878.78006 2.18627
876.73162 2.20296
874.68318 2.22205
872.63474 2.23745
870.58630 2.24194
868.53786 2.24021
866.48943 2.23655
864.44099 2.22947
862.39255 2.21960
860.34411 2.20844
858.29567 2.19464
856.24723 2.17750
854.19880 2.16005
852.15036 2.14225
850.10192 2.12369
848.05348 2.11058
846.00504 2.10487
843.95660 2.09860
841.90817 2.08882
839.85973 2.07995
837.81129 2.07159
835.76285 2.06607
833.71441 2.06946
831.66597 2.07928
829.61753 2.08896
827.56910 2.09924
825.52066 2.11690
823.47222 2.14171
821.42378 2.16697
819.37534 2.19400
817.32690 2.22686
815.27847 2.26051
813.23003 2.28855
811.18159 2.31322
809.13315 2.33753
807.08471 2.34937
805.03627 2.34813
802.98784 2.35629
800.93940 2.37276
798.89096 2.38161
796.84252 2.37936
794.79408 2.36726
792.74564 2.35391
790.69721 2.34284
788.64877 2.32885
786.60033 2.31604
784.55189 2.31164
782.50345 2.31468
780.45501 2.31675
778.40658 2.31303
776.35814 2.30740
774.30970 2.30877
772.26126 2.32739
770.21282 2.35384
768.16438 2.37427
766.11595 2.39711
764.06751 2.43795
762.01907 2.50160
759.97063 2.55778
757.92219 2.58216
755.87375 2.60287
753.82532 2.62306
751.77688 2.61882
749.72844 2.61995
747.68000 2.65203
745.63156 2.67530
743.58312 2.65902
741.53469 2.64765
739.48625 2.68494
737.43781 2.72780
735.38937 2.72072
733.34093 2.70954
731.29249 2.73582
729.24406 2.78942
727.19562 2.85078
725.14718 2.92245
723.09874 2.99856
721.05030 3.03941
719.00186 3.06078
716.95343 3.11889
714.90499 3.25854
712.85655 3.47768
710.80811 3.52439
708.75967 3.40480
706.71123 3.37749
704.66280 3.39639
702.61436 3.35523
700.56592 3.31707
698.51748 3.33929
696.46904 3.45316
694.42060 3.56508
692.37216 3.43556
690.32373 3.32653
688.27529 3.23647
686.22685 3.03930
684.17841 2.86851
682.12997 2.79679
680.08153 2.75526
678.03310 2.64655
675.98466 2.54125
673.93622 2.46623
671.88778 2.38937
669.83934 2.30726
667.79090 2.18305
665.74247 2.07812
663.69403 2.01547
661.64559 1.95425
659.59715 1.88560
657.54871 1.81427
655.50027 1.74695
653.45184 1.68725
651.40340 1.63126
649.35496 1.57962
647.30652 1.53943
645.25808 1.51193
643.20964 1.49225
641.16121 1.47495
639.11277 1.45565
637.06433 1.43550
635.01589 1.41976
632.96745 1.40625
630.91901 1.38809
628.87058 1.36887
626.82214 1.35574
624.77370 1.34573
622.72526 1.33238
620.67682 1.31817
618.62838 1.30908
616.57995 1.30519
614.53151 1.29889
612.48307 1.28510
610.43463 1.27248
608.38619 1.27056
606.33775 1.27291
604.28932 1.27245
602.24088 1.26793
600.19244 1.26084
598.14400 1.25833
