3996.50324 1.03473
3994.45480 1.03519
3992.40636 1.03529
3990.35792 1.03492
3988.30948 1.03432
3986.26104 1.03388
3984.21261 1.03370
3982.16417 1.03383
3980.11573 1.03410
3978.06729 1.03459
3976.01885 1.03550
3973.97041 1.03590
3971.92198 1.03541
3969.87354 1.03458
3967.82510 1.03361
3965.77666 1.03350
3963.72822 1.03502
3961.67978 1.03634
3959.63135 1.03575
3957.58291 1.03452
3955.53447 1.03412
3953.48603 1.03510
3951.43759 1.03733
3949.38915 1.03904
3947.34072 1.03853
3945.29228 1.03798
3943.24384 1.03827
3941.19540 1.03663
3939.14696 1.03420
3937.09852 1.03356
3935.05009 1.03544
3933.00165 1.03898
3930.95321 1.04034
3928.90477 1.03847
3926.85633 1.03789
3924.80789 1.03897
3922.75946 1.03831
3920.71102 1.03763
3918.66258 1.03842
3916.61414 1.03739
3914.56570 1.03411
3912.51726 1.03197
3910.46883 1.03185
3908.42039 1.03429
3906.37195 1.04069
3904.32351 1.04826
3902.27507 1.04999
3900.22663 1.04637
3898.17820 1.04104
3896.12976 1.03779
3894.08132 1.03918
3892.03288 1.04155
3889.98444 1.03926
3887.93600 1.03779
3885.88756 1.04033
3883.83913 1.04273
3881.79069 1.04336
3879.74225 1.04066
3877.69381 1.03690
3875.64537 1.03795
3873.59693 1.04276
3871.54850 1.04666
3869.50006 1.04610
3867.45162 1.04350
3865.40318 1.04472
3863.35474 1.04497
3861.30630 1.04027
3859.25787 1.03836
3857.20943 1.04238
3855.16099 1.05140
3853.11255 1.05724
3851.06411 1.04774
3849.01567 1.03808
3846.96724 1.03428
3844.91880 1.03652
3842.87036 1.04256
3840.82192 1.04934
3838.77348 1.05366
3836.72504 1.05075
3834.67661 1.04494
3832.62817 1.04042
3830.57973 1.03714
3828.53129 1.03644
3826.48285 1.03803
3824.43441 1.04110
3822.38598 1.04727
3820.33754 1.05050
3818.28910 1.04651
3816.24066 1.04146
3814.19222 1.03480
3812.14378 1.03020
3810.09535 1.03066
3808.04691 1.03565
3805.99847 1.04016
3803.95003 1.04310
3801.90159 1.04628
3799.85315 1.04402
3797.80472 1.03922
3795.75628 1.03404
3793.70784 1.02895
3791.65940 1.02647
3789.61096 1.02652
3787.56252 1.02826
3785.51409 1.03018
3783.46565 1.03045
3781.41721 1.03109
3779.36877 1.03186
3777.32033 1.02920
3775.27189 1.02650
3773.22346 1.02754
3771.17502 1.03153
3769.12658 1.03387
3767.07814 1.03307
3765.02970 1.03135
3762.98126 1.03059
3760.93283 1.03366
3758.88439 1.03784
3756.83595 1.03832
3754.78751 1.04022
3752.73907 1.04863
3750.69063 1.05716
3748.64219 1.05438
3746.59376 1.05011
3744.54532 1.04568
3742.49688 1.04093
3740.44844 1.04006
3738.40000 1.04388
3736.35156 1.05112
3734.30313 1.05163
3732.25469 1.04240
3730.20625 1.03529
3728.15781 1.03433
3726.10937 1.03695
3724.06093 1.03793
3722.01250 1.03518
3719.96406 1.03091
3717.91562 1.02768
3715.86718 1.02787
3713.81874 1.03344
3711.77030 1.04111
3709.72187 1.03832
3707.67343 1.03000
3705.62499 1.02600
3703.57655 1.02628
3701.52811 1.02658
3699.47967 1.02447
3697.43124 1.02312
3695.38280 1.02408
3693.33436 1.02846
3691.28592 1.03671
3689.23748 1.04002
3687.18904 1.03211
3685.14061 1.02515
3683.09217 1.02277
3681.04373 1.02468
3678.99529 1.03048
3676.94685 1.03841
3674.89841 1.04062
3672.84998 1.03738
3670.80154 1.03693
3668.75310 1.03219
3666.70466 1.02365
3664.65622 1.01854
3662.60778 1.01736
3660.55935 1.01865
3658.51091 1.02152
3656.46247 1.02411
3654.41403 1.02493
3652.36559 1.02931
3650.31715 1.04112
3648.26872 1.04479
3646.22028 1.03285
3644.17184 1.02414
3642.12340 1.02059
3640.07496 1.01936
3638.02652 1.01896
3635.97809 1.01947
3633.92965 1.02163
3631.88121 1.02620
3629.83277 1.03257
3627.78433 1.03125
3625.73589 1.02369
3623.68746 1.02089
3621.63902 1.02431
3619.59058 1.03017
3617.54214 1.03096
3615.49370 1.02954
3613.44526 1.02855
3611.39682 1.02655
3609.34839 1.02565
3607.29995 1.02366
3605.25151 1.01974
3603.20307 1.01883
3601.15463 1.02073
3599.10619 1.02167
3597.05776 1.02203
3595.00932 1.02199
3592.96088 1.01972
3590.91244 1.01922
3588.86400 1.02355
3586.81556 1.02510
3584.76713 1.01943
3582.71869 1.01540
3580.67025 1.01470
3578.62181 1.01474
3576.57337 1.01425
3574.52493 1.01348
3572.47650 1.01354
3570.42806 1.01694
3568.37962 1.02469
3566.33118 1.02824
3564.28274 1.02220
3562.23430 1.01649
3560.18587 1.01368
3558.13743 1.01195
3556.08899 1.01162
3554.04055 1.01307
3551.99211 1.01401
3549.94367 1.01428
3547.89524 1.01648
3545.84680 1.01831
3543.79836 1.01578
3541.74992 1.01166
3539.70148 1.00966
3537.65304 1.00988
3535.60461 1.01013
3533.55617 1.00974
3531.50773 1.01049
3529.45929 1.01287
3527.41085 1.01484
3525.36241 1.01529
3523.31398 1.01414
3521.26554 1.01149
3519.21710 1.00907
3517.16866 1.00776
3515.12022 1.00734
3513.07178 1.00816
3511.02335 1.00980
3508.97491 1.01003
3506.92647 1.00938
3504.87803 1.01059
3502.82959 1.01142
3500.78115 1.00935
3498.73272 1.00753
3496.68428 1.00695
3494.63584 1.00613
3492.58740 1.00556
3490.53896 1.00579
3488.49052 1.00611
3486.44209 1.00628
3484.39365 1.00685
3482.34521 1.00756
3480.29677 1.00692
3478.24833 1.00561
3476.19989 1.00542
3474.15146 1.00550
3472.10302 1.00483
3470.05458 1.00432
3468.00614 1.00438
3465.95770 1.00458
3463.90926 1.00478
3461.86082 1.00460
3459.81239 1.00409
3457.76395 1.00383
3455.71551 1.00336
3453.66707 1.00260
3451.61863 1.00266
3449.57019 1.00435
3447.52176 1.00632
3445.47332 1.00613
3443.42488 1.00462
3441.37644 1.00340
3439.32800 1.00251
3437.27956 1.00198
3435.23113 1.00187
3433.18269 1.00199
3431.13425 1.00197
3429.08581 1.00170
3427.03737 1.00155
3424.98893 1.00195
3422.94050 1.00280
3420.89206 1.00311
3418.84362 1.00222
3416.79518 1.00115
3414.74674 1.00081
3412.69830 1.00086
3410.64987 1.00068
3408.60143 1.00030
3406.55299 1.00023
3404.50455 1.00040
3402.45611 1.00039
3400.40767 1.00037
3398.35924 1.00064
3396.31080 1.00096
3394.26236 1.00111
3392.21392 1.00067
3390.16548 0.99961
3388.11704 0.99915
3386.06861 0.99964
3384.02017 1.00001
3381.97173 0.99962
3379.92329 0.99899
3377.87485 0.99871
3375.82641 0.99877
3373.77798 0.99874
3371.72954 0.99855
3369.68110 0.99863
3367.63266 0.99906
3365.58422 0.99931
3363.53578 0.99898
3361.48735 0.99841
3359.43891 0.99812
3357.39047 0.99802
3355.34203 0.99774
3353.29359 0.99742
3351.24515 0.99743
3349.19672 0.99742
3347.14828 0.99715
3345.09984 0.99709
3343.05140 0.99737
3341.00296 0.99752
3338.95452 0.99762
3336.90609 0.99796
3334.85765 0.99790
3332.80921 0.99726
3330.76077 0.99693
3328.71233 0.99706
3326.66389 0.99708
3324.61545 0.99687
3322.56702 0.99677
3320.51858 0.99667
3318.47014 0.99637
3316.42170 0.99621
3314.37326 0.99635
3312.32482 0.99644
3310.27639 0.99643
3308.22795 0.99621
3306.17951 0.99572
3304.13107 0.99540
3302.08263 0.99537
3300.03419 0.99557
3297.98576 0.99587
3295.93732 0.99595
3293.88888 0.99598
3291.84044 0.99616
3289.79200 0.99628
3287.74356 0.99620
3285.69513 0.99607
3283.64669 0.99601
3281.59825 0.99619
3279.54981 0.99652
3277.50137 0.99677
3275.45293 0.99693
3273.40450 0.99674
3271.35606 0.99616
3269.30762 0.99592
3267.25918 0.99602
3265.21074 0.99586
3263.16230 0.99568
3261.11387 0.99586
3259.06543 0.99604
3257.01699 0.99600
3254.96855 0.99597
3252.92011 0.99577
3250.87167 0.99523
3248.82324 0.99489
3246.77480 0.99514
3244.72636 0.99548
3242.67792 0.99537
3240.62948 0.99506
3238.58104 0.99482
3236.53261 0.99459
3234.48417 0.99433
3232.43573 0.99432
3230.38729 0.99459
3228.33885 0.99458
3226.29041 0.99436
3224.24198 0.99430
3222.19354 0.99428
3220.14510 0.99408
3218.09666 0.99372
3216.04822 0.99372
3213.99978 0.99390
3211.95135 0.99374
3209.90291 0.99348
3207.85447 0.99313
3205.80603 0.99266
3203.75759 0.99232
3201.70915 0.99226
3199.66072 0.99250
3197.61228 0.99247
3195.56384 0.99199
3193.51540 0.99150
3191.46696 0.99113
3189.41852 0.99073
3187.37008 0.99057
3185.32165 0.99060
3183.27321 0.99029
3181.22477 0.99003
3179.17633 0.99025
3177.12789 0.99008
3175.07945 0.98944
3173.03102 0.98921
3170.98258 0.98924
3168.93414 0.98907
3166.88570 0.98867
3164.83726 0.98811
3162.78882 0.98773
3160.74039 0.98759
3158.69195 0.98729
3156.64351 0.98676
3154.59507 0.98629
3152.54663 0.98597
3150.49819 0.98569
3148.44976 0.98538
3146.40132 0.98502
3144.35288 0.98474
3142.30444 0.98445
3140.25600 0.98392
3138.20756 0.98332
3136.15913 0.98318
3134.11069 0.98347
3132.06225 0.98333
3130.01381 0.98259
3127.96537 0.98197
3125.91693 0.98171
3123.86850 0.98164
3121.82006 0.98160
3119.77162 0.98141
3117.72318 0.98090
3115.67474 0.98016
3113.62630 0.97956
3111.57787 0.97921
3109.52943 0.97888
3107.48099 0.97838
3105.43255 0.97796
3103.38411 0.97779
3101.33567 0.97746
3099.28724 0.97680
3097.23880 0.97625
3095.19036 0.97573
3093.14192 0.97507
3091.09348 0.97449
3089.04504 0.97392
3086.99661 0.97343
3084.94817 0.97327
3082.89973 0.97325
3080.85129 0.97301
3078.80285 0.97239
3076.75441 0.97169
3074.70598 0.97131
3072.65754 0.97109
3070.60910 0.97071
3068.56066 0.97046
3066.51222 0.97038
3064.46378 0.96992
3062.41535 0.96914
3060.36691 0.96865
3058.31847 0.96864
3056.27003 0.96853
3054.22159 0.96795
3052.17315 0.96737
3050.12471 0.96705
3048.07628 0.96668
3046.02784 0.96610
3043.97940 0.96549
3041.93096 0.96504
3039.88252 0.96464
3037.83408 0.96427
3035.78565 0.96412
3033.73721 0.96413
3031.68877 0.96381
3029.64033 0.96291
3027.59189 0.96206
3025.54345 0.96175
3023.49502 0.96159
3021.44658 0.96122
3019.39814 0.96080
3017.34970 0.96062
3015.30126 0.96050
3013.25282 0.96015
3011.20439 0.95967
3009.15595 0.95915
3007.10751 0.95871
3005.05907 0.95841
3003.01063 0.95798
3000.96219 0.95738
2998.91376 0.95680
2996.86532 0.95641
2994.81688 0.95622
2992.76844 0.95589
2990.72000 0.95544
2988.67156 0.95505
2986.62313 0.95459
2984.57469 0.95420
2982.52625 0.95396
2980.47781 0.95358
2978.42937 0.95308
2976.38093 0.95258
2974.33250 0.95223
2972.28406 0.95213
2970.23562 0.95201
2968.18718 0.95184
2966.13874 0.95174
2964.09030 0.95170
2962.04187 0.95169
2959.99343 0.95168
2957.94499 0.95164
2955.89655 0.95152
2953.84811 0.95117
2951.79967 0.95050
2949.75124 0.94995
2947.70280 0.94974
2945.65436 0.94948
2943.60592 0.94906
2941.55748 0.94874
2939.50904 0.94869
2937.46061 0.94894
2935.41217 0.94941
2933.36373 0.94988
2931.31529 0.95016
2929.26685 0.95033
2927.21841 0.95048
2925.16998 0.95043
2923.12154 0.95025
2921.07310 0.95005
2919.02466 0.94977
2916.97622 0.94939
2914.92778 0.94904
2912.87934 0.94875
2910.83091 0.94846
2908.78247 0.94802
2906.73403 0.94734
2904.68559 0.94660
2902.63715 0.94599
2900.58871 0.94550
2898.54028 0.94513
2896.49184 0.94488
2894.44340 0.94452
2892.39496 0.94382
2890.34652 0.94302
2888.29808 0.94246
2886.24965 0.94202
2884.20121 0.94143
2882.15277 0.94079
2880.10433 0.94044
2878.05589 0.94036
2876.00745 0.94009
2873.95902 0.93961
2871.91058 0.93916
2869.86214 0.93882
2867.81370 0.93860
2865.76526 0.93840
2863.71682 0.93823
2861.66839 0.93829
2859.61995 0.93853
2857.57151 0.93885
2855.52307 0.93924
2853.47463 0.93945
2851.42619 0.93927
2849.37776 0.93882
2847.32932 0.93817
2845.28088 0.93738
2843.23244 0.93663
2841.18400 0.93588
2839.13556 0.93509
2837.08713 0.93438
2835.03869 0.93378
2832.99025 0.93323
2830.94181 0.93268
2828.89337 0.93213
2826.84493 0.93157
2824.79650 0.93111
2822.74806 0.93079
2820.69962 0.93041
2818.65118 0.92993
2816.60274 0.92951
2814.55430 0.92909
2812.50587 0.92846
2810.45743 0.92781
2808.40899 0.92737
2806.36055 0.92705
2804.31211 0.92666
2802.26367 0.92635
2800.21524 0.92618
2798.16680 0.92587
2796.11836 0.92535
2794.06992 0.92490
2792.02148 0.92461
2789.97304 0.92427
2787.92461 0.92393
2785.87617 0.92359
2783.82773 0.92307
2781.77929 0.92250
2779.73085 0.92211
2777.68241 0.92191
2775.63397 0.92174
2773.58554 0.92142
2771.53710 0.92096
2769.48866 0.92043
2767.44022 0.91991
2765.39178 0.91946
2763.34334 0.91902
2761.29491 0.91859
2759.24647 0.91826
2757.19803 0.91799
2755.14959 0.91767
2753.10115 0.91732
2751.05271 0.91695
2749.00428 0.91645
2746.95584 0.91594
2744.90740 0.91562
2742.85896 0.91545
2740.81052 0.91528
2738.76208 0.91497
2736.71365 0.91449
2734.66521 0.91397
2732.61677 0.91361
2730.56833 0.91344
2728.51989 0.91319
2726.47145 0.91274
2724.42302 0.91227
2722.37458 0.91177
2720.32614 0.91127
2718.27770 0.91091
2716.22926 0.91061
2714.18082 0.91025
2712.13239 0.90989
2710.08395 0.90953
2708.03551 0.90917
2705.98707 0.90884
2703.93863 0.90856
2701.89019 0.90823
2699.84176 0.90780
2697.79332 0.90728
2695.74488 0.90683
2693.69644 0.90664
2691.64800 0.90648
2689.59956 0.90603
2687.55113 0.90544
2685.50269 0.90500
2683.45425 0.90480
2681.40581 0.90468
2679.35737 0.90445
2677.30893 0.90414
2675.26050 0.90378
2673.21206 0.90338
2671.16362 0.90294
2669.11518 0.90249
2667.06674 0.90215
2665.01830 0.90194
2662.96987 0.90168
2660.92143 0.90135
2658.87299 0.90097
2656.82455 0.90060
2654.77611 0.90027
2652.72767 0.89994
2650.67924 0.89960
2648.63080 0.89923
2646.58236 0.89885
2644.53392 0.89848
2642.48548 0.89819
2640.43704 0.89788
2638.38860 0.89749
2636.34017 0.89715
2634.29173 0.89687
2632.24329 0.89648
2630.19485 0.89598
2628.14641 0.89558
2626.09797 0.89536
2624.04954 0.89517
2622.00110 0.89494
2619.95266 0.89467
2617.90422 0.89426
2615.85578 0.89385
2613.80734 0.89357
2611.75891 0.89330
2609.71047 0.89294
2607.66203 0.89263
2605.61359 0.89234
2603.56515 0.89189
2601.51671 0.89146
2599.46828 0.89126
2597.41984 0.89116
2595.37140 0.89091
2593.32296 0.89044
2591.27452 0.88991
2589.22608 0.88945
2587.17765 0.88910
2585.12921 0.88885
2583.08077 0.88866
2581.03233 0.88842
2578.98389 0.88814
2576.93545 0.88786
2574.88702 0.88751
2572.83858 0.88707
2570.79014 0.88668
2568.74170 0.88640
2566.69326 0.88624
2564.64482 0.88611
2562.59639 0.88581
2560.54795 0.88540
2558.49951 0.88500
2556.45107 0.88462
2554.40263 0.88429
2552.35419 0.88398
2550.30576 0.88371
2548.25732 0.88348
2546.20888 0.88321
2544.16044 0.88288
2542.11200 0.88253
2540.06356 0.88223
2538.01513 0.88192
2535.96669 0.88158
2533.91825 0.88137
2531.86981 0.88119
2529.82137 0.88092
2527.77293 0.88062
2525.72450 0.88028
2523.67606 0.87981
2521.62762 0.87942
2519.57918 0.87927
2517.53074 0.87915
2515.48230 0.87893
2513.43387 0.87869
2511.38543 0.87842
2509.33699 0.87803
2507.28855 0.87768
2505.24011 0.87751
2503.19167 0.87733
2501.14324 0.87702
2499.09480 0.87674
2497.04636 0.87654
2494.99792 0.87627
2492.94948 0.87589
2490.90104 0.87551
2488.85260 0.87517
2486.80417 0.87490
2484.75573 0.87478
2482.70729 0.87467
2480.65885 0.87443
2478.61041 0.87410
2476.56197 0.87372
2474.51354 0.87341
2472.46510 0.87325
2470.41666 0.87312
2468.36822 0.87287
2466.31978 0.87254
2464.27134 0.87219
2462.22291 0.87192
2460.17447 0.87173
2458.12603 0.87159
2456.07759 0.87148
2454.02915 0.87125
2451.98071 0.87084
2449.93228 0.87050
2447.88384 0.87038
2445.83540 0.87036
2443.78696 0.87019
2441.73852 0.86988
2439.69008 0.86967
2437.64165 0.86946
2435.59321 0.86915
2433.54477 0.86899
2431.49633 0.86891
2429.44789 0.86865
2427.39945 0.86830
2425.35102 0.86804
2423.30258 0.86782
2421.25414 0.86755
2419.20570 0.86731
2417.15726 0.86716
2415.10882 0.86704
2413.06039 0.86683
2411.01195 0.86656
2408.96351 0.86634
2406.91507 0.86616
2404.86663 0.86595
2402.81819 0.86569
2400.76976 0.86549
2398.72132 0.86541
2396.67288 0.86525
2394.62444 0.86508
2392.57600 0.86495
2390.52756 0.86486
2388.47913 0.86484
2386.43069 0.86503
2384.38225 0.86565
2382.33381 0.86673
2380.28537 0.86814
2378.23693 0.86952
2376.18850 0.87079
2374.14006 0.87226
2372.09162 0.87397
2370.04318 0.87559
2367.99474 0.87673
2365.94630 0.87719
2363.89787 0.87737
2361.84943 0.87783
2359.80099 0.87839
2357.75255 0.87812
2355.70411 0.87675
2353.65567 0.87497
2351.60723 0.87321
2349.55880 0.87210
2347.51036 0.87215
2345.46192 0.87311
2343.41348 0.87370
2341.36504 0.87341
2339.31660 0.87301
2337.26817 0.87293
2335.21973 0.87297
2333.17129 0.87286
2331.12285 0.87254
2329.07441 0.87195
2327.02597 0.87128
2324.97754 0.87107
2322.92910 0.87104
2320.88066 0.87024
2318.83222 0.86873
2316.78378 0.86728
2314.73534 0.86634
2312.68691 0.86573
2310.63847 0.86507
2308.59003 0.86437
2306.54159 0.86369
2304.49315 0.86305
2302.44471 0.86257
2300.39628 0.86208
2298.34784 0.86137
2296.29940 0.86069
2294.25096 0.86023
2292.20252 0.85980
2290.15408 0.85932
2288.10565 0.85893
2286.05721 0.85864
2284.00877 0.85841
2281.96033 0.85830
2279.91189 0.85836
2277.86345 0.85846
2275.81502 0.85847
2273.76658 0.85830
2271.71814 0.85813
2269.66970 0.85811
2267.62126 0.85799
2265.57282 0.85774
2263.52439 0.85758
2261.47595 0.85750
2259.42751 0.85742
2257.37907 0.85727
2255.33063 0.85709
2253.28219 0.85694
2251.23376 0.85681
2249.18532 0.85666
2247.13688 0.85647
2245.08844 0.85624
2243.04000 0.85612
2240.99156 0.85614
2238.94313 0.85621
2236.89469 0.85627
2234.84625 0.85627
2232.79781 0.85615
2230.74937 0.85596
2228.70093 0.85577
2226.65250 0.85566
2224.60406 0.85569
2222.55562 0.85572
2220.50718 0.85559
2218.45874 0.85543
2216.41030 0.85536
2214.36186 0.85538
2212.31343 0.85545
2210.26499 0.85563
2208.21655 0.85579
2206.16811 0.85574
2204.11967 0.85559
2202.07123 0.85556
2200.02280 0.85557
2197.97436 0.85550
2195.92592 0.85535
2193.87748 0.85527
2191.82904 0.85530
2189.78060 0.85525
2187.73217 0.85513
2185.68373 0.85511
2183.63529 0.85520
2181.58685 0.85523
2179.53841 0.85518
2177.48997 0.85512
2175.44154 0.85499
2173.39310 0.85485
2171.34466 0.85483
2169.29622 0.85489
2167.24778 0.85502
2165.19934 0.85510
2163.15091 0.85509
2161.10247 0.85507
2159.05403 0.85505
2157.00559 0.85499
2154.95715 0.85490
2152.90871 0.85484
2150.86028 0.85486
2148.81184 0.85492
2146.76340 0.85506
2144.71496 0.85518
2142.66652 0.85522
2140.61808 0.85525
2138.56965 0.85524
2136.52121 0.85525
2134.47277 0.85529
2132.42433 0.85532
2130.37589 0.85543
2128.32745 0.85546
2126.27902 0.85542
2124.23058 0.85541
2122.18214 0.85544
2120.13370 0.85548
2118.08526 0.85556
2116.03682 0.85568
2113.98839 0.85577
2111.93995 0.85577
2109.89151 0.85580
2107.84307 0.85577
2105.79463 0.85558
2103.74619 0.85548
2101.69776 0.85560
2099.64932 0.85589
2097.60088 0.85614
2095.55244 0.85613
2093.50400 0.85609
2091.45556 0.85624
2089.40713 0.85633
2087.35869 0.85623
2085.31025 0.85615
2083.26181 0.85616
2081.21337 0.85632
2079.16493 0.85660
2077.11649 0.85687
2075.06806 0.85709
2073.01962 0.85713
2070.97118 0.85703
2068.92274 0.85719
2066.87430 0.85782
2064.82586 0.85821
2062.77743 0.85791
2060.72899 0.85752
2058.68055 0.85733
2056.63211 0.85736
2054.58367 0.85755
2052.53523 0.85771
2050.48680 0.85779
2048.43836 0.85787
2046.38992 0.85802
2044.34148 0.85835
2042.29304 0.85874
2040.24460 0.85870
2038.19617 0.85839
2036.14773 0.85832
2034.09929 0.85843
2032.05085 0.85853
2030.00241 0.85856
2027.95397 0.85859
2025.90554 0.85872
2023.85710 0.85902
2021.80866 0.85963
2019.76022 0.86065
2017.71178 0.86147
2015.66334 0.86116
2013.61491 0.86032
2011.56647 0.86003
2009.51803 0.86021
2007.46959 0.86033
2005.42115 0.86033
2003.37271 0.86041
2001.32428 0.86065
1999.27584 0.86095
1997.22740 0.86116
1995.17896 0.86194
1993.13052 0.86341
1991.08208 0.86385
1989.03365 0.86307
1986.98521 0.86226
1984.93677 0.86164
1982.88833 0.86127
1980.83989 0.86125
1978.79145 0.86150
1976.74302 0.86180
1974.69458 0.86197
1972.64614 0.86205
1970.59770 0.86267
1968.54926 0.86422
1966.50082 0.86497
1964.45239 0.86404
1962.40395 0.86327
1960.35551 0.86328
1958.30707 0.86352
1956.25863 0.86392
1954.21019 0.86415
1952.16176 0.86408
1950.11332 0.86426
1948.06488 0.86522
1946.01644 0.86702
1943.96800 0.86897
1941.91956 0.86901
1939.87112 0.86693
1937.82269 0.86546
1935.77425 0.86520
1933.72581 0.86532
1931.67737 0.86545
1929.62893 0.86553
1927.58049 0.86603
1925.53206 0.86793
1923.48362 0.87040
1921.43518 0.87097
1919.38674 0.87072
1917.33830 0.87025
1915.28986 0.86868
1913.24143 0.86818
1911.19299 0.86966
1909.14455 0.87076
1907.09611 0.86985
1905.04767 0.86874
1902.99923 0.86855
1900.95080 0.86859
1898.90236 0.86904
1896.85392 0.87045
1894.80548 0.87162
1892.75704 0.87205
1890.70860 0.87304
1888.66017 0.87312
1886.61173 0.87172
1884.56329 0.87095
1882.51485 0.87079
1880.46641 0.87082
1878.41797 0.87103
1876.36954 0.87115
1874.32110 0.87174
1872.27266 0.87443
1870.22422 0.87973
1868.17578 0.88262
1866.12734 0.87900
1864.07891 0.87503
1862.03047 0.87390
1859.98203 0.87403
1857.93359 0.87390
1855.88515 0.87362
1853.83671 0.87375
1851.78828 0.87460
1849.73984 0.87678
1847.69140 0.88029
1845.64296 0.88405
1843.59452 0.88439
1841.54608 0.88083
1839.49765 0.87882
1837.44921 0.87903
1835.40077 0.87921
1833.35233 0.88035
1831.30389 0.88426
1829.25545 0.88725
1827.20702 0.88653
1825.15858 0.88514
1823.11014 0.88287
1821.06170 0.88070
1819.01326 0.88032
1816.96482 0.88069
1814.91639 0.88144
1812.86795 0.88372
1810.81951 0.88584
1808.77107 0.88525
1806.72263 0.88397
1804.67419 0.88466
1802.62575 0.88775
1800.57732 0.89042
1798.52888 0.89052
1796.48044 0.89104
1794.43200 0.89399
1792.38356 0.89658
1790.33512 0.89320
1788.28669 0.88868
1786.23825 0.88782
1784.18981 0.88919
1782.14137 0.89100
1780.09293 0.89217
1778.04449 0.89241
1775.99606 0.89465
1773.94762 0.90039
1771.89918 0.90452
1769.85074 0.90161
1767.80230 0.89708
1765.75386 0.89510
1763.70543 0.89723
1761.65699 0.90133
1759.60855 0.90340
1757.56011 0.90497
1755.51167 0.90670
1753.46323 0.91002
1751.41480 0.91795
1749.36636 0.92511
1747.31792 0.92359
1745.26948 0.91877
1743.22104 0.91471
1741.17260 0.91138
1739.12417 0.90832
1737.07573 0.90730
1735.02729 0.91041
1732.97885 0.91132
1730.93041 0.90535
1728.88197 0.89886
1726.83354 0.89510
1724.78510 0.89501
1722.73666 0.89659
1720.68822 0.90016
1718.63978 0.90943
1716.59134 0.91740
1714.54291 0.91100
1712.49447 0.90299
1710.44603 0.90012
1708.39759 0.90239
1706.34915 0.90771
1704.30071 0.91092
1702.25228 0.91250
1700.20384 0.91787
1698.15540 0.92225
1696.10696 0.91718
1694.05852 0.90827
1692.01008 0.90537
1689.96165 0.90821
1687.91321 0.91294
1685.86477 0.91929
1683.81633 0.92464
1681.76789 0.91974
1679.71945 0.91364
1677.67102 0.91136
1675.62258 0.91310
1673.57414 0.91599
1671.52570 0.91939
1669.47726 0.92007
1667.42882 0.91406
1665.38038 0.91090
1663.33195 0.91245
1661.28351 0.91196
1659.23507 0.90983
1657.18663 0.91213
1655.13819 0.92038
1653.08975 0.92887
1651.04132 0.92672
1648.99288 0.92824
1646.94444 0.93018
1644.89600 0.92144
1642.84756 0.91412
1640.79912 0.91339
1638.75069 0.91820
1636.70225 0.92504
1634.65381 0.92186
1632.60537 0.91453
1630.55693 0.91268
1628.50849 0.91461
1626.46006 0.91707
1624.41162 0.91928
1622.36318 0.91900
1620.31474 0.91734
1618.26630 0.91945
1616.21786 0.92075
1614.16943 0.91604
1612.12099 0.91327
1610.07255 0.91414
1608.02411 0.91484
1605.97567 0.91398
1603.92723 0.91366
1601.87880 0.91347
1599.83036 0.91252
1597.78192 0.91244
1595.73348 0.91337
1593.68504 0.91338
1591.63660 0.91255
1589.58817 0.91175
1587.53973 0.91087
1585.49129 0.91029
1583.44285 0.91038
1581.39441 0.91156
1579.34597 0.91564
1577.29754 0.92264
1575.24910 0.92374
1573.20066 0.91992
1571.15222 0.92083
1569.10378 0.92305
1567.05534 0.92130
1565.00691 0.92026
1562.95847 0.92227
1560.91003 0.92955
1558.86159 0.94250
1556.81315 0.93928
1554.76471 0.93096
1552.71628 0.92576
1550.66784 0.92362
1548.61940 0.92297
1546.57096 0.92626
1544.52252 0.93715
1542.47408 0.95216
1540.42565 0.95547
1538.37721 0.93996
1536.32877 0.93249
1534.28033 0.93254
1532.23189 0.93095
1530.18345 0.92878
1528.13501 0.93210
1526.08658 0.93849
1524.03814 0.94415
1521.98970 0.94849
1519.94126 0.94682
1517.89282 0.94339
1515.84438 0.93849
1513.79595 0.93342
1511.74751 0.93482
1509.69907 0.94465
1507.65063 0.95594
1505.60219 0.94405
1503.55375 0.93140
1501.50532 0.92883
1499.45688 0.93219
1497.40844 0.93537
1495.36000 0.93183
1493.31156 0.92969
1491.26312 0.93526
1489.21469 0.94145
1487.16625 0.93580
1485.11781 0.92823
1483.06937 0.92572
1481.02093 0.92617
1478.97249 0.92780
1476.92406 0.93287
1474.87562 0.94198
1472.82718 0.94672
1470.77874 0.94011
1468.73030 0.93486
1466.68186 0.93554
1464.63343 0.93697
1462.58499 0.93600
1460.53655 0.93920
1458.48811 0.94969
1456.43967 0.95202
1454.39123 0.94123
1452.34280 0.93462
1450.29436 0.93311
1448.24592 0.93361
1446.19748 0.93177
1444.14904 0.92889
1442.10060 0.92814
1440.05217 0.93036
1438.00373 0.93559
1435.95529 0.93904
1433.90685 0.93729
1431.85841 0.93636
1429.80997 0.93624
1427.76154 0.93503
1425.71310 0.93568
1423.66466 0.93813
1421.61622 0.94070
1419.56778 0.94459
1417.51934 0.94379
1415.47091 0.93784
1413.42247 0.93433
1411.37403 0.93343
1409.32559 0.93296
1407.27715 0.93351
1405.22871 0.93425
1403.18028 0.93290
1401.13184 0.93288
1399.08340 0.93605
1397.03496 0.93872
1394.98652 0.93757
1392.93808 0.93335
1390.88965 0.93148
1388.84121 0.93396
1386.79277 0.93588
1384.74433 0.93381
1382.69589 0.93228
1380.64745 0.93304
1378.59901 0.93494
1376.55058 0.93805
1374.50214 0.94056
1372.45370 0.93908
1370.40526 0.93691
1368.35682 0.93628
1366.30838 0.93676
1364.25995 0.93962
1362.21151 0.94159
1360.16307 0.93885
1358.11463 0.93616
1356.06619 0.93566
1354.01775 0.93549
1351.96932 0.93512
1349.92088 0.93512
1347.87244 0.93494
1345.82400 0.93460
1343.77556 0.93565
1341.72712 0.93958
1339.67869 0.94341
1337.63025 0.94162
1335.58181 0.93729
1333.53337 0.93505
1331.48493 0.93476
1329.43649 0.93494
1327.38806 0.93501
1325.33962 0.93522
1323.29118 0.93597
1321.24274 0.93762
1319.19430 0.93943
1317.14586 0.93984
1315.09743 0.93937
1313.04899 0.93860
1311.00055 0.93725
1308.95211 0.93628
1306.90367 0.93605
1304.85523 0.93591
1302.80680 0.93575
1300.75836 0.93574
1298.70992 0.93593
1296.66148 0.93613
1294.61304 0.93612
1292.56460 0.93613
1290.51617 0.93653
1288.46773 0.93691
1286.41929 0.93671
1284.37085 0.93638
1282.32241 0.93651
1280.27397 0.93682
1278.22554 0.93690
1276.17710 0.93699
1274.12866 0.93751
1272.08022 0.93825
1270.03178 0.93860
1267.98334 0.93872
1265.93491 0.93898
1263.88647 0.93945
1261.83803 0.94004
1259.78959 0.94005
1257.74115 0.93902
1255.69271 0.93765
1253.64428 0.93651
1251.59584 0.93562
1249.54740 0.93503
1247.49896 0.93481
1245.45052 0.93478
1243.40208 0.93458
1241.35364 0.93417
1239.30521 0.93377
1237.25677 0.93334
1235.20833 0.93291
1233.15989 0.93258
1231.11145 0.93229
1229.06301 0.93198
1227.01458 0.93158
1224.96614 0.93104
1222.91770 0.93051
1220.86926 0.93009
1218.82082 0.92960
1216.77238 0.92905
1214.72395 0.92866
1212.67551 0.92831
1210.62707 0.92776
1208.57863 0.92715
1206.53019 0.92659
1204.48175 0.92606
1202.43332 0.92561
1200.38488 0.92522
1198.33644 0.92474
1196.28800 0.92409
1194.23956 0.92341
1192.19112 0.92279
1190.14269 0.92222
1188.09425 0.92165
1186.04581 0.92102
1183.99737 0.92041
1181.94893 0.91993
1179.90049 0.91952
1177.85206 0.91920
1175.80362 0.91905
1173.75518 0.91876
1171.70674 0.91816
1169.65830 0.91758
1167.60986 0.91705
1165.56143 0.91651
1163.51299 0.91593
1161.46455 0.91521
1159.41611 0.91442
1157.36767 0.91372
1155.31923 0.91303
1153.27080 0.91221
1151.22236 0.91127
1149.17392 0.91029
1147.12548 0.90926
1145.07704 0.90815
1143.02860 0.90701
1140.98017 0.90587
1138.93173 0.90490
1136.88329 0.90400
1134.83485 0.90278
1132.78641 0.90138
1130.73797 0.90019
1128.68954 0.89932
1126.64110 0.89861
1124.59266 0.89786
1122.54422 0.89716
1120.49578 0.89658
1118.44734 0.89612
1116.39891 0.89576
1114.35047 0.89522
1112.30203 0.89442
1110.25359 0.89356
1108.20515 0.89266
1106.15671 0.89167
1104.10827 0.89056
1102.05984 0.88946
1100.01140 0.88852
1097.96296 0.88775
1095.91452 0.88703
1093.86608 0.88615
1091.81764 0.88502
1089.76921 0.88373
1087.72077 0.88247
1085.67233 0.88128
1083.62389 0.88002
1081.57545 0.87868
1079.52701 0.87725
1077.47858 0.87571
1075.43014 0.87405
1073.38170 0.87230
1071.33326 0.87049
1069.28482 0.86859
1067.23638 0.86669
1065.18795 0.86489
1063.13951 0.86313
1061.09107 0.86140
1059.04263 0.85979
1056.99419 0.85842
1054.94575 0.85734
1052.89732 0.85643
1050.84888 0.85560
1048.80044 0.85500
1046.75200 0.85451
1044.70356 0.85398
1042.65512 0.85362
1040.60669 0.85336
1038.55825 0.85304
1036.50981 0.85275
1034.46137 0.85267
1032.41293 0.85273
1030.36449 0.85280
1028.31606 0.85305
1026.26762 0.85343
1024.21918 0.85383
1022.17074 0.85440
1020.12230 0.85507
1018.07386 0.85557
1016.02543 0.85595
1013.97699 0.85635
1011.92855 0.85672
1009.88011 0.85684
1007.83167 0.85668
1005.78323 0.85635
1003.73480 0.85582
1001.68636 0.85515
999.63792 0.85434
997.58948 0.85320
995.54104 0.85178
993.49260 0.85020
991.44417 0.84851
989.39573 0.84683
987.34729 0.84497
985.29885 0.84285
983.25041 0.84080
981.20197 0.83889
979.15354 0.83681
977.10510 0.83454
975.05666 0.83218
973.00822 0.82985
970.95978 0.82762
968.91134 0.82531
966.86290 0.82278
964.81447 0.82019
962.76603 0.81752
960.71759 0.81470
958.66915 0.81182
956.62071 0.80901
954.57227 0.80624
952.52384 0.80336
950.47540 0.80037
948.42696 0.79733
946.37852 0.79418
944.33008 0.79102
942.28164 0.78783
940.23321 0.78460
938.18477 0.78150
936.13633 0.77861
934.08789 0.77583
932.03945 0.77305
929.99101 0.77035
927.94258 0.76773
925.89414 0.76519
923.84570 0.76295
921.79726 0.76120
919.74882 0.75987
917.70038 0.75885
915.65195 0.75815
913.60351 0.75780
911.55507 0.75773
909.50663 0.75795
907.45819 0.75857
905.40975 0.75968
903.36132 0.76123
901.31288 0.76302
899.26444 0.76495
897.21600 0.76726
895.16756 0.76996
893.11912 0.77265
891.07069 0.77533
889.02225 0.77821
886.97381 0.78108
884.92537 0.78365
882.87693 0.78598
880.82849 0.78803
878.78006 0.78978
876.73162 0.79131
874.68318 0.79242
872.63474 0.79292
870.58630 0.79294
868.53786 0.79270
866.48943 0.79237
864.44099 0.79184
862.39255 0.79083
860.34411 0.78945
858.29567 0.78793
856.24723 0.78617
854.19880 0.78403
852.15036 0.78171
850.10192 0.77940
848.05348 0.77688
846.00504 0.77403
843.95660 0.77106
841.90817 0.76797
839.85973 0.76466
837.81129 0.76124
835.76285 0.75783
833.71441 0.75442
831.66597 0.75083
829.61753 0.74708
827.56910 0.74365
825.52066 0.74068
823.47222 0.73782
821.42378 0.73493
819.37534 0.73210
817.32690 0.72955
815.27847 0.72750
813.23003 0.72576
811.18159 0.72439
809.13315 0.72385
807.08471 0.72410
805.03627 0.72506
802.98784 0.72694
800.93940 0.72961
798.89096 0.73275
796.84252 0.73612
794.79408 0.73991
792.74564 0.74425
790.69721 0.74874
788.64877 0.75295
786.60033 0.75667
784.55189 0.75977
782.50345 0.76206
780.45501 0.76368
778.40658 0.76480
776.35814 0.76532
774.30970 0.76515
772.26126 0.76422
770.21282 0.76264
768.16438 0.76080
766.11595 0.75868
764.06751 0.75605
762.01907 0.75292
759.97063 0.74967
757.92219 0.74668
755.87375 0.74363
753.82532 0.74022
751.77688 0.73681
749.72844 0.73343
747.68000 0.72978
745.63156 0.72618
743.58312 0.72270
741.53469 0.71853
739.48625 0.71372
737.43781 0.70914
735.38937 0.70509
733.34093 0.70117
731.29249 0.69702
729.24406 0.69283
727.19562 0.68888
725.14718 0.68509
723.09874 0.68142
721.05030 0.67768
719.00186 0.67365
716.95343 0.66988
714.90499 0.66666
712.85655 0.66351
710.80811 0.66022
708.75967 0.65721
706.71123 0.65473
704.66280 0.65232
702.61436 0.64954
700.56592 0.64677
698.51748 0.64470
696.46904 0.64294
694.42060 0.64078
692.37216 0.63848
690.32373 0.63674
688.27529 0.63551
686.22685 0.63397
684.17841 0.63218
682.12997 0.63090
680.08153 0.63014
678.03310 0.62930
675.98466 0.62860
673.93622 0.62885
671.88778 0.63018
669.83934 0.63217
667.79090 0.63381
665.74247 0.63361
663.69403 0.63275
661.64559 0.63215
659.59715 0.63199
657.54871 0.63031
655.50027 0.62520
653.45184 0.61788
651.40340 0.61013
649.35496 0.60222
647.30652 0.59275
645.25808 0.58130
643.20964 0.56993
641.16121 0.56036
639.11277 0.55271
637.06433 0.54641
635.01589 0.54010
632.96745 0.53271
630.91901 0.52521
628.87058 0.51949
626.82214 0.51473
624.77370 0.50897
622.72526 0.50324
620.67682 0.49866
618.62838 0.49422
616.57995 0.48968
614.53151 0.48479
612.48307 0.47866
610.43463 0.47122
608.38619 0.46394
606.33775 0.45731
604.28932 0.45055
602.24088 0.44344
600.19244 0.43564
598.14400 0.42677
