3996.50324 1.62981
3994.45480 1.62953
3992.40636 1.62858
3990.35792 1.62831
3988.30948 1.62895
3986.26104 1.62944
3984.21261 1.62930
3982.16417 1.62877
3980.11573 1.62805
3978.06729 1.62724
3976.01885 1.62686
3973.97041 1.62765
3971.92198 1.62869
3969.87354 1.62737
3967.82510 1.62414
3965.77666 1.62345
3963.72822 1.62670
3961.67978 1.63000
3959.63135 1.63035
3957.58291 1.62886
3955.53447 1.62765
3953.48603 1.62809
3951.43759 1.62982
3949.38915 1.63088
3947.34072 1.62991
3945.29228 1.62854
3943.24384 1.62788
3941.19540 1.62714
3939.14696 1.62626
3937.09852 1.62619
3935.05009 1.62877
3933.00165 1.63243
3930.95321 1.63236
3928.90477 1.62945
3926.85633 1.62802
3924.80789 1.62853
3922.75946 1.62857
3920.71102 1.62869
3918.66258 1.63003
3916.61414 1.63007
3914.56570 1.62850
3912.51726 1.62719
3910.46883 1.62688
3908.42039 1.62959
3906.37195 1.63617
3904.32351 1.64146
3902.27507 1.63994
3900.22663 1.63702
3898.17820 1.63392
3896.12976 1.63019
3894.08132 1.63014
3892.03288 1.63272
3889.98444 1.63192
3887.93600 1.63136
3885.88756 1.63379
3883.83913 1.63491
3881.79069 1.63449
3879.74225 1.63277
3877.69381 1.63054
3875.64537 1.63161
3873.59693 1.63542
3871.54850 1.63808
3869.50006 1.63713
3867.45162 1.63580
3865.40318 1.63703
3863.35474 1.63542
3861.30630 1.63077
3859.25787 1.63013
3857.20943 1.63438
3855.16099 1.64148
3853.11255 1.64482
3851.06411 1.63911
3849.01567 1.63399
3846.96724 1.63260
3844.91880 1.63545
3842.87036 1.64074
3840.82192 1.64642
3838.77348 1.64887
3836.72504 1.64261
3834.67661 1.63478
3832.62817 1.63096
3830.57973 1.63043
3828.53129 1.63122
3826.48285 1.63175
3824.43441 1.63305
3822.38598 1.63629
3820.33754 1.63929
3818.28910 1.63945
3816.24066 1.63598
3814.19222 1.63022
3812.14378 1.62745
3810.09535 1.62835
3808.04691 1.63120
3805.99847 1.63276
3803.95003 1.63472
3801.90159 1.63801
3799.85315 1.63792
3797.80472 1.63622
3795.75628 1.63276
3793.70784 1.62774
3791.65940 1.62430
3789.61096 1.62320
3787.56252 1.62457
3785.51409 1.62720
3783.46565 1.62889
3781.41721 1.63051
3779.36877 1.63140
3777.32033 1.62925
3775.27189 1.62713
3773.22346 1.62756
3771.17502 1.62976
3769.12658 1.63102
3767.07814 1.63139
3765.02970 1.63119
3762.98126 1.63038
3760.93283 1.63189
3758.88439 1.63492
3756.83595 1.63588
3754.78751 1.63735
3752.73907 1.64253
3750.69063 1.64625
3748.64219 1.64224
3746.59376 1.63906
3744.54532 1.63806
3742.49688 1.63802
3740.44844 1.63854
3738.40000 1.64033
3736.35156 1.64436
3734.30313 1.64529
3732.25469 1.63995
3730.20625 1.63566
3728.15781 1.63527
3726.10937 1.63688
3724.06093 1.63649
3722.01250 1.63377
3719.96406 1.63114
3717.91562 1.62910
3715.86718 1.62918
3713.81874 1.63432
3711.77030 1.64210
3709.72187 1.64038
3707.67343 1.63291
3705.62499 1.62899
3703.57655 1.63034
3701.52811 1.63376
3699.47967 1.63367
3697.43124 1.63179
3695.38280 1.63116
3693.33436 1.63324
3691.28592 1.63864
3689.23748 1.64202
3687.18904 1.63829
3685.14061 1.63421
3683.09217 1.63263
3681.04373 1.63419
3678.99529 1.63935
3676.94685 1.64692
3674.89841 1.64957
3672.84998 1.64647
3670.80154 1.64535
3668.75310 1.64205
3666.70466 1.63634
3664.65622 1.63307
3662.60778 1.63311
3660.55935 1.63551
3658.51091 1.63946
3656.46247 1.64378
3654.41403 1.64658
3652.36559 1.65115
3650.31715 1.65935
3648.26872 1.65802
3646.22028 1.64811
3644.17184 1.64395
3642.12340 1.64313
3640.07496 1.64294
3638.02652 1.64414
3635.97809 1.64627
3633.92965 1.64858
3631.88121 1.65203
3629.83277 1.65715
3627.78433 1.65906
3625.73589 1.65626
3623.68746 1.65472
3621.63902 1.65690
3619.59058 1.66191
3617.54214 1.66433
3615.49370 1.66475
3613.44526 1.66451
3611.39682 1.66349
3609.34839 1.66497
3607.29995 1.66582
3605.25151 1.66324
3603.20307 1.66299
3601.15463 1.66717
3599.10619 1.67079
3597.05776 1.67168
3595.00932 1.67227
3592.96088 1.67250
3590.91244 1.67294
3588.86400 1.67508
3586.81556 1.67670
3584.76713 1.67637
3582.71869 1.67703
3580.67025 1.67811
3578.62181 1.67769
3576.57337 1.67626
3574.52493 1.67572
3572.47650 1.67747
3570.42806 1.68215
3568.37962 1.68878
3566.33118 1.69143
3564.28274 1.68954
3562.23430 1.68880
3560.18587 1.68788
3558.13743 1.68616
3556.08899 1.68683
3554.04055 1.68998
3551.99211 1.69160
3549.94367 1.69215
3547.89524 1.69473
3545.84680 1.69662
3543.79836 1.69504
3541.74992 1.69302
3539.70148 1.69302
3537.65304 1.69403
3535.60461 1.69392
3533.55617 1.69424
3531.50773 1.69636
3529.45929 1.69885
3527.41085 1.70161
3525.36241 1.70420
3523.31398 1.70524
3521.26554 1.70449
3519.21710 1.70320
3517.16866 1.70248
3515.12022 1.70287
3513.07178 1.70453
3511.02335 1.70611
3508.97491 1.70667
3506.92647 1.70688
3504.87803 1.70827
3502.82959 1.70996
3500.78115 1.70958
3498.73272 1.70910
3496.68428 1.71013
3494.63584 1.71074
3492.58740 1.71015
3490.53896 1.71089
3488.49052 1.71299
3486.44209 1.71473
3484.39365 1.71643
3482.34521 1.71658
3480.29677 1.71474
3478.24833 1.71405
3476.19989 1.71446
3474.15146 1.71456
3472.10302 1.71564
3470.05458 1.71672
3468.00614 1.71652
3465.95770 1.71633
3463.90926 1.71649
3461.86082 1.71718
3459.81239 1.71773
3457.76395 1.71654
3455.71551 1.71547
3453.66707 1.71704
3451.61863 1.71946
3449.57019 1.72157
3447.52176 1.72269
3445.47332 1.72128
3443.42488 1.71967
3441.37644 1.71929
3439.32800 1.71950
3437.27956 1.72086
3435.23113 1.72297
3433.18269 1.72460
3431.13425 1.72576
3429.08581 1.72624
3427.03737 1.72531
3424.98893 1.72449
3422.94050 1.72595
3420.89206 1.72776
3418.84362 1.72641
3416.79518 1.72338
3414.74674 1.72244
3412.69830 1.72395
3410.64987 1.72546
3408.60143 1.72532
3406.55299 1.72428
3404.50455 1.72408
3402.45611 1.72463
3400.40767 1.72466
3398.35924 1.72487
3396.31080 1.72659
3394.26236 1.72798
3392.21392 1.72727
3390.16548 1.72694
3388.11704 1.72776
3386.06861 1.72757
3384.02017 1.72710
3381.97173 1.72748
3379.92329 1.72713
3377.87485 1.72630
3375.82641 1.72690
3373.77798 1.72831
3371.72954 1.72923
3369.68110 1.72886
3367.63266 1.72778
3365.58422 1.72764
3363.53578 1.72801
3361.48735 1.72872
3359.43891 1.73033
3357.39047 1.73165
3355.34203 1.73137
3353.29359 1.72994
3351.24515 1.72836
3349.19672 1.72736
3347.14828 1.72780
3345.09984 1.72932
3343.05140 1.73000
3341.00296 1.72942
3338.95452 1.72923
3336.90609 1.73014
3334.85765 1.73164
3332.80921 1.73244
3330.76077 1.73151
3328.71233 1.72968
3326.66389 1.72846
3324.61545 1.72909
3322.56702 1.73116
3320.51858 1.73249
3318.47014 1.73274
3316.42170 1.73282
3314.37326 1.73243
3312.32482 1.73180
3310.27639 1.73186
3308.22795 1.73147
3306.17951 1.72984
3304.13107 1.72873
3302.08263 1.72860
3300.03419 1.72883
3297.98576 1.72933
3295.93732 1.72909
3293.88888 1.72848
3291.84044 1.72841
3289.79200 1.72840
3287.74356 1.72845
3285.69513 1.72869
3283.64669 1.72887
3281.59825 1.72884
3279.54981 1.72910
3277.50137 1.72987
3275.45293 1.73031
3273.40450 1.73028
3271.35606 1.73053
3269.30762 1.73096
3267.25918 1.73104
3265.21074 1.73128
3263.16230 1.73137
3261.11387 1.73047
3259.06543 1.72967
3257.01699 1.72982
3254.96855 1.72986
3252.92011 1.72940
3250.87167 1.72909
3248.82324 1.72923
3246.77480 1.72960
3244.72636 1.72890
3242.67792 1.72754
3240.62948 1.72745
3238.58104 1.72825
3236.53261 1.72865
3234.48417 1.72821
3232.43573 1.72710
3230.38729 1.72625
3228.33885 1.72637
3226.29041 1.72660
3224.24198 1.72620
3222.19354 1.72671
3220.14510 1.72801
3218.09666 1.72735
3216.04822 1.72584
3213.99978 1.72604
3211.95135 1.72670
3209.90291 1.72717
3207.85447 1.72735
3205.80603 1.72622
3203.75759 1.72454
3201.70915 1.72386
3199.66072 1.72375
3197.61228 1.72280
3195.56384 1.72194
3193.51540 1.72263
3191.46696 1.72398
3189.41852 1.72443
3187.37008 1.72357
3185.32165 1.72255
3183.27321 1.72236
3181.22477 1.72269
3179.17633 1.72307
3177.12789 1.72290
3175.07945 1.72222
3173.03102 1.72129
3170.98258 1.71928
3168.93414 1.71684
3166.88570 1.71573
3164.83726 1.71574
3162.78882 1.71541
3160.74039 1.71482
3158.69195 1.71480
3156.64351 1.71463
3154.59507 1.71381
3152.54663 1.71298
3150.49819 1.71270
3148.44976 1.71288
3146.40132 1.71270
3144.35288 1.71163
3142.30444 1.71026
3140.25600 1.70884
3138.20756 1.70746
3136.15913 1.70740
3134.11069 1.70877
3132.06225 1.70942
3130.01381 1.70865
3127.96537 1.70780
3125.91693 1.70752
3123.86850 1.70740
3121.82006 1.70662
3119.77162 1.70501
3117.72318 1.70327
3115.67474 1.70181
3113.62630 1.70079
3111.57787 1.70064
3109.52943 1.70126
3107.48099 1.70137
3105.43255 1.70077
3103.38411 1.70009
3101.33567 1.69855
3099.28724 1.69633
3097.23880 1.69539
3095.19036 1.69579
3093.14192 1.69582
3091.09348 1.69513
3089.04504 1.69454
3086.99661 1.69424
3084.94817 1.69326
3082.89973 1.69168
3080.85129 1.69116
3078.80285 1.69198
3076.75441 1.69209
3074.70598 1.69031
3072.65754 1.68852
3070.60910 1.68811
3068.56066 1.68777
3066.51222 1.68686
3064.46378 1.68608
3062.41535 1.68556
3060.36691 1.68515
3058.31847 1.68432
3056.27003 1.68248
3054.22159 1.68080
3052.17315 1.68072
3050.12471 1.68114
3048.07628 1.68046
3046.02784 1.67907
3043.97940 1.67802
3041.93096 1.67759
3039.88252 1.67768
3037.83408 1.67798
3035.78565 1.67808
3033.73721 1.67806
3031.68877 1.67776
3029.64033 1.67713
3027.59189 1.67636
3025.54345 1.67541
3023.49502 1.67474
3021.44658 1.67429
3019.39814 1.67392
3017.34970 1.67358
3015.30126 1.67266
3013.25282 1.67193
3011.20439 1.67182
3009.15595 1.67111
3007.10751 1.66972
3005.05907 1.66815
3003.01063 1.66670
3000.96219 1.66607
2998.91376 1.66587
2996.86532 1.66505
2994.81688 1.66416
2992.76844 1.66380
2990.72000 1.66382
2988.67156 1.66433
2986.62313 1.66433
2984.57469 1.66324
2982.52625 1.66223
2980.47781 1.66196
2978.42937 1.66210
2976.38093 1.66214
2974.33250 1.66225
2972.28406 1.66238
2970.23562 1.66254
2968.18718 1.66321
2966.13874 1.66356
2964.09030 1.66295
2962.04187 1.66223
2959.99343 1.66130
2957.94499 1.65947
2955.89655 1.65783
2953.84811 1.65743
2951.79967 1.65766
2949.75124 1.65779
2947.70280 1.65751
2945.65436 1.65680
2943.60592 1.65639
2941.55748 1.65682
2939.50904 1.65770
2937.46061 1.65844
2935.41217 1.65855
2933.36373 1.65755
2931.31529 1.65603
2929.26685 1.65558
2927.21841 1.65612
2925.16998 1.65584
2923.12154 1.65454
2921.07310 1.65341
2919.02466 1.65254
2916.97622 1.65162
2914.92778 1.65079
2912.87934 1.65023
2910.83091 1.64974
2908.78247 1.64895
2906.73403 1.64820
2904.68559 1.64751
2902.63715 1.64654
2900.58871 1.64568
2898.54028 1.64491
2896.49184 1.64385
2894.44340 1.64290
2892.39496 1.64264
2890.34652 1.64272
2888.29808 1.64268
2886.24965 1.64228
2884.20121 1.64150
2882.15277 1.64093
2880.10433 1.64029
2878.05589 1.63894
2876.00745 1.63789
2873.95902 1.63784
2871.91058 1.63779
2869.86214 1.63745
2867.81370 1.63788
2865.76526 1.63843
2863.71682 1.63816
2861.66839 1.63798
2859.61995 1.63805
2857.57151 1.63775
2855.52307 1.63718
2853.47463 1.63664
2851.42619 1.63604
2849.37776 1.63502
2847.32932 1.63403
2845.28088 1.63374
2843.23244 1.63327
2841.18400 1.63187
2839.13556 1.63003
2837.08713 1.62868
2835.03869 1.62887
2832.99025 1.62968
2830.94181 1.62923
2828.89337 1.62808
2826.84493 1.62773
2824.79650 1.62771
2822.74806 1.62710
2820.69962 1.62635
2818.65118 1.62556
2816.60274 1.62419
2814.55430 1.62299
2812.50587 1.62302
2810.45743 1.62359
2808.40899 1.62354
2806.36055 1.62304
2804.31211 1.62283
2802.26367 1.62256
2800.21524 1.62204
2798.16680 1.62156
2796.11836 1.62100
2794.06992 1.62048
2792.02148 1.61991
2789.97304 1.61878
2787.92461 1.61727
2785.87617 1.61664
2783.82773 1.61691
2781.77929 1.61651
2779.73085 1.61570
2777.68241 1.61540
2775.63397 1.61516
2773.58554 1.61493
2771.53710 1.61495
2769.48866 1.61494
2767.44022 1.61469
2765.39178 1.61444
2763.34334 1.61446
2761.29491 1.61406
2759.24647 1.61288
2757.19803 1.61170
2755.14959 1.61111
2753.10115 1.61118
2751.05271 1.61144
2749.00428 1.61089
2746.95584 1.60995
2744.90740 1.60927
2742.85896 1.60812
2740.81052 1.60695
2738.76208 1.60688
2736.71365 1.60798
2734.66521 1.60911
2732.61677 1.60902
2730.56833 1.60799
2728.51989 1.60671
2726.47145 1.60563
2724.42302 1.60507
2722.37458 1.60482
2720.32614 1.60482
2718.27770 1.60523
2716.22926 1.60534
2714.18082 1.60486
2712.13239 1.60452
2710.08395 1.60440
2708.03551 1.60408
2705.98707 1.60390
2703.93863 1.60361
2701.89019 1.60241
2699.84176 1.60108
2697.79332 1.60046
2695.74488 1.60001
2693.69644 1.59941
2691.64800 1.59924
2689.59956 1.59937
2687.55113 1.59927
2685.50269 1.59899
2683.45425 1.59850
2681.40581 1.59791
2679.35737 1.59773
2677.30893 1.59782
2675.26050 1.59739
2673.21206 1.59696
2671.16362 1.59693
2669.11518 1.59614
2667.06674 1.59455
2665.01830 1.59343
2662.96987 1.59321
2660.92143 1.59317
2658.87299 1.59282
2656.82455 1.59231
2654.77611 1.59232
2652.72767 1.59275
2650.67924 1.59252
2648.63080 1.59158
2646.58236 1.59065
2644.53392 1.59002
2642.48548 1.58967
2640.43704 1.58937
2638.38860 1.58904
2636.34017 1.58881
2634.29173 1.58867
2632.24329 1.58865
2630.19485 1.58833
2628.14641 1.58776
2626.09797 1.58721
2624.04954 1.58649
2622.00110 1.58613
2619.95266 1.58608
2617.90422 1.58557
2615.85578 1.58516
2613.80734 1.58527
2611.75891 1.58498
2609.71047 1.58436
2607.66203 1.58402
2605.61359 1.58345
2603.56515 1.58257
2601.51671 1.58199
2599.46828 1.58179
2597.41984 1.58159
2595.37140 1.58105
2593.32296 1.58054
2591.27452 1.58052
2589.22608 1.58014
2587.17765 1.57899
2585.12921 1.57807
2583.08077 1.57811
2581.03233 1.57869
2578.98389 1.57854
2576.93545 1.57741
2574.88702 1.57652
2572.83858 1.57647
2570.79014 1.57664
2568.74170 1.57636
2566.69326 1.57523
2564.64482 1.57340
2562.59639 1.57205
2560.54795 1.57203
2558.49951 1.57249
2556.45107 1.57260
2554.40263 1.57229
2552.35419 1.57145
2550.30576 1.57088
2548.25732 1.57089
2546.20888 1.57071
2544.16044 1.57061
2542.11200 1.57072
2540.06356 1.57045
2538.01513 1.56995
2535.96669 1.56923
2533.91825 1.56815
2531.86981 1.56729
2529.82137 1.56681
2527.77293 1.56645
2525.72450 1.56612
2523.67606 1.56542
2521.62762 1.56472
2519.57918 1.56480
2517.53074 1.56481
2515.48230 1.56413
2513.43387 1.56350
2511.38543 1.56315
2509.33699 1.56265
2507.28855 1.56183
2505.24011 1.56111
2503.19167 1.56066
2501.14324 1.56032
2499.09480 1.56032
2497.04636 1.56048
2494.99792 1.56048
2492.94948 1.56030
2490.90104 1.55974
2488.85260 1.55909
2486.80417 1.55890
2484.75573 1.55876
2482.70729 1.55820
2480.65885 1.55740
2478.61041 1.55653
2476.56197 1.55600
2474.51354 1.55562
2472.46510 1.55515
2470.41666 1.55511
2468.36822 1.55506
2466.31978 1.55438
2464.27134 1.55390
2462.22291 1.55414
2460.17447 1.55410
2458.12603 1.55340
2456.07759 1.55311
2454.02915 1.55313
2451.98071 1.55265
2449.93228 1.55230
2447.88384 1.55237
2445.83540 1.55224
2443.78696 1.55206
2441.73852 1.55199
2439.69008 1.55170
2437.64165 1.55111
2435.59321 1.55031
2433.54477 1.54964
2431.49633 1.54949
2429.44789 1.54963
2427.39945 1.54989
2425.35102 1.54989
2423.30258 1.54931
2421.25414 1.54872
2419.20570 1.54867
2417.15726 1.54895
2415.10882 1.54895
2413.06039 1.54876
2411.01195 1.54870
2408.96351 1.54829
2406.91507 1.54754
2404.86663 1.54712
2402.81819 1.54683
2400.76976 1.54629
2398.72132 1.54601
2396.67288 1.54600
2394.62444 1.54584
2392.57600 1.54571
2390.52756 1.54564
2388.47913 1.54535
2386.43069 1.54511
2384.38225 1.54534
2382.33381 1.54562
2380.28537 1.54604
2378.23693 1.54740
2376.18850 1.54887
2374.14006 1.54944
2372.09162 1.55003
2370.04318 1.55089
2367.99474 1.55055
2365.94630 1.54967
2363.89787 1.54986
2361.84943 1.54925
2359.80099 1.54779
2357.75255 1.54798
2355.70411 1.54885
2353.65567 1.55003
2351.60723 1.55093
2349.55880 1.55038
2347.51036 1.54979
2345.46192 1.55023
2343.41348 1.55009
2341.36504 1.54804
2339.31660 1.54652
2337.26817 1.54679
2335.21973 1.54638
2333.17129 1.54549
2331.12285 1.54570
2329.07441 1.54587
2327.02597 1.54571
2324.97754 1.54548
2322.92910 1.54490
2320.88066 1.54443
2318.83222 1.54396
2316.78378 1.54280
2314.73534 1.54157
2312.68691 1.54120
2310.63847 1.54128
2308.59003 1.54118
2306.54159 1.54048
2304.49315 1.53930
2302.44471 1.53832
2300.39628 1.53743
2298.34784 1.53639
2296.29940 1.53558
2294.25096 1.53493
2292.20252 1.53469
2290.15408 1.53509
2288.10565 1.53506
2286.05721 1.53445
2284.00877 1.53408
2281.96033 1.53360
2279.91189 1.53301
2277.86345 1.53310
2275.81502 1.53359
2273.76658 1.53355
2271.71814 1.53297
2269.66970 1.53273
2267.62126 1.53303
2265.57282 1.53318
2263.52439 1.53324
2261.47595 1.53330
2259.42751 1.53294
2257.37907 1.53257
2255.33063 1.53261
2253.28219 1.53231
2251.23376 1.53159
2249.18532 1.53108
2247.13688 1.53066
2245.08844 1.53038
2243.04000 1.53022
2240.99156 1.53000
2238.94313 1.52990
2236.89469 1.52996
2234.84625 1.53009
2232.79781 1.53007
2230.74937 1.52963
2228.70093 1.52915
2226.65250 1.52902
2224.60406 1.52847
2222.55562 1.52779
2220.50718 1.52782
2218.45874 1.52790
2216.41030 1.52784
2214.36186 1.52791
2212.31343 1.52783
2210.26499 1.52769
2208.21655 1.52767
2206.16811 1.52755
2204.11967 1.52723
2202.07123 1.52692
2200.02280 1.52665
2197.97436 1.52648
2195.92592 1.52639
2193.87748 1.52598
2191.82904 1.52548
2189.78060 1.52509
2187.73217 1.52458
2185.68373 1.52412
2183.63529 1.52391
2181.58685 1.52380
2179.53841 1.52349
2177.48997 1.52287
2175.44154 1.52242
2173.39310 1.52252
2171.34466 1.52273
2169.29622 1.52282
2167.24778 1.52259
2165.19934 1.52177
2163.15091 1.52094
2161.10247 1.52075
2159.05403 1.52055
2157.00559 1.51976
2154.95715 1.51913
2152.90871 1.51915
2150.86028 1.51943
2148.81184 1.51969
2146.76340 1.51991
2144.71496 1.51990
2142.66652 1.51947
2140.61808 1.51904
2138.56965 1.51921
2136.52121 1.51940
2134.47277 1.51894
2132.42433 1.51826
2130.37589 1.51788
2128.32745 1.51788
2126.27902 1.51793
2124.23058 1.51762
2122.18214 1.51694
2120.13370 1.51617
2118.08526 1.51542
2116.03682 1.51495
2113.98839 1.51482
2111.93995 1.51405
2109.89151 1.51280
2107.84307 1.51254
2105.79463 1.51278
2103.74619 1.51228
2101.69776 1.51156
2099.64932 1.51131
2097.60088 1.51140
2095.55244 1.51131
2093.50400 1.51089
2091.45556 1.51061
2089.40713 1.51048
2087.35869 1.51011
2085.31025 1.50953
2083.26181 1.50913
2081.21337 1.50882
2079.16493 1.50818
2077.11649 1.50748
2075.06806 1.50720
2073.01962 1.50723
2070.97118 1.50729
2068.92274 1.50734
2066.87430 1.50720
2064.82586 1.50668
2062.77743 1.50627
2060.72899 1.50619
2058.68055 1.50573
2056.63211 1.50493
2054.58367 1.50456
2052.53523 1.50428
2050.48680 1.50348
2048.43836 1.50267
2046.38992 1.50247
2044.34148 1.50256
2042.29304 1.50254
2040.24460 1.50208
2038.19617 1.50081
2036.14773 1.49925
2034.09929 1.49827
2032.05085 1.49803
2030.00241 1.49813
2027.95397 1.49812
2025.90554 1.49773
2023.85710 1.49732
2021.80866 1.49708
2019.76022 1.49691
2017.71178 1.49668
2015.66334 1.49586
2013.61491 1.49486
2011.56647 1.49442
2009.51803 1.49414
2007.46959 1.49361
2005.42115 1.49298
2003.37271 1.49251
2001.32428 1.49224
1999.27584 1.49196
1997.22740 1.49182
1995.17896 1.49244
1993.13052 1.49348
1991.08208 1.49365
1989.03365 1.49275
1986.98521 1.49128
1984.93677 1.48978
1982.88833 1.48884
1980.83989 1.48818
1978.79145 1.48741
1976.74302 1.48669
1974.69458 1.48628
1972.64614 1.48635
1970.59770 1.48669
1968.54926 1.48687
1966.50082 1.48608
1964.45239 1.48436
1962.40395 1.48312
1960.35551 1.48261
1958.30707 1.48217
1956.25863 1.48196
1954.21019 1.48218
1952.16176 1.48211
1950.11332 1.48156
1948.06488 1.48148
1946.01644 1.48200
1943.96800 1.48245
1941.91956 1.48182
1939.87112 1.47989
1937.82269 1.47834
1935.77425 1.47791
1933.72581 1.47799
1931.67737 1.47760
1929.62893 1.47661
1927.58049 1.47579
1925.53206 1.47619
1923.48362 1.47754
1921.43518 1.47765
1919.38674 1.47674
1917.33830 1.47544
1915.28986 1.47319
1913.24143 1.47183
1911.19299 1.47267
1909.14455 1.47373
1907.09611 1.47274
1905.04767 1.47073
1902.99923 1.46933
1900.95080 1.46891
1898.90236 1.46912
1896.85392 1.46931
1894.80548 1.46902
1892.75704 1.46881
1890.70860 1.46943
1888.66017 1.46924
1886.61173 1.46786
1884.56329 1.46681
1882.51485 1.46582
1880.46641 1.46500
1878.41797 1.46449
1876.36954 1.46389
1874.32110 1.46375
1872.27266 1.46538
1870.22422 1.46887
1868.17578 1.47039
1866.12734 1.46734
1864.07891 1.46398
1862.03047 1.46250
1859.98203 1.46206
1857.93359 1.46133
1855.88515 1.46039
1853.83671 1.46001
1851.78828 1.46028
1849.73984 1.46155
1847.69140 1.46398
1845.64296 1.46649
1843.59452 1.46573
1841.54608 1.46189
1839.49765 1.45973
1837.44921 1.45954
1835.40077 1.45958
1833.35233 1.46036
1831.30389 1.46277
1829.25545 1.46415
1827.20702 1.46334
1825.15858 1.46226
1823.11014 1.45982
1821.06170 1.45710
1819.01326 1.45609
1816.96482 1.45592
1814.91639 1.45601
1812.86795 1.45735
1810.81951 1.45869
1808.77107 1.45798
1806.72263 1.45672
1804.67419 1.45688
1802.62575 1.45865
1800.57732 1.45986
1798.52888 1.45933
1796.48044 1.45934
1794.43200 1.46106
1792.38356 1.46248
1790.33512 1.45986
1788.28669 1.45646
1786.23825 1.45538
1784.18981 1.45566
1782.14137 1.45615
1780.09293 1.45603
1778.04449 1.45541
1775.99606 1.45674
1773.94762 1.46079
1771.89918 1.46327
1769.85074 1.46006
1767.80230 1.45548
1765.75386 1.45276
1763.70543 1.45304
1761.65699 1.45449
1759.60855 1.45449
1757.56011 1.45397
1755.51167 1.45293
1753.46323 1.45324
1751.41480 1.45757
1749.36636 1.46236
1747.31792 1.46158
1745.26948 1.45885
1743.22104 1.45771
1741.17260 1.45772
1739.12417 1.45681
1737.07573 1.45612
1735.02729 1.45868
1732.97885 1.46051
1730.93041 1.45694
1728.88197 1.45186
1726.83354 1.44816
1724.78510 1.44756
1722.73666 1.44877
1720.68822 1.45166
1718.63978 1.45867
1716.59134 1.46464
1714.54291 1.46007
1712.49447 1.45393
1710.44603 1.45155
1708.39759 1.45351
1706.34915 1.45801
1704.30071 1.45997
1702.25228 1.45982
1700.20384 1.46276
1698.15540 1.46636
1696.10696 1.46328
1694.05852 1.45688
1692.01008 1.45485
1689.96165 1.45746
1687.91321 1.46160
1685.86477 1.46602
1683.81633 1.46914
1681.76789 1.46592
1679.71945 1.46223
1677.67102 1.46151
1675.62258 1.46361
1673.57414 1.46603
1671.52570 1.46862
1669.47726 1.46949
1667.42882 1.46585
1665.38038 1.46436
1663.33195 1.46630
1661.28351 1.46639
1659.23507 1.46494
1657.18663 1.46692
1655.13819 1.47316
1653.08975 1.47957
1651.04132 1.47875
1648.99288 1.48034
1646.94444 1.48203
1644.89600 1.47533
1642.84756 1.46975
1640.79912 1.46971
1638.75069 1.47393
1636.70225 1.47856
1634.65381 1.47549
1632.60537 1.47043
1630.55693 1.46905
1628.50849 1.47019
1626.46006 1.47203
1624.41162 1.47310
1622.36318 1.47174
1620.31474 1.47022
1618.26630 1.47178
1616.21786 1.47237
1614.16943 1.46885
1612.12099 1.46679
1610.07255 1.46690
1608.02411 1.46688
1605.97567 1.46604
1603.92723 1.46547
1601.87880 1.46499
1599.83036 1.46438
1597.78192 1.46444
1595.73348 1.46502
1593.68504 1.46503
1591.63660 1.46446
1589.58817 1.46369
1587.53973 1.46290
1585.49129 1.46254
1583.44285 1.46264
1581.39441 1.46348
1579.34597 1.46627
1577.29754 1.47060
1575.24910 1.47089
1573.20066 1.46848
1571.15222 1.46865
1569.10378 1.46862
1567.05534 1.46647
1565.00691 1.46547
1562.95847 1.46652
1560.91003 1.47108
1558.86159 1.47925
1556.81315 1.47733
1554.76471 1.47204
1552.71628 1.46823
1550.66784 1.46580
1548.61940 1.46419
1546.57096 1.46585
1544.52252 1.47313
1542.47408 1.48249
1540.42565 1.48216
1538.37721 1.47069
1536.32877 1.46601
1534.28033 1.46606
1532.23189 1.46425
1530.18345 1.46172
1528.13501 1.46300
1526.08658 1.46691
1524.03814 1.47108
1521.98970 1.47340
1519.94126 1.47040
1517.89282 1.46716
1515.84438 1.46399
1513.79595 1.46091
1511.74751 1.46205
1509.69907 1.46871
1507.65063 1.47499
1505.60219 1.46500
1503.55375 1.45626
1501.50532 1.45432
1499.45688 1.45603
1497.40844 1.45789
1495.36000 1.45537
1493.31156 1.45388
1491.26312 1.45804
1489.21469 1.46200
1487.16625 1.45643
1485.11781 1.44999
1483.06937 1.44794
1481.02093 1.44829
1478.97249 1.44947
1476.92406 1.45292
1474.87562 1.45866
1472.82718 1.46011
1470.77874 1.45393
1468.73030 1.45012
1466.68186 1.45098
1464.63343 1.45212
1462.58499 1.45145
1460.53655 1.45420
1458.48811 1.46257
1456.43967 1.46515
1454.39123 1.45777
1452.34280 1.45282
1450.29436 1.45108
1448.24592 1.45100
1446.19748 1.44963
1444.14904 1.44744
1442.10060 1.44682
1440.05217 1.44821
1438.00373 1.45146
1435.95529 1.45428
1433.90685 1.45401
1431.85841 1.45354
1429.80997 1.45335
1427.76154 1.45276
1425.71310 1.45343
1423.66466 1.45510
1421.61622 1.45671
1419.56778 1.45923
1417.51934 1.45946
1415.47091 1.45627
1413.42247 1.45398
1411.37403 1.45349
1409.32559 1.45349
1407.27715 1.45428
1405.22871 1.45581
1403.18028 1.45613
1401.13184 1.45681
1399.08340 1.45909
1397.03496 1.46039
1394.98652 1.45852
1392.93808 1.45458
1390.88965 1.45279
1388.84121 1.45445
1386.79277 1.45551
1384.74433 1.45328
1382.69589 1.45165
1380.64745 1.45199
1378.59901 1.45304
1376.55058 1.45499
1374.50214 1.45664
1372.45370 1.45501
1370.40526 1.45268
1368.35682 1.45176
1366.30838 1.45208
1364.25995 1.45454
1362.21151 1.45673
1360.16307 1.45533
1358.11463 1.45317
1356.06619 1.45217
1354.01775 1.45170
1351.96932 1.45143
1349.92088 1.45139
1347.87244 1.45088
1345.82400 1.44974
1343.77556 1.44956
1341.72712 1.45186
1339.67869 1.45497
1337.63025 1.45452
1335.58181 1.45097
1333.53337 1.44791
1331.48493 1.44688
1329.43649 1.44732
1327.38806 1.44773
1325.33962 1.44750
1323.29118 1.44765
1321.24274 1.44866
1319.19430 1.44914
1317.14586 1.44820
1315.09743 1.44706
1313.04899 1.44628
1311.00055 1.44542
1308.95211 1.44474
1306.90367 1.44433
1304.85523 1.44393
1302.80680 1.44363
1300.75836 1.44357
1298.70992 1.44381
1296.66148 1.44408
1294.61304 1.44415
1292.56460 1.44423
1290.51617 1.44414
1288.46773 1.44373
1286.41929 1.44328
1284.37085 1.44303
1282.32241 1.44307
1280.27397 1.44307
1278.22554 1.44282
1276.17710 1.44296
1274.12866 1.44397
1272.08022 1.44527
1270.03178 1.44599
1267.98334 1.44635
1265.93491 1.44709
1263.88647 1.44805
1261.83803 1.44899
1259.78959 1.44940
1257.74115 1.44875
1255.69271 1.44767
1253.64428 1.44718
1251.59584 1.44726
1249.54740 1.44747
1247.49896 1.44777
1245.45052 1.44828
1243.40208 1.44874
1241.35364 1.44886
1239.30521 1.44875
1237.25677 1.44865
1235.20833 1.44878
1233.15989 1.44916
1231.11145 1.44965
1229.06301 1.45000
1227.01458 1.45028
1224.96614 1.45062
1222.91770 1.45084
1220.86926 1.45088
1218.82082 1.45075
1216.77238 1.45064
1214.72395 1.45072
1212.67551 1.45099
1210.62707 1.45150
1208.57863 1.45209
1206.53019 1.45257
1204.48175 1.45312
1202.43332 1.45382
1200.38488 1.45427
1198.33644 1.45426
1196.28800 1.45411
1194.23956 1.45405
1192.19112 1.45422
1190.14269 1.45495
1188.09425 1.45607
1186.04581 1.45684
1183.99737 1.45733
1181.94893 1.45773
1179.90049 1.45795
1177.85206 1.45828
1175.80362 1.45879
1173.75518 1.45919
1171.70674 1.45971
1169.65830 1.46070
1167.60986 1.46168
1165.56143 1.46245
1163.51299 1.46286
1161.46455 1.46272
1159.41611 1.46289
1157.36767 1.46370
1155.31923 1.46468
1153.27080 1.46538
1151.22236 1.46615
1149.17392 1.46753
1147.12548 1.46893
1145.07704 1.46975
1143.02860 1.47037
1140.98017 1.47133
1138.93173 1.47267
1136.88329 1.47381
1134.83485 1.47442
1132.78641 1.47511
1130.73797 1.47616
1128.68954 1.47726
1126.64110 1.47840
1124.59266 1.47964
1122.54422 1.48089
1120.49578 1.48184
1118.44734 1.48262
1116.39891 1.48387
1114.35047 1.48528
1112.30203 1.48624
1110.25359 1.48700
1108.20515 1.48756
1106.15671 1.48785
1104.10827 1.48813
1102.05984 1.48853
1100.01140 1.48911
1097.96296 1.48968
1095.91452 1.49025
1093.86608 1.49083
1091.81764 1.49155
1089.76921 1.49236
1087.72077 1.49294
1085.67233 1.49366
1083.62389 1.49448
1081.57545 1.49501
1079.52701 1.49563
1077.47858 1.49665
1075.43014 1.49787
1073.38170 1.49931
1071.33326 1.50033
1069.28482 1.50078
1067.23638 1.50169
1065.18795 1.50307
1063.13951 1.50430
1061.09107 1.50522
1059.04263 1.50583
1056.99419 1.50667
1054.94575 1.50818
1052.89732 1.50998
1050.84888 1.51202
1048.80044 1.51415
1046.75200 1.51535
1044.70356 1.51554
1042.65512 1.51587
1040.60669 1.51688
1038.55825 1.51848
1036.50981 1.52039
1034.46137 1.52183
1032.41293 1.52262
1030.36449 1.52344
1028.31606 1.52452
1026.26762 1.52548
1024.21918 1.52644
1022.17074 1.52747
1020.12230 1.52825
1018.07386 1.52929
1016.02543 1.53106
1013.97699 1.53247
1011.92855 1.53252
1009.88011 1.53187
1007.83167 1.53149
1005.78323 1.53185
1003.73480 1.53287
1001.68636 1.53394
999.63792 1.53500
997.58948 1.53597
995.54104 1.53631
993.49260 1.53644
991.44417 1.53677
989.39573 1.53687
987.34729 1.53680
985.29885 1.53688
983.25041 1.53695
981.20197 1.53707
979.15354 1.53727
977.10510 1.53723
975.05666 1.53692
973.00822 1.53603
970.95978 1.53472
968.91134 1.53401
966.86290 1.53407
964.81447 1.53461
962.76603 1.53525
960.71759 1.53587
958.66915 1.53673
956.62071 1.53739
954.57227 1.53758
952.52384 1.53805
950.47540 1.53878
948.42696 1.53881
946.37852 1.53818
944.33008 1.53803
942.28164 1.53865
940.23321 1.53947
938.18477 1.54083
936.13633 1.54262
934.08789 1.54379
932.03945 1.54460
929.99101 1.54588
927.94258 1.54745
925.89414 1.54816
923.84570 1.54779
921.79726 1.54815
919.74882 1.55049
917.70038 1.55300
915.65195 1.55405
913.60351 1.55454
911.55507 1.55526
909.50663 1.55646
907.45819 1.55810
905.40975 1.55906
903.36132 1.55882
901.31288 1.55883
899.26444 1.55986
897.21600 1.56078
895.16756 1.56108
893.11912 1.56117
891.07069 1.56147
889.02225 1.56165
886.97381 1.56152
884.92537 1.56236
882.87693 1.56381
880.82849 1.56420
878.78006 1.56379
876.73162 1.56319
874.68318 1.56240
872.63474 1.56125
870.58630 1.56042
868.53786 1.56068
866.48943 1.56059
864.44099 1.55941
862.39255 1.55843
860.34411 1.55834
858.29567 1.55838
856.24723 1.55784
854.19880 1.55688
852.15036 1.55560
850.10192 1.55486
848.05348 1.55459
846.00504 1.55379
843.95660 1.55333
841.90817 1.55414
839.85973 1.55507
837.81129 1.55508
835.76285 1.55509
833.71441 1.55622
831.66597 1.55741
829.61753 1.55747
827.56910 1.55762
825.52066 1.55872
823.47222 1.55985
821.42378 1.56038
819.37534 1.56123
817.32690 1.56289
815.27847 1.56391
813.23003 1.56414
811.18159 1.56562
809.13315 1.56802
807.08471 1.56860
805.03627 1.56760
802.98784 1.56777
800.93940 1.56952
798.89096 1.56971
796.84252 1.56726
794.79408 1.56590
792.74564 1.56736
790.69721 1.56878
788.64877 1.56857
786.60033 1.56777
784.55189 1.56583
782.50345 1.56312
780.45501 1.56191
778.40658 1.56169
776.35814 1.55973
774.30970 1.55672
772.26126 1.55526
770.21282 1.55349
768.16438 1.54972
766.11595 1.54762
764.06751 1.54960
762.01907 1.55117
759.97063 1.54756
757.92219 1.54115
755.87375 1.53710
753.82532 1.53618
751.77688 1.53544
749.72844 1.53397
747.68000 1.53229
745.63156 1.52991
743.58312 1.52770
741.53469 1.52693
739.48625 1.52610
737.43781 1.52408
735.38937 1.52335
733.34093 1.52405
731.29249 1.52364
729.24406 1.52206
727.19562 1.52016
725.14718 1.51870
723.09874 1.51811
721.05030 1.51829
719.00186 1.51856
716.95343 1.51804
714.90499 1.51714
712.85655 1.51625
710.80811 1.51607
708.75967 1.51657
706.71123 1.51658
704.66280 1.51660
702.61436 1.51701
700.56592 1.51694
698.51748 1.51560
696.46904 1.51377
694.42060 1.51468
692.37216 1.51852
690.32373 1.52054
688.27529 1.51737
686.22685 1.51241
684.17841 1.51172
682.12997 1.51429
680.08153 1.51479
678.03310 1.51152
675.98466 1.50694
673.93622 1.50575
671.88778 1.50930
669.83934 1.51381
667.79090 1.51130
665.74247 1.50358
663.69403 1.49950
661.64559 1.49479
659.59715 1.48667
657.54871 1.48155
655.50027 1.47847
653.45184 1.46876
651.40340 1.45746
649.35496 1.45184
647.30652 1.44809
645.25808 1.44467
643.20964 1.44032
641.16121 1.43161
639.11277 1.42424
637.06433 1.42286
635.01589 1.41983
632.96745 1.41046
630.91901 1.40211
628.87058 1.39768
626.82214 1.39256
624.77370 1.38569
622.72526 1.37654
620.67682 1.36728
618.62838 1.36041
616.57995 1.35304
614.53151 1.34713
612.48307 1.34855
610.43463 1.35198
608.38619 1.34284
606.33775 1.32209
604.28932 1.30131
602.24088 1.29084
600.19244 1.29427
598.14400 1.29634
