3996.50324 1.62899
3994.45480 1.62883
3992.40636 1.62851
3990.35792 1.62795
3988.30948 1.62705
3986.26104 1.62692
3984.21261 1.62748
3982.16417 1.62747
3980.11573 1.62694
3978.06729 1.62627
3976.01885 1.62601
3973.97041 1.62672
3971.92198 1.62820
3969.87354 1.62909
3967.82510 1.62840
3965.77666 1.62801
3963.72822 1.62946
3961.67978 1.63075
3959.63135 1.62965
3957.58291 1.62717
3955.53447 1.62590
3953.48603 1.62662
3951.43759 1.62828
3949.38915 1.62967
3947.34072 1.62989
3945.29228 1.63021
3943.24384 1.63154
3941.19540 1.63215
3939.14696 1.63143
3937.09852 1.63128
3935.05009 1.63314
3933.00165 1.63608
3930.95321 1.63744
3928.90477 1.63645
3926.85633 1.63521
3924.80789 1.63422
3922.75946 1.63300
3920.71102 1.63231
3918.66258 1.63180
3916.61414 1.63101
3914.56570 1.63063
3912.51726 1.62976
3910.46883 1.62869
3908.42039 1.62957
3906.37195 1.63207
3904.32351 1.63467
3902.27507 1.63662
3900.22663 1.63711
3898.17820 1.63569
3896.12976 1.63365
3894.08132 1.63354
3892.03288 1.63515
3889.98444 1.63475
3887.93600 1.63372
3885.88756 1.63449
3883.83913 1.63470
3881.79069 1.63299
3879.74225 1.63068
3877.69381 1.63027
3875.64537 1.63203
3873.59693 1.63386
3871.54850 1.63554
3869.50006 1.63736
3867.45162 1.63723
3865.40318 1.63627
3863.35474 1.63371
3861.30630 1.62902
3859.25787 1.62642
3857.20943 1.62782
3855.16099 1.63159
3853.11255 1.63512
3851.06411 1.63475
3849.01567 1.63163
3846.96724 1.62996
3844.91880 1.63233
3842.87036 1.63649
3840.82192 1.63916
3838.77348 1.63887
3836.72504 1.63648
3834.67661 1.63561
3832.62817 1.63472
3830.57973 1.63335
3828.53129 1.63328
3826.48285 1.63433
3824.43441 1.63593
3822.38598 1.63742
3820.33754 1.63644
3818.28910 1.63423
3816.24066 1.63256
3814.19222 1.63097
3812.14378 1.62980
3810.09535 1.62956
3808.04691 1.63110
3805.99847 1.63291
3803.95003 1.63364
3801.90159 1.63421
3799.85315 1.63467
3797.80472 1.63461
3795.75628 1.63300
3793.70784 1.63056
3791.65940 1.62816
3789.61096 1.62713
3787.56252 1.62911
3785.51409 1.63180
3783.46565 1.63202
3781.41721 1.63141
3779.36877 1.63073
3777.32033 1.62905
3775.27189 1.62819
3773.22346 1.62856
3771.17502 1.62904
3769.12658 1.62819
3767.07814 1.62736
3765.02970 1.62831
3762.98126 1.62987
3760.93283 1.63116
3758.88439 1.63216
3756.83595 1.63303
3754.78751 1.63436
3752.73907 1.63749
3750.69063 1.64224
3748.64219 1.64326
3746.59376 1.64071
3744.54532 1.63642
3742.49688 1.63558
3740.44844 1.63815
3738.40000 1.64120
3736.35156 1.64522
3734.30313 1.64742
3732.25469 1.64305
3730.20625 1.63835
3728.15781 1.63761
3726.10937 1.63915
3724.06093 1.63999
3722.01250 1.63857
3719.96406 1.63580
3717.91562 1.63468
3715.86718 1.63622
3713.81874 1.63955
3711.77030 1.64215
3709.72187 1.64030
3707.67343 1.63729
3705.62499 1.63572
3703.57655 1.63539
3701.52811 1.63609
3699.47967 1.63699
3697.43124 1.63810
3695.38280 1.64040
3693.33436 1.64382
3691.28592 1.64767
3689.23748 1.65009
3687.18904 1.64904
3685.14061 1.64689
3683.09217 1.64698
3681.04373 1.65026
3678.99529 1.65387
3676.94685 1.65594
3674.89841 1.65731
3672.84998 1.65933
3670.80154 1.66258
3668.75310 1.66352
3666.70466 1.66146
3664.65622 1.66036
3662.60778 1.66110
3660.55935 1.66303
3658.51091 1.66599
3656.46247 1.67066
3654.41403 1.67494
3652.36559 1.67852
3650.31715 1.68537
3648.26872 1.69121
3646.22028 1.68911
3644.17184 1.68746
3642.12340 1.68753
3640.07496 1.68799
3638.02652 1.69015
3635.97809 1.69435
3633.92965 1.69852
3631.88121 1.70083
3629.83277 1.70270
3627.78433 1.70681
3625.73589 1.70954
3623.68746 1.71181
3621.63902 1.71575
3619.59058 1.71807
3617.54214 1.71715
3615.49370 1.71800
3613.44526 1.72021
3611.39682 1.72253
3609.34839 1.72471
3607.29995 1.72413
3605.25151 1.72154
3603.20307 1.72051
3601.15463 1.72181
3599.10619 1.72418
3597.05776 1.72671
3595.00932 1.72870
3592.96088 1.72841
3590.91244 1.72762
3588.86400 1.72897
3586.81556 1.72982
3584.76713 1.72868
3582.71869 1.72846
3580.67025 1.72964
3578.62181 1.73135
3576.57337 1.73188
3574.52493 1.73139
3572.47650 1.73154
3570.42806 1.73353
3568.37962 1.73795
3566.33118 1.74144
3564.28274 1.74114
3562.23430 1.74087
3560.18587 1.73987
3558.13743 1.73703
3556.08899 1.73629
3554.04055 1.73968
3551.99211 1.74362
3549.94367 1.74484
3547.89524 1.74570
3545.84680 1.74755
3543.79836 1.74801
3541.74992 1.74659
3539.70148 1.74546
3537.65304 1.74513
3535.60461 1.74491
3533.55617 1.74575
3531.50773 1.74796
3529.45929 1.75003
3527.41085 1.75090
3525.36241 1.75103
3523.31398 1.75103
3521.26554 1.75165
3519.21710 1.75226
3517.16866 1.75158
3515.12022 1.75038
3513.07178 1.74986
3511.02335 1.74958
3508.97491 1.74813
3506.92647 1.74725
3504.87803 1.74887
3502.82959 1.75032
3500.78115 1.75031
3498.73272 1.75101
3496.68428 1.75215
3494.63584 1.75164
3492.58740 1.74998
3490.53896 1.74961
3488.49052 1.75132
3486.44209 1.75340
3484.39365 1.75496
3482.34521 1.75665
3480.29677 1.75666
3478.24833 1.75523
3476.19989 1.75544
3474.15146 1.75759
3472.10302 1.75979
3470.05458 1.76010
3468.00614 1.75919
3465.95770 1.75941
3463.90926 1.76116
3461.86082 1.76293
3459.81239 1.76307
3457.76395 1.76192
3455.71551 1.76127
3453.66707 1.76186
3451.61863 1.76315
3449.57019 1.76426
3447.52176 1.76416
3445.47332 1.76298
3443.42488 1.76305
3441.37644 1.76476
3439.32800 1.76530
3437.27956 1.76417
3435.23113 1.76395
3433.18269 1.76516
3431.13425 1.76586
3429.08581 1.76632
3427.03737 1.76730
3424.98893 1.76781
3422.94050 1.76786
3420.89206 1.76829
3418.84362 1.76961
3416.79518 1.77043
3414.74674 1.76984
3412.69830 1.77005
3410.64987 1.77164
3408.60143 1.77283
3406.55299 1.77279
3404.50455 1.77241
3402.45611 1.77259
3400.40767 1.77305
3398.35924 1.77413
3396.31080 1.77604
3394.26236 1.77724
3392.21392 1.77660
3390.16548 1.77524
3388.11704 1.77459
3386.06861 1.77479
3384.02017 1.77465
3381.97173 1.77349
3379.92329 1.77340
3377.87485 1.77508
3375.82641 1.77579
3373.77798 1.77542
3371.72954 1.77627
3369.68110 1.77733
3367.63266 1.77695
3365.58422 1.77658
3363.53578 1.77679
3361.48735 1.77643
3359.43891 1.77561
3357.39047 1.77511
3355.34203 1.77478
3353.29359 1.77387
3351.24515 1.77333
3349.19672 1.77361
3347.14828 1.77339
3345.09984 1.77360
3343.05140 1.77477
3341.00296 1.77552
3338.95452 1.77580
3336.90609 1.77601
3334.85765 1.77620
3332.80921 1.77612
3330.76077 1.77556
3328.71233 1.77546
3326.66389 1.77690
3324.61545 1.77869
3322.56702 1.77890
3320.51858 1.77784
3318.47014 1.77711
3316.42170 1.77688
3314.37326 1.77603
3312.32482 1.77532
3310.27639 1.77650
3308.22795 1.77922
3306.17951 1.78128
3304.13107 1.78152
3302.08263 1.78099
3300.03419 1.78007
3297.98576 1.77844
3295.93732 1.77765
3293.88888 1.77843
3291.84044 1.77921
3289.79200 1.77928
3287.74356 1.77895
3285.69513 1.77828
3283.64669 1.77781
3281.59825 1.77806
3279.54981 1.77884
3277.50137 1.77944
3275.45293 1.77945
3273.40450 1.77952
3271.35606 1.77980
3269.30762 1.77930
3267.25918 1.77734
3265.21074 1.77537
3263.16230 1.77570
3261.11387 1.77792
3259.06543 1.77947
3257.01699 1.77902
3254.96855 1.77819
3252.92011 1.77813
3250.87167 1.77809
3248.82324 1.77860
3246.77480 1.77977
3244.72636 1.78083
3242.67792 1.78155
3240.62948 1.78110
3238.58104 1.77970
3236.53261 1.77917
3234.48417 1.77958
3232.43573 1.77953
3230.38729 1.77887
3228.33885 1.77857
3226.29041 1.77920
3224.24198 1.78021
3222.19354 1.78170
3220.14510 1.78250
3218.09666 1.78143
3216.04822 1.78074
3213.99978 1.78094
3211.95135 1.78131
3209.90291 1.78215
3207.85447 1.78185
3205.80603 1.77974
3203.75759 1.77785
3201.70915 1.77731
3199.66072 1.77701
3197.61228 1.77583
3195.56384 1.77472
3193.51540 1.77474
3191.46696 1.77578
3189.41852 1.77661
3187.37008 1.77596
3185.32165 1.77513
3183.27321 1.77477
3181.22477 1.77455
3179.17633 1.77506
3177.12789 1.77491
3175.07945 1.77344
3173.03102 1.77219
3170.98258 1.77205
3168.93414 1.77264
3166.88570 1.77297
3164.83726 1.77297
3162.78882 1.77294
3160.74039 1.77277
3158.69195 1.77219
3156.64351 1.77133
3154.59507 1.77106
3152.54663 1.77132
3150.49819 1.77147
3148.44976 1.77112
3146.40132 1.77015
3144.35288 1.76919
3142.30444 1.76903
3140.25600 1.76928
3138.20756 1.76932
3136.15913 1.76986
3134.11069 1.77055
3132.06225 1.76974
3130.01381 1.76754
3127.96537 1.76588
3125.91693 1.76534
3123.86850 1.76446
3121.82006 1.76277
3119.77162 1.76123
3117.72318 1.76034
3115.67474 1.75989
3113.62630 1.76010
3111.57787 1.76062
3109.52943 1.76036
3107.48099 1.75962
3105.43255 1.75904
3103.38411 1.75836
3101.33567 1.75768
3099.28724 1.75738
3097.23880 1.75743
3095.19036 1.75778
3093.14192 1.75773
3091.09348 1.75753
3089.04504 1.75710
3086.99661 1.75557
3084.94817 1.75493
3082.89973 1.75555
3080.85129 1.75566
3078.80285 1.75501
3076.75441 1.75339
3074.70598 1.75131
3072.65754 1.74975
3070.60910 1.74904
3068.56066 1.74919
3066.51222 1.74938
3064.46378 1.74891
3062.41535 1.74808
3060.36691 1.74718
3058.31847 1.74689
3056.27003 1.74733
3054.22159 1.74719
3052.17315 1.74665
3050.12471 1.74674
3048.07628 1.74706
3046.02784 1.74655
3043.97940 1.74457
3041.93096 1.74233
3039.88252 1.74118
3037.83408 1.74016
3035.78565 1.73924
3033.73721 1.73979
3031.68877 1.74091
3029.64033 1.74074
3027.59189 1.73991
3025.54345 1.73979
3023.49502 1.74021
3021.44658 1.74042
3019.39814 1.73953
3017.34970 1.73794
3015.30126 1.73723
3013.25282 1.73727
3011.20439 1.73707
3009.15595 1.73724
3007.10751 1.73821
3005.05907 1.73881
3003.01063 1.73849
3000.96219 1.73805
2998.91376 1.73738
2996.86532 1.73640
2994.81688 1.73561
2992.76844 1.73461
2990.72000 1.73361
2988.67156 1.73379
2986.62313 1.73491
2984.57469 1.73591
2982.52625 1.73636
2980.47781 1.73575
2978.42937 1.73396
2976.38093 1.73282
2974.33250 1.73356
2972.28406 1.73422
2970.23562 1.73312
2968.18718 1.73178
2966.13874 1.73125
2964.09030 1.73071
2962.04187 1.72988
2959.99343 1.72881
2957.94499 1.72767
2955.89655 1.72711
2953.84811 1.72703
2951.79967 1.72665
2949.75124 1.72582
2947.70280 1.72524
2945.65436 1.72513
2943.60592 1.72503
2941.55748 1.72512
2939.50904 1.72521
2937.46061 1.72443
2935.41217 1.72345
2933.36373 1.72389
2931.31529 1.72527
2929.26685 1.72621
2927.21841 1.72629
2925.16998 1.72545
2923.12154 1.72412
2921.07310 1.72303
2919.02466 1.72295
2916.97622 1.72341
2914.92778 1.72255
2912.87934 1.72079
2910.83091 1.71975
2908.78247 1.71944
2906.73403 1.71971
2904.68559 1.72068
2902.63715 1.72135
2900.58871 1.72084
2898.54028 1.71990
2896.49184 1.71952
2894.44340 1.71949
2892.39496 1.71919
2890.34652 1.71873
2888.29808 1.71863
2886.24965 1.71851
2884.20121 1.71770
2882.15277 1.71663
2880.10433 1.71593
2878.05589 1.71588
2876.00745 1.71625
2873.95902 1.71625
2871.91058 1.71563
2869.86214 1.71465
2867.81370 1.71325
2865.76526 1.71215
2863.71682 1.71196
2861.66839 1.71210
2859.61995 1.71293
2857.57151 1.71357
2855.52307 1.71239
2853.47463 1.71083
2851.42619 1.71005
2849.37776 1.70897
2847.32932 1.70804
2845.28088 1.70858
2843.23244 1.70913
2841.18400 1.70824
2839.13556 1.70717
2837.08713 1.70726
2835.03869 1.70736
2832.99025 1.70621
2830.94181 1.70523
2828.89337 1.70578
2826.84493 1.70618
2824.79650 1.70510
2822.74806 1.70429
2820.69962 1.70442
2818.65118 1.70399
2816.60274 1.70309
2814.55430 1.70340
2812.50587 1.70472
2810.45743 1.70504
2808.40899 1.70419
2806.36055 1.70332
2804.31211 1.70253
2802.26367 1.70193
2800.21524 1.70196
2798.16680 1.70223
2796.11836 1.70177
2794.06992 1.70035
2792.02148 1.69878
2789.97304 1.69728
2787.92461 1.69610
2785.87617 1.69556
2783.82773 1.69562
2781.77929 1.69657
2779.73085 1.69793
2777.68241 1.69873
2775.63397 1.69828
2773.58554 1.69654
2771.53710 1.69464
2769.48866 1.69376
2767.44022 1.69347
2765.39178 1.69286
2763.34334 1.69236
2761.29491 1.69215
2759.24647 1.69179
2757.19803 1.69087
2755.14959 1.68981
2753.10115 1.68932
2751.05271 1.68898
2749.00428 1.68829
2746.95584 1.68783
2744.90740 1.68846
2742.85896 1.68951
2740.81052 1.68972
2738.76208 1.68919
2736.71365 1.68868
2734.66521 1.68829
2732.61677 1.68787
2730.56833 1.68783
2728.51989 1.68824
2726.47145 1.68829
2724.42302 1.68735
2722.37458 1.68651
2720.32614 1.68678
2718.27770 1.68707
2716.22926 1.68614
2714.18082 1.68450
2712.13239 1.68342
2710.08395 1.68292
2708.03551 1.68309
2705.98707 1.68401
2703.93863 1.68369
2701.89019 1.68206
2699.84176 1.68114
2697.79332 1.68097
2695.74488 1.68064
2693.69644 1.67999
2691.64800 1.67955
2689.59956 1.68010
2687.55113 1.68132
2685.50269 1.68213
2683.45425 1.68210
2681.40581 1.68165
2679.35737 1.68109
2677.30893 1.68065
2675.26050 1.68046
2673.21206 1.68020
2671.16362 1.67978
2669.11518 1.67944
2667.06674 1.67944
2665.01830 1.67987
2662.96987 1.68046
2660.92143 1.68024
2658.87299 1.67952
2656.82455 1.67958
2654.77611 1.67958
2652.72767 1.67912
2650.67924 1.67879
2648.63080 1.67845
2646.58236 1.67825
2644.53392 1.67841
2642.48548 1.67892
2640.43704 1.67891
2638.38860 1.67758
2636.34017 1.67631
2634.29173 1.67681
2632.24329 1.67777
2630.19485 1.67694
2628.14641 1.67522
2626.09797 1.67425
2624.04954 1.67328
2622.00110 1.67209
2619.95266 1.67219
2617.90422 1.67311
2615.85578 1.67310
2613.80734 1.67279
2611.75891 1.67299
2609.71047 1.67254
2607.66203 1.67136
2605.61359 1.67067
2603.56515 1.67059
2601.51671 1.67086
2599.46828 1.67094
2597.41984 1.67051
2595.37140 1.67016
2593.32296 1.67019
2591.27452 1.67031
2589.22608 1.67021
2587.17765 1.67005
2585.12921 1.66990
2583.08077 1.66971
2581.03233 1.66952
2578.98389 1.66880
2576.93545 1.66770
2574.88702 1.66703
2572.83858 1.66710
2570.79014 1.66766
2568.74170 1.66751
2566.69326 1.66650
2564.64482 1.66579
2562.59639 1.66550
2560.54795 1.66550
2558.49951 1.66567
2556.45107 1.66556
2554.40263 1.66541
2552.35419 1.66592
2550.30576 1.66642
2548.25732 1.66563
2546.20888 1.66419
2544.16044 1.66370
2542.11200 1.66408
2540.06356 1.66429
2538.01513 1.66413
2535.96669 1.66347
2533.91825 1.66256
2531.86981 1.66226
2529.82137 1.66247
2527.77293 1.66245
2525.72450 1.66229
2523.67606 1.66262
2521.62762 1.66291
2519.57918 1.66231
2517.53074 1.66155
2515.48230 1.66092
2513.43387 1.66008
2511.38543 1.65943
2509.33699 1.65928
2507.28855 1.65959
2505.24011 1.65966
2503.19167 1.65900
2501.14324 1.65865
2499.09480 1.65920
2497.04636 1.66001
2494.99792 1.66009
2492.94948 1.65898
2490.90104 1.65808
2488.85260 1.65884
2486.80417 1.66035
2484.75573 1.66173
2482.70729 1.66283
2480.65885 1.66287
2478.61041 1.66219
2476.56197 1.66217
2474.51354 1.66288
2472.46510 1.66355
2470.41666 1.66406
2468.36822 1.66405
2466.31978 1.66365
2464.27134 1.66334
2462.22291 1.66288
2460.17447 1.66275
2458.12603 1.66295
2456.07759 1.66273
2454.02915 1.66292
2451.98071 1.66327
2449.93228 1.66237
2447.88384 1.66118
2445.83540 1.66101
2443.78696 1.66136
2441.73852 1.66157
2439.69008 1.66112
2437.64165 1.66014
2435.59321 1.65985
2433.54477 1.66010
2431.49633 1.66003
2429.44789 1.65984
2427.39945 1.65967
2425.35102 1.65974
2423.30258 1.66001
2421.25414 1.66036
2419.20570 1.66112
2417.15726 1.66171
2415.10882 1.66182
2413.06039 1.66207
2411.01195 1.66237
2408.96351 1.66282
2406.91507 1.66379
2404.86663 1.66457
2402.81819 1.66452
2400.76976 1.66418
2398.72132 1.66393
2396.67288 1.66386
2394.62444 1.66396
2392.57600 1.66362
2390.52756 1.66296
2388.47913 1.66299
2386.43069 1.66325
2384.38225 1.66335
2382.33381 1.66371
2380.28537 1.66345
2378.23693 1.66288
2376.18850 1.66307
2374.14006 1.66258
2372.09162 1.66195
2370.04318 1.66297
2367.99474 1.66346
2365.94630 1.66206
2363.89787 1.65812
2361.84943 1.65342
2359.80099 1.65399
2357.75255 1.65800
2355.70411 1.66097
2353.65567 1.66262
2351.60723 1.66223
2349.55880 1.66113
2347.51036 1.66127
2345.46192 1.66308
2343.41348 1.66417
2341.36504 1.66330
2339.31660 1.66331
2337.26817 1.66406
2335.21973 1.66470
2333.17129 1.66527
2331.12285 1.66399
2329.07441 1.66163
2327.02597 1.66058
2324.97754 1.66011
2322.92910 1.65979
2320.88066 1.66021
2318.83222 1.66065
2316.78378 1.66032
2314.73534 1.66017
2312.68691 1.66129
2310.63847 1.66239
2308.59003 1.66272
2306.54159 1.66330
2304.49315 1.66396
2302.44471 1.66394
2300.39628 1.66354
2298.34784 1.66350
2296.29940 1.66389
2294.25096 1.66428
2292.20252 1.66434
2290.15408 1.66404
2288.10565 1.66403
2286.05721 1.66479
2284.00877 1.66551
2281.96033 1.66545
2279.91189 1.66556
2277.86345 1.66654
2275.81502 1.66717
2273.76658 1.66689
2271.71814 1.66669
2269.66970 1.66654
2267.62126 1.66600
2265.57282 1.66615
2263.52439 1.66702
2261.47595 1.66722
2259.42751 1.66696
2257.37907 1.66731
2255.33063 1.66836
2253.28219 1.66913
2251.23376 1.66915
2249.18532 1.66912
2247.13688 1.66936
2245.08844 1.66984
2243.04000 1.67022
2240.99156 1.67054
2238.94313 1.67153
2236.89469 1.67258
2234.84625 1.67262
2232.79781 1.67256
2230.74937 1.67338
2228.70093 1.67426
2226.65250 1.67467
2224.60406 1.67500
2222.55562 1.67504
2220.50718 1.67499
2218.45874 1.67529
2216.41030 1.67556
2214.36186 1.67538
2212.31343 1.67484
2210.26499 1.67442
2208.21655 1.67397
2206.16811 1.67352
2204.11967 1.67335
2202.07123 1.67331
2200.02280 1.67325
2197.97436 1.67303
2195.92592 1.67294
2193.87748 1.67308
2191.82904 1.67321
2189.78060 1.67398
2187.73217 1.67547
2185.68373 1.67615
2183.63529 1.67570
2181.58685 1.67549
2179.53841 1.67587
2177.48997 1.67578
2175.44154 1.67523
2173.39310 1.67563
2171.34466 1.67682
2169.29622 1.67726
2167.24778 1.67718
2165.19934 1.67749
2163.15091 1.67800
2161.10247 1.67883
2159.05403 1.67987
2157.00559 1.68023
2154.95715 1.67986
2152.90871 1.67977
2150.86028 1.68021
2148.81184 1.68075
2146.76340 1.68116
2144.71496 1.68095
2142.66652 1.68064
2140.61808 1.68080
2138.56965 1.68091
2136.52121 1.68044
2134.47277 1.67954
2132.42433 1.67886
2130.37589 1.67785
2128.32745 1.67622
2126.27902 1.67512
2124.23058 1.67499
2122.18214 1.67498
2120.13370 1.67428
2118.08526 1.67335
2116.03682 1.67263
2113.98839 1.67199
2111.93995 1.67166
2109.89151 1.67126
2107.84307 1.67055
2105.79463 1.67007
2103.74619 1.66975
2101.69776 1.66945
2099.64932 1.66974
2097.60088 1.67092
2095.55244 1.67248
2093.50400 1.67354
2091.45556 1.67361
2089.40713 1.67363
2087.35869 1.67451
2085.31025 1.67505
2083.26181 1.67486
2081.21337 1.67531
2079.16493 1.67624
2077.11649 1.67674
2075.06806 1.67725
2073.01962 1.67786
2070.97118 1.67794
2068.92274 1.67789
2066.87430 1.67822
2064.82586 1.67872
2062.77743 1.67896
2060.72899 1.67885
2058.68055 1.67828
2056.63211 1.67774
2054.58367 1.67870
2052.53523 1.68073
2050.48680 1.68184
2048.43836 1.68230
2046.38992 1.68334
2044.34148 1.68493
2042.29304 1.68637
2040.24460 1.68720
2038.19617 1.68814
2036.14773 1.68969
2034.09929 1.69205
2032.05085 1.69524
2030.00241 1.69780
2027.95397 1.69919
2025.90554 1.70085
2023.85710 1.70310
2021.80866 1.70521
2019.76022 1.70796
2017.71178 1.71183
2015.66334 1.71521
2013.61491 1.71749
2011.56647 1.72022
2009.51803 1.72348
2007.46959 1.72582
2005.42115 1.72742
2003.37271 1.72860
2001.32428 1.72883
1999.27584 1.72844
1997.22740 1.72840
1995.17896 1.72936
1993.13052 1.73059
1991.08208 1.73056
1989.03365 1.72924
1986.98521 1.72761
1984.93677 1.72676
1982.88833 1.72705
1980.83989 1.72732
1978.79145 1.72696
1976.74302 1.72606
1974.69458 1.72519
1972.64614 1.72498
1970.59770 1.72491
1968.54926 1.72446
1966.50082 1.72339
1964.45239 1.72185
1962.40395 1.72057
1960.35551 1.72015
1958.30707 1.72016
1956.25863 1.71957
1954.21019 1.71851
1952.16176 1.71753
1950.11332 1.71662
1948.06488 1.71629
1946.01644 1.71729
1943.96800 1.71875
1941.91956 1.71872
1939.87112 1.71786
1937.82269 1.71751
1935.77425 1.71730
1933.72581 1.71693
1931.67737 1.71645
1929.62893 1.71630
1927.58049 1.71689
1925.53206 1.71795
1923.48362 1.71908
1921.43518 1.71987
1919.38674 1.72107
1917.33830 1.72334
1915.28986 1.72599
1913.24143 1.72911
1911.19299 1.73295
1909.14455 1.73654
1907.09611 1.73972
1905.04767 1.74315
1902.99923 1.74538
1900.95080 1.74617
1898.90236 1.74799
1896.85392 1.75124
1894.80548 1.75410
1892.75704 1.75594
1890.70860 1.75770
1888.66017 1.75855
1886.61173 1.75781
1884.56329 1.75697
1882.51485 1.75651
1880.46641 1.75622
1878.41797 1.75618
1876.36954 1.75623
1874.32110 1.75632
1872.27266 1.75682
1870.22422 1.75834
1868.17578 1.75986
1866.12734 1.75811
1864.07891 1.75441
1862.03047 1.75184
1859.98203 1.75058
1857.93359 1.74874
1855.88515 1.74541
1853.83671 1.74137
1851.78828 1.73814
1849.73984 1.73594
1847.69140 1.73367
1845.64296 1.73077
1843.59452 1.72649
1841.54608 1.72231
1839.49765 1.72033
1837.44921 1.71940
1835.40077 1.71793
1833.35233 1.71761
1831.30389 1.71998
1829.25545 1.72261
1827.20702 1.72363
1825.15858 1.72445
1823.11014 1.72445
1821.06170 1.72403
1819.01326 1.72491
1816.96482 1.72662
1814.91639 1.72835
1812.86795 1.73063
1810.81951 1.73300
1808.77107 1.73473
1806.72263 1.73639
1804.67419 1.73849
1802.62575 1.74069
1800.57732 1.74158
1798.52888 1.74129
1796.48044 1.74168
1794.43200 1.74326
1792.38356 1.74434
1790.33512 1.74222
1788.28669 1.73974
1786.23825 1.73911
1784.18981 1.73919
1782.14137 1.73905
1780.09293 1.73815
1778.04449 1.73622
1775.99606 1.73449
1773.94762 1.73353
1771.89918 1.73175
1769.85074 1.72737
1767.80230 1.72217
1765.75386 1.71846
1763.70543 1.71705
1761.65699 1.71599
1759.60855 1.71408
1757.56011 1.71271
1755.51167 1.71186
1753.46323 1.71235
1751.41480 1.71549
1749.36636 1.71778
1747.31792 1.71617
1745.26948 1.71453
1743.22104 1.71375
1741.17260 1.71314
1739.12417 1.71316
1737.07573 1.71385
1735.02729 1.71507
1732.97885 1.71551
1730.93041 1.71384
1728.88197 1.71194
1726.83354 1.71145
1724.78510 1.71279
1722.73666 1.71480
1720.68822 1.71741
1718.63978 1.72330
1716.59134 1.72985
1714.54291 1.72871
1712.49447 1.72658
1710.44603 1.72800
1708.39759 1.73227
1706.34915 1.73688
1704.30071 1.73888
1702.25228 1.74003
1700.20384 1.74488
1698.15540 1.75035
1696.10696 1.75124
1694.05852 1.75047
1692.01008 1.75069
1689.96165 1.75266
1687.91321 1.75568
1685.86477 1.75928
1683.81633 1.76303
1681.76789 1.76210
1679.71945 1.75961
1677.67102 1.75818
1675.62258 1.75753
1673.57414 1.75752
1671.52570 1.75847
1669.47726 1.75752
1667.42882 1.75304
1665.38038 1.74995
1663.33195 1.74919
1661.28351 1.74958
1659.23507 1.75134
1657.18663 1.75455
1655.13819 1.75900
1653.08975 1.76318
1651.04132 1.76255
1648.99288 1.76268
1646.94444 1.76304
1644.89600 1.76005
1642.84756 1.75819
1640.79912 1.75947
1638.75069 1.76263
1636.70225 1.76583
1634.65381 1.76749
1632.60537 1.76808
1630.55693 1.76922
1628.50849 1.77203
1626.46006 1.77574
1624.41162 1.77904
1622.36318 1.78176
1620.31474 1.78413
1618.26630 1.78698
1616.21786 1.78760
1614.16943 1.78502
1612.12099 1.78387
1610.07255 1.78509
1608.02411 1.78658
1605.97567 1.78659
1603.92723 1.78584
1601.87880 1.78455
1599.83036 1.78282
1597.78192 1.78107
1595.73348 1.77988
1593.68504 1.77875
1591.63660 1.77719
1589.58817 1.77527
1587.53973 1.77236
1585.49129 1.76902
1583.44285 1.76609
1581.39441 1.76420
1579.34597 1.76470
1577.29754 1.76720
1575.24910 1.76628
1573.20066 1.76247
1571.15222 1.76056
1569.10378 1.75906
1567.05534 1.75649
1565.00691 1.75520
1562.95847 1.75634
1560.91003 1.75958
1558.86159 1.76380
1556.81315 1.76280
1554.76471 1.75977
1552.71628 1.75733
1550.66784 1.75599
1548.61940 1.75562
1546.57096 1.75745
1544.52252 1.76219
1542.47408 1.76858
1540.42565 1.77459
1538.37721 1.77358
1536.32877 1.77123
1534.28033 1.77174
1532.23189 1.77234
1530.18345 1.77131
1528.13501 1.77190
1526.08658 1.77500
1524.03814 1.77751
1521.98970 1.77682
1519.94126 1.77446
1517.89282 1.77284
1515.84438 1.76954
1513.79595 1.76604
1511.74751 1.76539
1509.69907 1.76821
1507.65063 1.77136
1505.60219 1.76576
1503.55375 1.76055
1501.50532 1.75896
1499.45688 1.75948
1497.40844 1.76051
1495.36000 1.75985
1493.31156 1.75924
1491.26312 1.76028
1489.21469 1.76118
1487.16625 1.75879
1485.11781 1.75530
1483.06937 1.75299
1481.02093 1.75160
1478.97249 1.75054
1476.92406 1.75059
1474.87562 1.75129
1472.82718 1.74970
1470.77874 1.74646
1468.73030 1.74488
1466.68186 1.74520
1464.63343 1.74727
1462.58499 1.74943
1460.53655 1.75206
1458.48811 1.75709
1456.43967 1.75841
1454.39123 1.75287
1452.34280 1.74923
1450.29436 1.74832
1448.24592 1.74810
1446.19748 1.74646
1444.14904 1.74445
1442.10060 1.74377
1440.05217 1.74474
1438.00373 1.74727
1435.95529 1.74884
1433.90685 1.74815
1431.85841 1.74871
1429.80997 1.75027
1427.76154 1.75125
1425.71310 1.75316
1423.66466 1.75642
1421.61622 1.75906
1419.56778 1.76138
1417.51934 1.76217
1415.47091 1.76021
1413.42247 1.75801
1411.37403 1.75584
1409.32559 1.75399
1407.27715 1.75282
1405.22871 1.75060
1403.18028 1.74720
1401.13184 1.74510
1399.08340 1.74499
1397.03496 1.74568
1394.98652 1.74532
1392.93808 1.74376
1390.88965 1.74314
1388.84121 1.74458
1386.79277 1.74629
1384.74433 1.74674
1382.69589 1.74757
1380.64745 1.74911
1378.59901 1.75087
1376.55058 1.75278
1374.50214 1.75391
1372.45370 1.75359
1370.40526 1.75331
1368.35682 1.75327
1366.30838 1.75296
1364.25995 1.75384
1362.21151 1.75437
1360.16307 1.75187
1358.11463 1.74996
1356.06619 1.75011
1354.01775 1.75031
1351.96932 1.75028
1349.92088 1.75020
1347.87244 1.74973
1345.82400 1.74966
1343.77556 1.74992
1341.72712 1.75017
1339.67869 1.75039
1337.63025 1.74927
1335.58181 1.74688
1333.53337 1.74422
1331.48493 1.74135
1329.43649 1.73861
1327.38806 1.73675
1325.33962 1.73513
1323.29118 1.73227
1321.24274 1.72965
1319.19430 1.72820
1317.14586 1.72542
1315.09743 1.72133
1313.04899 1.71694
1311.00055 1.71166
1308.95211 1.70588
1306.90367 1.70008
1304.85523 1.69461
1302.80680 1.68989
1300.75836 1.68527
1298.70992 1.68046
1296.66148 1.67591
1294.61304 1.67143
1292.56460 1.66690
1290.51617 1.66258
1288.46773 1.65821
1286.41929 1.65363
1284.37085 1.64914
1282.32241 1.64475
1280.27397 1.64044
1278.22554 1.63596
1276.17710 1.63071
1274.12866 1.62483
1272.08022 1.61826
1270.03178 1.61010
1267.98334 1.60073
1265.93491 1.59071
1263.88647 1.57872
1261.83803 1.56311
1259.78959 1.54337
1257.74115 1.52008
1255.69271 1.49419
1253.64428 1.46689
1251.59584 1.43941
1249.54740 1.41237
1247.49896 1.38577
1245.45052 1.35934
1243.40208 1.33296
1241.35364 1.30669
1239.30521 1.28078
1237.25677 1.25569
1235.20833 1.23156
1233.15989 1.20834
1231.11145 1.18612
1229.06301 1.16530
1227.01458 1.14669
1224.96614 1.13101
1222.91770 1.11870
1220.86926 1.10944
1218.82082 1.10254
1216.77238 1.09763
1214.72395 1.09438
1212.67551 1.09230
1210.62707 1.09102
1208.57863 1.09042
1206.53019 1.09022
1204.48175 1.09024
1202.43332 1.09038
1200.38488 1.09039
1198.33644 1.09009
1196.28800 1.08955
1194.23956 1.08894
1192.19112 1.08838
1190.14269 1.08799
1188.09425 1.08786
1186.04581 1.08798
1183.99737 1.08828
1181.94893 1.08887
1179.90049 1.08980
1177.85206 1.09106
1175.80362 1.09272
1173.75518 1.09507
1171.70674 1.09876
1169.65830 1.10505
1167.60986 1.11611
1165.56143 1.13514
1163.51299 1.16526
1161.46455 1.20170
1159.41611 1.22408
1157.36767 1.21404
1155.31923 1.18172
1153.27080 1.14960
1151.22236 1.12755
1149.17392 1.11427
1147.12548 1.10614
1145.07704 1.10051
1143.02860 1.09587
1140.98017 1.09171
1138.93173 1.08787
1136.88329 1.08430
1134.83485 1.08108
1132.78641 1.07819
1130.73797 1.07547
1128.68954 1.07312
1126.64110 1.07131
1124.59266 1.06971
1122.54422 1.06805
1120.49578 1.06632
1118.44734 1.06462
1116.39891 1.06305
1114.35047 1.06154
1112.30203 1.05982
1110.25359 1.05777
1108.20515 1.05569
1106.15671 1.05383
1104.10827 1.05212
1102.05984 1.05048
1100.01140 1.04910
1097.96296 1.04798
1095.91452 1.04689
1093.86608 1.04573
1091.81764 1.04465
1089.76921 1.04382
1087.72077 1.04345
1085.67233 1.04382
1083.62389 1.04491
1081.57545 1.04638
1079.52701 1.04826
1077.47858 1.05092
1075.43014 1.05512
1073.38170 1.06203
1071.33326 1.07256
1069.28482 1.08752
1067.23638 1.10762
1065.18795 1.13236
1063.13951 1.15937
1061.09107 1.18579
1059.04263 1.21030
1056.99419 1.23254
1054.94575 1.25207
1052.89732 1.26874
1050.84888 1.28325
1048.80044 1.29662
1046.75200 1.30961
1044.70356 1.32181
1042.65512 1.33235
1040.60669 1.34169
1038.55825 1.35085
1036.50981 1.36027
1034.46137 1.36965
1032.41293 1.37826
1030.36449 1.38571
1028.31606 1.39258
1026.26762 1.39919
1024.21918 1.40539
1022.17074 1.41135
1020.12230 1.41715
1018.07386 1.42252
1016.02543 1.42731
1013.97699 1.43188
1011.92855 1.43705
1009.88011 1.44284
1007.83167 1.44825
1005.78323 1.45282
1003.73480 1.45722
1001.68636 1.46193
999.63792 1.46627
997.58948 1.46979
995.54104 1.47266
993.49260 1.47519
991.44417 1.47769
989.39573 1.48023
987.34729 1.48313
985.29885 1.48599
983.25041 1.48818
981.20197 1.49072
979.15354 1.49430
977.10510 1.49780
975.05666 1.50006
973.00822 1.50173
970.95978 1.50466
968.91134 1.50873
966.86290 1.51146
964.81447 1.51109
962.76603 1.50812
960.71759 1.50484
958.66915 1.50478
956.62071 1.50951
954.57227 1.51633
952.52384 1.52100
950.47540 1.52103
948.42696 1.51752
946.37852 1.51410
944.33008 1.51309
942.28164 1.51478
940.23321 1.51912
938.18477 1.52495
936.13633 1.53001
934.08789 1.53257
932.03945 1.53263
929.99101 1.53152
927.94258 1.53036
925.89414 1.53021
923.84570 1.53213
921.79726 1.53530
919.74882 1.53798
917.70038 1.54006
915.65195 1.54223
913.60351 1.54440
911.55507 1.54635
909.50663 1.54805
907.45819 1.54884
905.40975 1.54876
903.36132 1.54889
901.31288 1.54953
899.26444 1.55085
897.21600 1.55359
895.16756 1.55704
893.11912 1.55972
891.07069 1.56128
889.02225 1.56219
886.97381 1.56260
884.92537 1.56248
882.87693 1.56273
880.82849 1.56455
878.78006 1.56778
876.73162 1.57200
874.68318 1.57701
872.63474 1.58104
870.58630 1.58309
868.53786 1.58431
866.48943 1.58517
864.44099 1.58502
862.39255 1.58469
860.34411 1.58664
858.29567 1.59079
856.24723 1.59492
854.19880 1.59838
852.15036 1.60150
850.10192 1.60268
848.05348 1.60157
846.00504 1.60133
843.95660 1.60379
841.90817 1.60823
839.85973 1.61303
837.81129 1.61690
835.76285 1.61944
833.71441 1.62151
831.66597 1.62438
829.61753 1.62813
827.56910 1.63238
825.52066 1.63730
823.47222 1.64266
821.42378 1.64787
819.37534 1.65324
817.32690 1.65775
815.27847 1.65893
813.23003 1.65146
811.18159 1.62337
809.13315 1.57005
807.08471 1.50841
805.03627 1.46051
802.98784 1.43543
800.93940 1.42952
798.89096 1.43658
796.84252 1.45354
794.79408 1.47477
792.74564 1.49034
790.69721 1.49246
788.64877 1.47875
786.60033 1.45536
784.55189 1.43631
782.50345 1.43167
780.45501 1.44034
778.40658 1.45647
776.35814 1.47578
774.30970 1.49343
772.26126 1.50536
770.21282 1.51388
768.16438 1.52181
766.11595 1.52912
764.06751 1.53634
762.01907 1.54335
759.97063 1.54824
757.92219 1.54950
755.87375 1.54847
753.82532 1.54797
751.77688 1.55038
749.72844 1.55511
747.68000 1.55882
745.63156 1.56032
743.58312 1.56009
741.53469 1.55699
739.48625 1.55138
737.43781 1.54710
735.38937 1.54697
733.34093 1.55103
731.29249 1.55652
729.24406 1.56032
727.19562 1.56102
725.14718 1.55774
723.09874 1.55293
721.05030 1.54981
719.00186 1.54833
716.95343 1.54934
714.90499 1.55415
712.85655 1.56050
710.80811 1.56526
708.75967 1.56826
706.71123 1.57069
704.66280 1.57314
702.61436 1.57530
700.56592 1.57415
698.51748 1.56418
696.46904 1.54632
694.42060 1.53358
692.37216 1.53276
690.32373 1.53496
688.27529 1.53484
686.22685 1.53582
684.17841 1.53705
682.12997 1.53565
680.08153 1.53426
678.03310 1.53657
675.98466 1.53983
673.93622 1.53824
671.88778 1.53244
669.83934 1.52591
667.79090 1.52149
665.74247 1.52313
663.69403 1.52452
661.64559 1.52086
659.59715 1.51455
657.54871 1.50938
655.50027 1.50412
653.45184 1.49564
651.40340 1.48172
649.35496 1.46608
647.30652 1.45361
645.25808 1.44020
643.20964 1.42515
641.16121 1.41428
639.11277 1.40386
637.06433 1.39333
635.01589 1.39058
632.96745 1.39151
630.91901 1.38911
628.87058 1.38480
626.82214 1.37917
624.77370 1.36682
622.72526 1.34647
620.67682 1.33138
618.62838 1.32387
616.57995 1.31624
614.53151 1.31219
612.48307 1.31052
610.43463 1.30644
608.38619 1.29877
606.33775 1.28615
604.28932 1.27518
602.24088 1.27260
600.19244 1.27607
598.14400 1.28119
