3996.50324 1.68855
3994.45480 1.68908
3992.40636 1.68859
3990.35792 1.68793
3988.30948 1.68674
3986.26104 1.68594
3984.21261 1.68646
3982.16417 1.68732
3980.11573 1.68719
3978.06729 1.68684
3976.01885 1.68758
3973.97041 1.68854
3971.92198 1.68856
3969.87354 1.68810
3967.82510 1.68753
3965.77666 1.68692
3963.72822 1.68712
3961.67978 1.68778
3959.63135 1.68790
3957.58291 1.68715
3955.53447 1.68547
3953.48603 1.68492
3951.43759 1.68718
3949.38915 1.69050
3947.34072 1.69098
3945.29228 1.68973
3943.24384 1.68985
3941.19540 1.68865
3939.14696 1.68500
3937.09852 1.68307
3935.05009 1.68587
3933.00165 1.69130
3930.95321 1.69283
3928.90477 1.68984
3926.85633 1.68868
3924.80789 1.69037
3922.75946 1.69015
3920.71102 1.68930
3918.66258 1.69164
3916.61414 1.69175
3914.56570 1.68662
3912.51726 1.68253
3910.46883 1.68253
3908.42039 1.68642
3906.37195 1.69335
3904.32351 1.69971
3902.27507 1.69994
3900.22663 1.69758
3898.17820 1.69465
3896.12976 1.69013
3894.08132 1.68862
3892.03288 1.69044
3889.98444 1.68850
3887.93600 1.68630
3885.88756 1.69047
3883.83913 1.69562
3881.79069 1.69658
3879.74225 1.69359
3877.69381 1.68838
3875.64537 1.68809
3873.59693 1.69248
3871.54850 1.69532
3869.50006 1.69561
3867.45162 1.69533
3865.40318 1.69834
3863.35474 1.70046
3861.30630 1.69531
3859.25787 1.69025
3857.20943 1.68994
3855.16099 1.69587
3853.11255 1.70585
3851.06411 1.70178
3849.01567 1.69230
3846.96724 1.68685
3844.91880 1.68745
3842.87036 1.69266
3840.82192 1.69849
3838.77348 1.70252
3836.72504 1.70159
3834.67661 1.69824
3832.62817 1.69593
3830.57973 1.69379
3828.53129 1.69267
3826.48285 1.69274
3824.43441 1.69323
3822.38598 1.69728
3820.33754 1.70234
3818.28910 1.69978
3816.24066 1.69247
3814.19222 1.68376
3812.14378 1.67836
3810.09535 1.67795
3808.04691 1.68319
3805.99847 1.69019
3803.95003 1.69461
3801.90159 1.69801
3799.85315 1.69648
3797.80472 1.69256
3795.75628 1.68672
3793.70784 1.67907
3791.65940 1.67457
3789.61096 1.67461
3787.56252 1.67813
3785.51409 1.68182
3783.46565 1.68136
3781.41721 1.68008
3779.36877 1.68064
3777.32033 1.67793
3775.27189 1.67417
3773.22346 1.67505
3771.17502 1.68034
3769.12658 1.68398
3767.07814 1.68358
3765.02970 1.68301
3762.98126 1.68356
3760.93283 1.68777
3758.88439 1.69317
3756.83595 1.69246
3754.78751 1.69078
3752.73907 1.69509
3750.69063 1.70298
3748.64219 1.70240
3746.59376 1.69903
3744.54532 1.69783
3742.49688 1.69524
3740.44844 1.69335
3738.40000 1.69704
3736.35156 1.70475
3734.30313 1.70458
3732.25469 1.69452
3730.20625 1.68637
3728.15781 1.68554
3726.10937 1.69003
3724.06093 1.69223
3722.01250 1.68860
3719.96406 1.68302
3717.91562 1.67950
3715.86718 1.67995
3713.81874 1.68583
3711.77030 1.69489
3709.72187 1.69336
3707.67343 1.68398
3705.62499 1.67837
3703.57655 1.67811
3701.52811 1.67884
3699.47967 1.67756
3697.43124 1.67735
3695.38280 1.67884
3693.33436 1.68270
3691.28592 1.69038
3689.23748 1.69416
3687.18904 1.68723
3685.14061 1.68124
3683.09217 1.67903
3681.04373 1.67934
3678.99529 1.68211
3676.94685 1.68831
3674.89841 1.69327
3672.84998 1.69236
3670.80154 1.69312
3668.75310 1.68759
3666.70466 1.67631
3664.65622 1.67000
3662.60778 1.66856
3660.55935 1.66994
3658.51091 1.67437
3656.46247 1.67941
3654.41403 1.68034
3652.36559 1.68400
3650.31715 1.69737
3648.26872 1.70315
3646.22028 1.69081
3644.17184 1.68143
3642.12340 1.67682
3640.07496 1.67404
3638.02652 1.67186
3635.97809 1.67069
3633.92965 1.67316
3631.88121 1.67964
3629.83277 1.68769
3627.78433 1.68843
3625.73589 1.68144
3623.68746 1.67753
3621.63902 1.67975
3619.59058 1.68650
3617.54214 1.68981
3615.49370 1.68952
3613.44526 1.68910
3611.39682 1.68796
3609.34839 1.68694
3607.29995 1.68311
3605.25151 1.67786
3603.20307 1.67733
3601.15463 1.67961
3599.10619 1.68022
3597.05776 1.68124
3595.00932 1.68225
3592.96088 1.67914
3590.91244 1.67626
3588.86400 1.67970
3586.81556 1.68389
3584.76713 1.67896
3582.71869 1.67249
3580.67025 1.67013
3578.62181 1.67017
3576.57337 1.66986
3574.52493 1.66902
3572.47650 1.66936
3570.42806 1.67376
3568.37962 1.68261
3566.33118 1.68721
3564.28274 1.68228
3562.23430 1.67668
3560.18587 1.67303
3558.13743 1.67045
3556.08899 1.67014
3554.04055 1.67250
3551.99211 1.67425
3549.94367 1.67470
3547.89524 1.67706
3545.84680 1.67910
3543.79836 1.67643
3541.74992 1.67177
3539.70148 1.66957
3537.65304 1.67029
3535.60461 1.67065
3533.55617 1.67049
3531.50773 1.67201
3529.45929 1.67401
3527.41085 1.67483
3525.36241 1.67496
3523.31398 1.67389
3521.26554 1.67056
3519.21710 1.66747
3517.16866 1.66682
3515.12022 1.66787
3513.07178 1.67007
3511.02335 1.67260
3508.97491 1.67295
3506.92647 1.67247
3504.87803 1.67510
3502.82959 1.67712
3500.78115 1.67404
3498.73272 1.67059
3496.68428 1.66872
3494.63584 1.66706
3492.58740 1.66656
3490.53896 1.66661
3488.49052 1.66653
3486.44209 1.66687
3484.39365 1.66773
3482.34521 1.66952
3480.29677 1.67054
3478.24833 1.66947
3476.19989 1.66773
3474.15146 1.66632
3472.10302 1.66564
3470.05458 1.66604
3468.00614 1.66727
3465.95770 1.66832
3463.90926 1.66871
3461.86082 1.66847
3459.81239 1.66811
3457.76395 1.66807
3455.71551 1.66763
3453.66707 1.66625
3451.61863 1.66504
3449.57019 1.66595
3447.52176 1.66837
3445.47332 1.66979
3443.42488 1.66955
3441.37644 1.66820
3439.32800 1.66722
3437.27956 1.66769
3435.23113 1.66776
3433.18269 1.66708
3431.13425 1.66762
3429.08581 1.66875
3427.03737 1.66881
3424.98893 1.66847
3422.94050 1.66975
3420.89206 1.67122
3418.84362 1.66987
3416.79518 1.66760
3414.74674 1.66695
3412.69830 1.66595
3410.64987 1.66364
3408.60143 1.66285
3406.55299 1.66380
3404.50455 1.66430
3402.45611 1.66434
3400.40767 1.66526
3398.35924 1.66710
3396.31080 1.66786
3394.26236 1.66668
3392.21392 1.66490
3390.16548 1.66371
3388.11704 1.66409
3386.06861 1.66576
3384.02017 1.66644
3381.97173 1.66558
3379.92329 1.66505
3377.87485 1.66484
3375.82641 1.66395
3373.77798 1.66324
3371.72954 1.66337
3369.68110 1.66364
3367.63266 1.66357
3365.58422 1.66343
3363.53578 1.66398
3361.48735 1.66525
3359.43891 1.66624
3357.39047 1.66657
3355.34203 1.66599
3353.29359 1.66464
3351.24515 1.66414
3349.19672 1.66437
3347.14828 1.66432
3345.09984 1.66531
3343.05140 1.66759
3341.00296 1.66881
3338.95452 1.66834
3336.90609 1.66789
3334.85765 1.66762
3332.80921 1.66645
3330.76077 1.66497
3328.71233 1.66459
3326.66389 1.66555
3324.61545 1.66633
3322.56702 1.66616
3320.51858 1.66594
3318.47014 1.66560
3316.42170 1.66546
3314.37326 1.66650
3312.32482 1.66696
3310.27639 1.66595
3308.22795 1.66533
3306.17951 1.66493
3304.13107 1.66370
3302.08263 1.66288
3300.03419 1.66395
3297.98576 1.66538
3295.93732 1.66465
3293.88888 1.66282
3291.84044 1.66240
3289.79200 1.66316
3287.74356 1.66364
3285.69513 1.66364
3283.64669 1.66315
3281.59825 1.66195
3279.54981 1.66159
3277.50137 1.66386
3275.45293 1.66633
3273.40450 1.66618
3271.35606 1.66476
3269.30762 1.66379
3267.25918 1.66332
3265.21074 1.66290
3263.16230 1.66282
3261.11387 1.66271
3259.06543 1.66198
3257.01699 1.66225
3254.96855 1.66403
3252.92011 1.66496
3250.87167 1.66398
3248.82324 1.66332
3246.77480 1.66473
3244.72636 1.66596
3242.67792 1.66426
3240.62948 1.66185
3238.58104 1.66199
3236.53261 1.66408
3234.48417 1.66612
3232.43573 1.66675
3230.38729 1.66590
3228.33885 1.66476
3226.29041 1.66362
3224.24198 1.66274
3222.19354 1.66291
3220.14510 1.66345
3218.09666 1.66304
3216.04822 1.66244
3213.99978 1.66297
3211.95135 1.66323
3209.90291 1.66179
3207.85447 1.66033
3205.80603 1.66030
3203.75759 1.66137
3201.70915 1.66239
3199.66072 1.66184
3197.61228 1.65988
3195.56384 1.65851
3193.51540 1.65853
3191.46696 1.65885
3189.41852 1.65929
3187.37008 1.66019
3185.32165 1.66047
3183.27321 1.66003
3181.22477 1.66006
3179.17633 1.66020
3177.12789 1.65923
3175.07945 1.65799
3173.03102 1.65776
3170.98258 1.65789
3168.93414 1.65779
3166.88570 1.65742
3164.83726 1.65670
3162.78882 1.65614
3160.74039 1.65630
3158.69195 1.65661
3156.64351 1.65623
3154.59507 1.65550
3152.54663 1.65486
3150.49819 1.65490
3148.44976 1.65600
3146.40132 1.65669
3144.35288 1.65579
3142.30444 1.65401
3140.25600 1.65266
3138.20756 1.65264
3136.15913 1.65362
3134.11069 1.65441
3132.06225 1.65417
3130.01381 1.65359
3127.96537 1.65424
3125.91693 1.65523
3123.86850 1.65488
3121.82006 1.65403
3119.77162 1.65368
3117.72318 1.65372
3115.67474 1.65369
3113.62630 1.65312
3111.57787 1.65254
3109.52943 1.65222
3107.48099 1.65155
3105.43255 1.65072
3103.38411 1.64995
3101.33567 1.64902
3099.28724 1.64916
3097.23880 1.65072
3095.19036 1.65127
3093.14192 1.65013
3091.09348 1.64891
3089.04504 1.64782
3086.99661 1.64698
3084.94817 1.64660
3082.89973 1.64649
3080.85129 1.64721
3078.80285 1.64844
3076.75441 1.64883
3074.70598 1.64747
3072.65754 1.64538
3070.60910 1.64478
3068.56066 1.64550
3066.51222 1.64592
3064.46378 1.64610
3062.41535 1.64647
3060.36691 1.64641
3058.31847 1.64619
3056.27003 1.64611
3054.22159 1.64575
3052.17315 1.64602
3050.12471 1.64665
3048.07628 1.64613
3046.02784 1.64505
3043.97940 1.64480
3041.93096 1.64514
3039.88252 1.64528
3037.83408 1.64525
3035.78565 1.64533
3033.73721 1.64513
3031.68877 1.64459
3029.64033 1.64412
3027.59189 1.64401
3025.54345 1.64418
3023.49502 1.64400
3021.44658 1.64356
3019.39814 1.64329
3017.34970 1.64347
3015.30126 1.64448
3013.25282 1.64536
3011.20439 1.64497
3009.15595 1.64366
3007.10751 1.64302
3005.05907 1.64372
3003.01063 1.64407
3000.96219 1.64307
2998.91376 1.64185
2996.86532 1.64133
2994.81688 1.64152
2992.76844 1.64194
2990.72000 1.64221
2988.67156 1.64233
2986.62313 1.64228
2984.57469 1.64241
2982.52625 1.64240
2980.47781 1.64141
2978.42937 1.63990
2976.38093 1.63882
2974.33250 1.63886
2972.28406 1.63982
2970.23562 1.64048
2968.18718 1.64070
2966.13874 1.64102
2964.09030 1.64094
2962.04187 1.64046
2959.99343 1.64035
2957.94499 1.64033
2955.89655 1.64022
2953.84811 1.64006
2951.79967 1.63989
2949.75124 1.64028
2947.70280 1.64053
2945.65436 1.63997
2943.60592 1.63958
2941.55748 1.63975
2939.50904 1.63960
2937.46061 1.63914
2935.41217 1.63940
2933.36373 1.64001
2931.31529 1.64023
2929.26685 1.64026
2927.21841 1.63995
2925.16998 1.63901
2923.12154 1.63807
2921.07310 1.63801
2919.02466 1.63858
2916.97622 1.63923
2914.92778 1.63951
2912.87934 1.63878
2910.83091 1.63749
2908.78247 1.63637
2906.73403 1.63588
2904.68559 1.63654
2902.63715 1.63805
2900.58871 1.63890
2898.54028 1.63790
2896.49184 1.63655
2894.44340 1.63672
2892.39496 1.63743
2890.34652 1.63756
2888.29808 1.63723
2886.24965 1.63622
2884.20121 1.63483
2882.15277 1.63397
2880.10433 1.63373
2878.05589 1.63385
2876.00745 1.63461
2873.95902 1.63542
2871.91058 1.63510
2869.86214 1.63398
2867.81370 1.63338
2865.76526 1.63385
2863.71682 1.63500
2861.66839 1.63596
2859.61995 1.63576
2857.57151 1.63419
2855.52307 1.63264
2853.47463 1.63230
2851.42619 1.63266
2849.37776 1.63321
2847.32932 1.63354
2845.28088 1.63314
2843.23244 1.63272
2841.18400 1.63276
2839.13556 1.63275
2837.08713 1.63233
2835.03869 1.63146
2832.99025 1.63059
2830.94181 1.63007
2828.89337 1.62963
2826.84493 1.62929
2824.79650 1.62950
2822.74806 1.62994
2820.69962 1.62983
2818.65118 1.62955
2816.60274 1.62982
2814.55430 1.62989
2812.50587 1.62899
2810.45743 1.62797
2808.40899 1.62763
2806.36055 1.62764
2804.31211 1.62748
2802.26367 1.62744
2800.21524 1.62778
2798.16680 1.62769
2796.11836 1.62667
2794.06992 1.62589
2792.02148 1.62610
2789.97304 1.62669
2787.92461 1.62751
2785.87617 1.62776
2783.82773 1.62663
2781.77929 1.62555
2779.73085 1.62519
2777.68241 1.62505
2775.63397 1.62527
2773.58554 1.62551
2771.53710 1.62537
2769.48866 1.62514
2767.44022 1.62485
2765.39178 1.62440
2763.34334 1.62385
2761.29491 1.62348
2759.24647 1.62299
2757.19803 1.62203
2755.14959 1.62145
2753.10115 1.62184
2751.05271 1.62204
2749.00428 1.62130
2746.95584 1.62078
2744.90740 1.62097
2742.85896 1.62080
2740.81052 1.62009
2738.76208 1.61952
2736.71365 1.61945
2734.66521 1.62028
2732.61677 1.62129
2730.56833 1.62122
2728.51989 1.62082
2726.47145 1.62069
2724.42302 1.62022
2722.37458 1.61992
2720.32614 1.62026
2718.27770 1.62034
2716.22926 1.61987
2714.18082 1.61913
2712.13239 1.61849
2710.08395 1.61824
2708.03551 1.61808
2705.98707 1.61785
2703.93863 1.61764
2701.89019 1.61747
2699.84176 1.61719
2697.79332 1.61686
2695.74488 1.61660
2693.69644 1.61628
2691.64800 1.61583
2689.59956 1.61585
2687.55113 1.61644
2685.50269 1.61643
2683.45425 1.61590
2681.40581 1.61561
2679.35737 1.61518
2677.30893 1.61446
2675.26050 1.61387
2673.21206 1.61357
2671.16362 1.61401
2669.11518 1.61521
2667.06674 1.61592
2665.01830 1.61569
2662.96987 1.61499
2660.92143 1.61417
2658.87299 1.61365
2656.82455 1.61375
2654.77611 1.61392
2652.72767 1.61381
2650.67924 1.61401
2648.63080 1.61422
2646.58236 1.61395
2644.53392 1.61351
2642.48548 1.61289
2640.43704 1.61192
2638.38860 1.61135
2636.34017 1.61164
2634.29173 1.61209
2632.24329 1.61220
2630.19485 1.61169
2628.14641 1.61056
2626.09797 1.60954
2624.04954 1.60934
2622.00110 1.61019
2619.95266 1.61121
2617.90422 1.61108
2615.85578 1.61010
2613.80734 1.60943
2611.75891 1.60944
2609.71047 1.60913
2607.66203 1.60796
2605.61359 1.60760
2603.56515 1.60889
2601.51671 1.60996
2599.46828 1.60938
2597.41984 1.60879
2595.37140 1.60924
2593.32296 1.60918
2591.27452 1.60834
2589.22608 1.60773
2587.17765 1.60742
2585.12921 1.60708
2583.08077 1.60678
2581.03233 1.60645
2578.98389 1.60620
2576.93545 1.60643
2574.88702 1.60693
2572.83858 1.60712
2570.79014 1.60703
2568.74170 1.60709
2566.69326 1.60711
2564.64482 1.60684
2562.59639 1.60672
2560.54795 1.60684
2558.49951 1.60655
2556.45107 1.60580
2554.40263 1.60532
2552.35419 1.60545
2550.30576 1.60596
2548.25732 1.60642
2546.20888 1.60641
2544.16044 1.60608
2542.11200 1.60551
2540.06356 1.60485
2538.01513 1.60467
2535.96669 1.60456
2533.91825 1.60357
2531.86981 1.60279
2529.82137 1.60312
2527.77293 1.60348
2525.72450 1.60357
2523.67606 1.60371
2521.62762 1.60371
2519.57918 1.60361
2517.53074 1.60316
2515.48230 1.60233
2513.43387 1.60215
2511.38543 1.60270
2509.33699 1.60300
2507.28855 1.60309
2505.24011 1.60322
2503.19167 1.60296
2501.14324 1.60257
2499.09480 1.60285
2497.04636 1.60351
2494.99792 1.60392
2492.94948 1.60404
2490.90104 1.60392
2488.85260 1.60335
2486.80417 1.60207
2484.75573 1.60101
2482.70729 1.60094
2480.65885 1.60088
2478.61041 1.60022
2476.56197 1.59997
2474.51354 1.60057
2472.46510 1.60117
2470.41666 1.60135
2468.36822 1.60167
2466.31978 1.60218
2464.27134 1.60202
2462.22291 1.60163
2460.17447 1.60191
2458.12603 1.60223
2456.07759 1.60198
2454.02915 1.60163
2451.98071 1.60137
2449.93228 1.60110
2447.88384 1.60092
2445.83540 1.60027
2443.78696 1.59916
2441.73852 1.59880
2439.69008 1.59918
2437.64165 1.59959
2435.59321 1.60026
2433.54477 1.60097
2431.49633 1.60121
2429.44789 1.60059
2427.39945 1.59909
2425.35102 1.59819
2423.30258 1.59879
2421.25414 1.59964
2419.20570 1.59959
2417.15726 1.59900
2415.10882 1.59839
2413.06039 1.59783
2411.01195 1.59773
2408.96351 1.59791
2406.91507 1.59788
2404.86663 1.59800
2402.81819 1.59797
2400.76976 1.59748
2398.72132 1.59740
2396.67288 1.59781
2394.62444 1.59809
2392.57600 1.59826
2390.52756 1.59808
2388.47913 1.59730
2386.43069 1.59697
2384.38225 1.59799
2382.33381 1.59963
2380.28537 1.60067
2378.23693 1.60151
2376.18850 1.60368
2374.14006 1.60689
2372.09162 1.60934
2370.04318 1.61054
2367.99474 1.61185
2365.94630 1.61547
2363.89787 1.61947
2361.84943 1.61855
2359.80099 1.61628
2357.75255 1.61700
2355.70411 1.61721
2353.65567 1.61511
2351.60723 1.61207
2349.55880 1.61013
2347.51036 1.60989
2345.46192 1.61038
2343.41348 1.60987
2341.36504 1.60827
2339.31660 1.60695
2337.26817 1.60631
2335.21973 1.60662
2333.17129 1.60757
2331.12285 1.60755
2329.07441 1.60684
2327.02597 1.60664
2324.97754 1.60701
2322.92910 1.60744
2320.88066 1.60649
2318.83222 1.60458
2316.78378 1.60290
2314.73534 1.60129
2312.68691 1.59944
2310.63847 1.59757
2308.59003 1.59633
2306.54159 1.59543
2304.49315 1.59426
2302.44471 1.59289
2300.39628 1.59177
2298.34784 1.59095
2296.29940 1.59018
2294.25096 1.58986
2292.20252 1.59008
2290.15408 1.58997
2288.10565 1.58922
2286.05721 1.58808
2284.00877 1.58679
2281.96033 1.58625
2279.91189 1.58659
2277.86345 1.58705
2275.81502 1.58744
2273.76658 1.58732
2271.71814 1.58668
2269.66970 1.58584
2267.62126 1.58498
2265.57282 1.58490
2263.52439 1.58515
2261.47595 1.58475
2259.42751 1.58422
2257.37907 1.58413
2255.33063 1.58414
2253.28219 1.58375
2251.23376 1.58303
2249.18532 1.58253
2247.13688 1.58237
2245.08844 1.58213
2243.04000 1.58180
2240.99156 1.58152
2238.94313 1.58113
2236.89469 1.58082
2234.84625 1.58092
2232.79781 1.58075
2230.74937 1.58012
2228.70093 1.58003
2226.65250 1.58000
2224.60406 1.57913
2222.55562 1.57844
2220.50718 1.57848
2218.45874 1.57842
2216.41030 1.57813
2214.36186 1.57795
2212.31343 1.57778
2210.26499 1.57754
2208.21655 1.57719
2206.16811 1.57659
2204.11967 1.57590
2202.07123 1.57561
2200.02280 1.57552
2197.97436 1.57528
2195.92592 1.57508
2193.87748 1.57479
2191.82904 1.57433
2189.78060 1.57427
2187.73217 1.57459
2185.68373 1.57467
2183.63529 1.57414
2181.58685 1.57317
2179.53841 1.57254
2177.48997 1.57242
2175.44154 1.57193
2173.39310 1.57071
2171.34466 1.56966
2169.29622 1.56948
2167.24778 1.56958
2165.19934 1.56951
2163.15091 1.56949
2161.10247 1.56941
2159.05403 1.56927
2157.00559 1.56918
2154.95715 1.56918
2152.90871 1.56928
2150.86028 1.56908
2148.81184 1.56844
2146.76340 1.56754
2144.71496 1.56684
2142.66652 1.56690
2140.61808 1.56764
2138.56965 1.56805
2136.52121 1.56743
2134.47277 1.56653
2132.42433 1.56585
2130.37589 1.56522
2128.32745 1.56499
2126.27902 1.56526
2124.23058 1.56560
2122.18214 1.56529
2120.13370 1.56462
2118.08526 1.56445
2116.03682 1.56445
2113.98839 1.56402
2111.93995 1.56338
2109.89151 1.56289
2107.84307 1.56268
2105.79463 1.56273
2103.74619 1.56278
2101.69776 1.56246
2099.64932 1.56190
2097.60088 1.56158
2095.55244 1.56130
2093.50400 1.56074
2091.45556 1.56030
2089.40713 1.56024
2087.35869 1.56008
2085.31025 1.55958
2083.26181 1.55917
2081.21337 1.55893
2079.16493 1.55861
2077.11649 1.55871
2075.06806 1.55916
2073.01962 1.55886
2070.97118 1.55801
2068.92274 1.55766
2066.87430 1.55805
2064.82586 1.55831
2062.77743 1.55764
2060.72899 1.55680
2058.68055 1.55626
2056.63211 1.55574
2054.58367 1.55499
2052.53523 1.55423
2050.48680 1.55400
2048.43836 1.55400
2046.38992 1.55376
2044.34148 1.55364
2042.29304 1.55386
2040.24460 1.55350
2038.19617 1.55267
2036.14773 1.55260
2034.09929 1.55307
2032.05085 1.55310
2030.00241 1.55258
2027.95397 1.55208
2025.90554 1.55172
2023.85710 1.55146
2021.80866 1.55129
2019.76022 1.55161
2017.71178 1.55201
2015.66334 1.55081
2013.61491 1.54883
2011.56647 1.54794
2009.51803 1.54811
2007.46959 1.54840
2005.42115 1.54824
2003.37271 1.54769
2001.32428 1.54703
1999.27584 1.54619
1997.22740 1.54518
1995.17896 1.54586
1993.13052 1.54888
1991.08208 1.55046
1989.03365 1.54895
1986.98521 1.54677
1984.93677 1.54527
1982.88833 1.54468
1980.83989 1.54435
1978.79145 1.54389
1976.74302 1.54362
1974.69458 1.54323
1972.64614 1.54235
1970.59770 1.54219
1968.54926 1.54372
1966.50082 1.54440
1964.45239 1.54252
1962.40395 1.54041
1960.35551 1.53953
1958.30707 1.53971
1956.25863 1.54024
1954.21019 1.54017
1952.16176 1.53954
1950.11332 1.53878
1948.06488 1.53858
1946.01644 1.53999
1943.96800 1.54247
1941.91956 1.54259
1939.87112 1.53934
1937.82269 1.53659
1935.77425 1.53577
1933.72581 1.53532
1931.67737 1.53443
1929.62893 1.53362
1927.58049 1.53369
1925.53206 1.53583
1923.48362 1.53911
1921.43518 1.53962
1919.38674 1.53843
1917.33830 1.53699
1915.28986 1.53412
1913.24143 1.53259
1911.19299 1.53393
1909.14455 1.53516
1907.09611 1.53378
1905.04767 1.53155
1902.99923 1.53032
1900.95080 1.52967
1898.90236 1.52972
1896.85392 1.53099
1894.80548 1.53178
1892.75704 1.53129
1890.70860 1.53147
1888.66017 1.53120
1886.61173 1.52932
1884.56329 1.52766
1882.51485 1.52659
1880.46641 1.52595
1878.41797 1.52550
1876.36954 1.52495
1874.32110 1.52480
1872.27266 1.52697
1870.22422 1.53279
1868.17578 1.53586
1866.12734 1.53032
1864.07891 1.52439
1862.03047 1.52240
1859.98203 1.52226
1857.93359 1.52181
1855.88515 1.52092
1853.83671 1.52032
1851.78828 1.52042
1849.73984 1.52165
1847.69140 1.52423
1845.64296 1.52773
1843.59452 1.52795
1841.54608 1.52306
1839.49765 1.51947
1837.44921 1.51885
1835.40077 1.51845
1833.35233 1.51888
1831.30389 1.52291
1829.25545 1.52636
1827.20702 1.52488
1825.15858 1.52249
1823.11014 1.51910
1821.06170 1.51540
1819.01326 1.51364
1816.96482 1.51334
1814.91639 1.51395
1812.86795 1.51593
1810.81951 1.51723
1808.77107 1.51545
1806.72263 1.51306
1804.67419 1.51303
1802.62575 1.51605
1800.57732 1.51890
1798.52888 1.51825
1796.48044 1.51734
1794.43200 1.51927
1792.38356 1.52187
1790.33512 1.51804
1788.28669 1.51183
1786.23825 1.50922
1784.18981 1.50941
1782.14137 1.51145
1780.09293 1.51321
1778.04449 1.51221
1775.99606 1.51298
1773.94762 1.51900
1771.89918 1.52396
1769.85074 1.51944
1767.80230 1.51203
1765.75386 1.50774
1763.70543 1.50826
1761.65699 1.51056
1759.60855 1.51053
1757.56011 1.50963
1755.51167 1.50786
1753.46323 1.50834
1751.41480 1.51577
1749.36636 1.52356
1747.31792 1.52171
1745.26948 1.51720
1743.22104 1.51420
1741.17260 1.51188
1739.12417 1.51033
1737.07573 1.51087
1735.02729 1.51606
1732.97885 1.51946
1730.93041 1.51262
1728.88197 1.50404
1726.83354 1.49942
1724.78510 1.49926
1722.73666 1.50051
1720.68822 1.50375
1718.63978 1.51335
1716.59134 1.52211
1714.54291 1.51501
1712.49447 1.50538
1710.44603 1.50159
1708.39759 1.50411
1706.34915 1.51007
1704.30071 1.51295
1702.25228 1.51386
1700.20384 1.51918
1698.15540 1.52316
1696.10696 1.51696
1694.05852 1.50623
1692.01008 1.50148
1689.96165 1.50326
1687.91321 1.50751
1685.86477 1.51348
1683.81633 1.51861
1681.76789 1.51248
1679.71945 1.50448
1677.67102 1.50076
1675.62258 1.50243
1673.57414 1.50617
1671.52570 1.50988
1669.47726 1.50984
1667.42882 1.50210
1665.38038 1.49793
1663.33195 1.49935
1661.28351 1.49802
1659.23507 1.49427
1657.18663 1.49518
1655.13819 1.50224
1653.08975 1.51123
1651.04132 1.51049
1648.99288 1.51223
1646.94444 1.51423
1644.89600 1.50470
1642.84756 1.49638
1640.79912 1.49479
1638.75069 1.49896
1636.70225 1.50601
1634.65381 1.50257
1632.60537 1.49364
1630.55693 1.49082
1628.50849 1.49290
1626.46006 1.49565
1624.41162 1.49789
1622.36318 1.49745
1620.31474 1.49499
1618.26630 1.49647
1616.21786 1.49747
1614.16943 1.49148
1612.12099 1.48741
1610.07255 1.48792
1608.02411 1.48872
1605.97567 1.48751
1603.92723 1.48646
1601.87880 1.48569
1599.83036 1.48440
1597.78192 1.48389
1595.73348 1.48438
1593.68504 1.48417
1591.63660 1.48329
1589.58817 1.48250
1587.53973 1.48176
1585.49129 1.48132
1583.44285 1.48130
1581.39441 1.48207
1579.34597 1.48553
1577.29754 1.49256
1575.24910 1.49424
1573.20066 1.48959
1571.15222 1.48946
1569.10378 1.49165
1567.05534 1.48995
1565.00691 1.48871
1562.95847 1.48997
1560.91003 1.49557
1558.86159 1.50888
1556.81315 1.50876
1554.76471 1.50047
1552.71628 1.49424
1550.66784 1.49117
1548.61940 1.48952
1546.57096 1.49227
1544.52252 1.50362
1542.47408 1.51872
1540.42565 1.52157
1538.37721 1.50549
1536.32877 1.49696
1534.28033 1.49646
1532.23189 1.49395
1530.18345 1.48967
1528.13501 1.49113
1526.08658 1.49694
1524.03814 1.50284
1521.98970 1.50690
1519.94126 1.50416
1517.89282 1.50009
1515.84438 1.49523
1513.79595 1.48985
1511.74751 1.49037
1509.69907 1.49917
1507.65063 1.50947
1505.60219 1.49643
1503.55375 1.48253
1501.50532 1.47881
1499.45688 1.48148
1497.40844 1.48476
1495.36000 1.48097
1493.31156 1.47785
1491.26312 1.48279
1489.21469 1.48891
1487.16625 1.48209
1485.11781 1.47224
1483.06937 1.46801
1481.02093 1.46783
1478.97249 1.46869
1476.92406 1.47216
1474.87562 1.47996
1472.82718 1.48379
1470.77874 1.47498
1468.73030 1.46757
1466.68186 1.46757
1464.63343 1.46948
1462.58499 1.46810
1460.53655 1.47013
1458.48811 1.47993
1456.43967 1.48316
1454.39123 1.47269
1452.34280 1.46527
1450.29436 1.46286
1448.24592 1.46290
1446.19748 1.46088
1444.14904 1.45775
1442.10060 1.45650
1440.05217 1.45804
1438.00373 1.46293
1435.95529 1.46627
1433.90685 1.46350
1431.85841 1.46137
1429.80997 1.46066
1427.76154 1.45894
1425.71310 1.45889
1423.66466 1.46049
1421.61622 1.46192
1419.56778 1.46522
1417.51934 1.46411
1415.47091 1.45721
1413.42247 1.45315
1411.37403 1.45220
1409.32559 1.45139
1407.27715 1.45133
1405.22871 1.45242
1403.18028 1.45252
1401.13184 1.45387
1399.08340 1.45796
1397.03496 1.46090
1394.98652 1.45936
1392.93808 1.45392
1390.88965 1.45055
1388.84121 1.45184
1386.79277 1.45228
1384.74433 1.44820
1382.69589 1.44532
1380.64745 1.44563
1378.59901 1.44711
1376.55058 1.44988
1374.50214 1.45220
1372.45370 1.44985
1370.40526 1.44677
1368.35682 1.44574
1366.30838 1.44567
1364.25995 1.44794
1362.21151 1.44944
1360.16307 1.44602
1358.11463 1.44277
1356.06619 1.44188
1354.01775 1.44127
1351.96932 1.44038
1349.92088 1.43977
1347.87244 1.43920
1345.82400 1.43883
1343.77556 1.43989
1341.72712 1.44399
1339.67869 1.44833
1337.63025 1.44666
1335.58181 1.44187
1333.53337 1.43894
1331.48493 1.43790
1329.43649 1.43755
1327.38806 1.43730
1325.33962 1.43704
1323.29118 1.43723
1321.24274 1.43903
1319.19430 1.44157
1317.14586 1.44209
1315.09743 1.44103
1313.04899 1.43996
1311.00055 1.43875
1308.95211 1.43769
1306.90367 1.43690
1304.85523 1.43629
1302.80680 1.43587
1300.75836 1.43549
1298.70992 1.43548
1296.66148 1.43560
1294.61304 1.43527
1292.56460 1.43512
1290.51617 1.43584
1288.46773 1.43648
1286.41929 1.43590
1284.37085 1.43507
1282.32241 1.43496
1280.27397 1.43500
1278.22554 1.43461
1276.17710 1.43386
1274.12866 1.43383
1272.08022 1.43489
1270.03178 1.43534
1267.98334 1.43465
1265.93491 1.43400
1263.88647 1.43381
1261.83803 1.43386
1259.78959 1.43371
1257.74115 1.43322
1255.69271 1.43260
1253.64428 1.43188
1251.59584 1.43144
1249.54740 1.43152
1247.49896 1.43159
1245.45052 1.43160
1243.40208 1.43181
1241.35364 1.43178
1239.30521 1.43129
1237.25677 1.43085
1235.20833 1.43085
1233.15989 1.43082
1231.11145 1.43023
1229.06301 1.42979
1227.01458 1.42990
1224.96614 1.42959
1222.91770 1.42868
1220.86926 1.42816
1218.82082 1.42813
1216.77238 1.42778
1214.72395 1.42706
1212.67551 1.42655
1210.62707 1.42620
1208.57863 1.42596
1206.53019 1.42572
1204.48175 1.42515
1202.43332 1.42454
1200.38488 1.42423
1198.33644 1.42382
1196.28800 1.42311
1194.23956 1.42241
1192.19112 1.42182
1190.14269 1.42136
1188.09425 1.42092
1186.04581 1.42041
1183.99737 1.41960
1181.94893 1.41834
1179.90049 1.41692
1177.85206 1.41614
1175.80362 1.41615
1173.75518 1.41579
1171.70674 1.41467
1169.65830 1.41374
1167.60986 1.41337
1165.56143 1.41311
1163.51299 1.41252
1161.46455 1.41137
1159.41611 1.41023
1157.36767 1.40970
1155.31923 1.40940
1153.27080 1.40883
1151.22236 1.40797
1149.17392 1.40702
1147.12548 1.40631
1145.07704 1.40607
1143.02860 1.40569
1140.98017 1.40485
1138.93173 1.40413
1136.88329 1.40372
1134.83485 1.40325
1132.78641 1.40252
1130.73797 1.40167
1128.68954 1.40108
1126.64110 1.40063
1124.59266 1.39996
1122.54422 1.39937
1120.49578 1.39919
1118.44734 1.39927
1116.39891 1.39961
1114.35047 1.39977
1112.30203 1.39914
1110.25359 1.39813
1108.20515 1.39739
1106.15671 1.39672
1104.10827 1.39575
1102.05984 1.39459
1100.01140 1.39334
1097.96296 1.39193
1095.91452 1.39066
1093.86608 1.38995
1091.81764 1.38959
1089.76921 1.38918
1087.72077 1.38855
1085.67233 1.38767
1083.62389 1.38658
1081.57545 1.38535
1079.52701 1.38426
1077.47858 1.38349
1075.43014 1.38279
1073.38170 1.38204
1071.33326 1.38122
1069.28482 1.38004
1067.23638 1.37840
1065.18795 1.37666
1063.13951 1.37553
1061.09107 1.37502
1059.04263 1.37422
1056.99419 1.37322
1054.94575 1.37252
1052.89732 1.37191
1050.84888 1.37161
1048.80044 1.37154
1046.75200 1.37080
1044.70356 1.36944
1042.65512 1.36843
1040.60669 1.36794
1038.55825 1.36758
1036.50981 1.36706
1034.46137 1.36656
1032.41293 1.36668
1030.36449 1.36761
1028.31606 1.36913
1026.26762 1.37055
1024.21918 1.37149
1022.17074 1.37213
1020.12230 1.37226
1018.07386 1.37196
1016.02543 1.37168
1013.97699 1.37150
1011.92855 1.37147
1009.88011 1.37160
1007.83167 1.37221
1005.78323 1.37389
1003.73480 1.37673
1001.68636 1.37966
999.63792 1.38112
997.58948 1.38091
995.54104 1.38023
993.49260 1.37972
991.44417 1.37909
989.39573 1.37838
987.34729 1.37760
985.29885 1.37681
983.25041 1.37651
981.20197 1.37634
979.15354 1.37572
977.10510 1.37502
975.05666 1.37455
973.00822 1.37384
970.95978 1.37263
968.91134 1.37162
966.86290 1.37091
964.81447 1.36994
962.76603 1.36900
960.71759 1.36817
958.66915 1.36714
956.62071 1.36605
954.57227 1.36507
952.52384 1.36432
950.47540 1.36373
948.42696 1.36294
946.37852 1.36164
944.33008 1.36015
942.28164 1.35931
940.23321 1.35912
938.18477 1.35889
936.13633 1.35847
934.08789 1.35770
932.03945 1.35636
929.99101 1.35473
927.94258 1.35357
925.89414 1.35313
923.84570 1.35297
921.79726 1.35288
919.74882 1.35255
917.70038 1.35200
915.65195 1.35189
913.60351 1.35212
911.55507 1.35263
909.50663 1.35368
907.45819 1.35457
905.40975 1.35449
903.36132 1.35370
901.31288 1.35304
899.26444 1.35282
897.21600 1.35297
895.16756 1.35332
893.11912 1.35345
891.07069 1.35338
889.02225 1.35343
886.97381 1.35350
884.92537 1.35398
882.87693 1.35472
880.82849 1.35463
878.78006 1.35411
876.73162 1.35417
874.68318 1.35445
872.63474 1.35430
870.58630 1.35386
868.53786 1.35358
866.48943 1.35396
864.44099 1.35512
862.39255 1.35617
860.34411 1.35596
858.29567 1.35490
856.24723 1.35467
854.19880 1.35541
852.15036 1.35574
850.10192 1.35528
848.05348 1.35456
846.00504 1.35403
843.95660 1.35361
841.90817 1.35282
839.85973 1.35223
837.81129 1.35220
835.76285 1.35203
833.71441 1.35205
831.66597 1.35274
829.61753 1.35327
827.56910 1.35285
825.52066 1.35162
823.47222 1.35075
821.42378 1.35056
819.37534 1.35028
817.32690 1.35029
815.27847 1.35135
813.23003 1.35254
811.18159 1.35282
809.13315 1.35304
807.08471 1.35370
805.03627 1.35434
802.98784 1.35459
800.93940 1.35477
798.89096 1.35516
796.84252 1.35520
794.79408 1.35478
792.74564 1.35413
790.69721 1.35430
788.64877 1.35618
786.60033 1.35785
784.55189 1.35720
782.50345 1.35569
780.45501 1.35604
778.40658 1.35799
776.35814 1.35874
774.30970 1.35727
772.26126 1.35533
770.21282 1.35408
768.16438 1.35336
766.11595 1.35246
764.06751 1.35125
762.01907 1.35074
759.97063 1.35102
757.92219 1.35147
755.87375 1.35183
753.82532 1.35134
751.77688 1.34999
749.72844 1.34903
747.68000 1.34863
745.63156 1.34805
743.58312 1.34672
741.53469 1.34509
739.48625 1.34405
737.43781 1.34333
735.38937 1.34294
733.34093 1.34311
731.29249 1.34351
729.24406 1.34308
727.19562 1.34061
725.14718 1.33797
723.09874 1.33807
721.05030 1.33872
719.00186 1.33621
716.95343 1.33292
714.90499 1.33180
712.85655 1.33034
710.80811 1.32736
708.75967 1.32583
706.71123 1.32648
704.66280 1.32623
702.61436 1.32288
700.56592 1.31889
698.51748 1.31736
696.46904 1.31738
694.42060 1.31736
692.37216 1.31797
690.32373 1.31955
688.27529 1.31953
686.22685 1.31646
684.17841 1.31329
682.12997 1.31143
680.08153 1.30943
678.03310 1.30737
675.98466 1.30585
673.93622 1.30473
671.88778 1.30316
669.83934 1.29841
667.79090 1.29195
665.74247 1.29114
663.69403 1.29114
661.64559 1.29054
659.59715 1.29020
657.54871 1.28775
655.50027 1.28347
653.45184 1.27815
651.40340 1.27081
649.35496 1.26065
647.30652 1.25076
645.25808 1.24568
643.20964 1.24248
641.16121 1.23744
639.11277 1.23097
637.06433 1.22175
635.01589 1.21291
632.96745 1.20778
630.91901 1.20296
628.87058 1.19735
626.82214 1.19078
624.77370 1.18581
622.72526 1.18384
620.67682 1.17834
618.62838 1.17011
616.57995 1.16517
614.53151 1.16326
612.48307 1.15998
610.43463 1.15178
608.38619 1.14658
606.33775 1.14675
604.28932 1.14436
602.24088 1.14018
600.19244 1.13112
598.14400 1.11742
