3996.50324 1.75813
3994.45480 1.76066
3992.40636 1.76183
3990.35792 1.76194
3988.30948 1.76215
3986.26104 1.76234
3984.21261 1.76321
3982.16417 1.76481
3980.11573 1.76599
3978.06729 1.76554
3976.01885 1.76390
3973.97041 1.76250
3971.92198 1.76215
3969.87354 1.76164
3967.82510 1.76052
3965.77666 1.76044
3963.72822 1.76075
3961.67978 1.76060
3959.63135 1.76127
3957.58291 1.76258
3955.53447 1.76313
3953.48603 1.76291
3951.43759 1.76355
3949.38915 1.76467
3947.34072 1.76412
3945.29228 1.76331
3943.24384 1.76280
3941.19540 1.76132
3939.14696 1.76070
3937.09852 1.76260
3935.05009 1.76598
3933.00165 1.76873
3930.95321 1.76938
3928.90477 1.76816
3926.85633 1.76721
3924.80789 1.76755
3922.75946 1.76674
3920.71102 1.76479
3918.66258 1.76470
3916.61414 1.76523
3914.56570 1.76428
3912.51726 1.76358
3910.46883 1.76404
3908.42039 1.76602
3906.37195 1.76949
3904.32351 1.77216
3902.27507 1.77314
3900.22663 1.77232
3898.17820 1.76711
3896.12976 1.76310
3894.08132 1.76500
3892.03288 1.76993
3889.98444 1.77094
3887.93600 1.76965
3885.88756 1.77028
3883.83913 1.77196
3881.79069 1.77433
3879.74225 1.77551
3877.69381 1.77361
3875.64537 1.77177
3873.59693 1.77016
3871.54850 1.76972
3869.50006 1.77187
3867.45162 1.77378
3865.40318 1.77466
3863.35474 1.77216
3861.30630 1.76699
3859.25787 1.76501
3857.20943 1.76631
3855.16099 1.76960
3853.11255 1.77562
3851.06411 1.77493
3849.01567 1.76950
3846.96724 1.76690
3844.91880 1.76896
3842.87036 1.77384
3840.82192 1.78050
3838.77348 1.78685
3836.72504 1.78525
3834.67661 1.77931
3832.62817 1.77566
3830.57973 1.77389
3828.53129 1.77264
3826.48285 1.77179
3824.43441 1.77261
3822.38598 1.77725
3820.33754 1.78039
3818.28910 1.77575
3816.24066 1.77217
3814.19222 1.77086
3812.14378 1.76822
3810.09535 1.76659
3808.04691 1.76921
3805.99847 1.77364
3803.95003 1.77459
3801.90159 1.77410
3799.85315 1.77486
3797.80472 1.77568
3795.75628 1.77254
3793.70784 1.76679
3791.65940 1.76391
3789.61096 1.76407
3787.56252 1.76582
3785.51409 1.76800
3783.46565 1.76890
3781.41721 1.76991
3779.36877 1.77134
3777.32033 1.76984
3775.27189 1.76722
3773.22346 1.76711
3771.17502 1.76929
3769.12658 1.77097
3767.07814 1.77177
3765.02970 1.77140
3762.98126 1.76958
3760.93283 1.77004
3758.88439 1.77239
3756.83595 1.77281
3754.78751 1.77383
3752.73907 1.77778
3750.69063 1.78127
3748.64219 1.78086
3746.59376 1.78205
3744.54532 1.78399
3742.49688 1.78181
3740.44844 1.77997
3738.40000 1.78332
3736.35156 1.79115
3734.30313 1.79200
3732.25469 1.78475
3730.20625 1.77886
3728.15781 1.77692
3726.10937 1.78011
3724.06093 1.78340
3722.01250 1.78080
3719.96406 1.77591
3717.91562 1.77252
3715.86718 1.77142
3713.81874 1.77397
3711.77030 1.77831
3709.72187 1.77809
3707.67343 1.77646
3705.62499 1.77619
3703.57655 1.77680
3701.52811 1.77742
3699.47967 1.77462
3697.43124 1.77071
3695.38280 1.76980
3693.33436 1.77160
3691.28592 1.77532
3689.23748 1.77951
3687.18904 1.77835
3685.14061 1.77464
3683.09217 1.77387
3681.04373 1.77650
3678.99529 1.77996
3676.94685 1.78308
3674.89841 1.78577
3672.84998 1.78728
3670.80154 1.78817
3668.75310 1.78632
3666.70466 1.78299
3664.65622 1.78142
3662.60778 1.78118
3660.55935 1.78107
3658.51091 1.78163
3656.46247 1.78369
3654.41403 1.78594
3652.36559 1.78872
3650.31715 1.79439
3648.26872 1.79801
3646.22028 1.79431
3644.17184 1.79029
3642.12340 1.78925
3640.07496 1.79137
3638.02652 1.79433
3635.97809 1.79663
3633.92965 1.79966
3631.88121 1.80476
3629.83277 1.81110
3627.78433 1.81242
3625.73589 1.80775
3623.68746 1.80396
3621.63902 1.80512
3619.59058 1.81363
3617.54214 1.82036
3615.49370 1.82048
3613.44526 1.82110
3611.39682 1.82309
3609.34839 1.82396
3607.29995 1.82324
3605.25151 1.82188
3603.20307 1.82208
3601.15463 1.82468
3599.10619 1.82690
3597.05776 1.82860
3595.00932 1.83116
3592.96088 1.83252
3590.91244 1.83361
3588.86400 1.83647
3586.81556 1.83877
3584.76713 1.83753
3582.71869 1.83547
3580.67025 1.83589
3578.62181 1.83953
3576.57337 1.84232
3574.52493 1.84226
3572.47650 1.84270
3570.42806 1.84593
3568.37962 1.85174
3566.33118 1.85586
3564.28274 1.85572
3562.23430 1.85640
3560.18587 1.85771
3558.13743 1.85665
3556.08899 1.85584
3554.04055 1.85952
3551.99211 1.86426
3549.94367 1.86503
3547.89524 1.86568
3545.84680 1.86883
3543.79836 1.86948
3541.74992 1.86682
3539.70148 1.86595
3537.65304 1.86790
3535.60461 1.86965
3533.55617 1.86987
3531.50773 1.87041
3529.45929 1.87214
3527.41085 1.87334
3525.36241 1.87286
3523.31398 1.87154
3521.26554 1.87061
3519.21710 1.87103
3517.16866 1.87258
3515.12022 1.87347
3513.07178 1.87362
3511.02335 1.87596
3508.97491 1.87979
3506.92647 1.88070
3504.87803 1.88071
3502.82959 1.88220
3500.78115 1.88249
3498.73272 1.88275
3496.68428 1.88452
3494.63584 1.88535
3492.58740 1.88411
3490.53896 1.88345
3488.49052 1.88630
3486.44209 1.89077
3484.39365 1.89185
3482.34521 1.88966
3480.29677 1.88864
3478.24833 1.88845
3476.19989 1.88700
3474.15146 1.88522
3472.10302 1.88423
3470.05458 1.88602
3468.00614 1.88949
3465.95770 1.89194
3463.90926 1.89460
3461.86082 1.89659
3459.81239 1.89707
3457.76395 1.89833
3455.71551 1.89961
3453.66707 1.89935
3451.61863 1.89919
3449.57019 1.89970
3447.52176 1.89932
3445.47332 1.89955
3443.42488 1.90046
3441.37644 1.89881
3439.32800 1.89704
3437.27956 1.89810
3435.23113 1.89918
3433.18269 1.89938
3431.13425 1.90042
3429.08581 1.90032
3427.03737 1.89805
3424.98893 1.89719
3422.94050 1.89817
3420.89206 1.89988
3418.84362 1.90333
3416.79518 1.90626
3414.74674 1.90573
3412.69830 1.90367
3410.64987 1.90292
3408.60143 1.90285
3406.55299 1.90269
3404.50455 1.90380
3402.45611 1.90631
3400.40767 1.90764
3398.35924 1.90596
3396.31080 1.90335
3394.26236 1.90321
3392.21392 1.90514
3390.16548 1.90696
3388.11704 1.90849
3386.06861 1.90893
3384.02017 1.90790
3381.97173 1.90713
3379.92329 1.90698
3377.87485 1.90724
3375.82641 1.90765
3373.77798 1.90730
3371.72954 1.90602
3369.68110 1.90500
3367.63266 1.90567
3365.58422 1.90694
3363.53578 1.90790
3361.48735 1.90930
3359.43891 1.91022
3357.39047 1.91011
3355.34203 1.90933
3353.29359 1.90832
3351.24515 1.90915
3349.19672 1.91154
3347.14828 1.91125
3345.09984 1.90864
3343.05140 1.90824
3341.00296 1.90960
3338.95452 1.91194
3336.90609 1.91478
3334.85765 1.91464
3332.80921 1.91282
3330.76077 1.91158
3328.71233 1.90959
3326.66389 1.90743
3324.61545 1.90756
3322.56702 1.91027
3320.51858 1.91266
3318.47014 1.91296
3316.42170 1.91234
3314.37326 1.91126
3312.32482 1.90920
3310.27639 1.90912
3308.22795 1.91173
3306.17951 1.91292
3304.13107 1.91324
3302.08263 1.91384
3300.03419 1.91301
3297.98576 1.91194
3295.93732 1.91321
3293.88888 1.91591
3291.84044 1.91648
3289.79200 1.91489
3287.74356 1.91379
3285.69513 1.91297
3283.64669 1.91232
3281.59825 1.91339
3279.54981 1.91415
3277.50137 1.91394
3275.45293 1.91515
3273.40450 1.91649
3271.35606 1.91667
3269.30762 1.91557
3267.25918 1.91426
3265.21074 1.91510
3263.16230 1.91628
3261.11387 1.91514
3259.06543 1.91270
3257.01699 1.91194
3254.96855 1.91411
3252.92011 1.91623
3250.87167 1.91737
3248.82324 1.91838
3246.77480 1.91813
3244.72636 1.91745
3242.67792 1.91722
3240.62948 1.91662
3238.58104 1.91543
3236.53261 1.91456
3234.48417 1.91505
3232.43573 1.91535
3230.38729 1.91387
3228.33885 1.91267
3226.29041 1.91422
3224.24198 1.91720
3222.19354 1.91792
3220.14510 1.91573
3218.09666 1.91331
3216.04822 1.91200
3213.99978 1.91175
3211.95135 1.91219
3209.90291 1.91235
3207.85447 1.91279
3205.80603 1.91475
3203.75759 1.91601
3201.70915 1.91534
3199.66072 1.91486
3197.61228 1.91498
3195.56384 1.91507
3193.51540 1.91442
3191.46696 1.91280
3189.41852 1.91182
3187.37008 1.91265
3185.32165 1.91391
3183.27321 1.91329
3181.22477 1.91170
3179.17633 1.91161
3177.12789 1.91132
3175.07945 1.90916
3173.03102 1.90811
3170.98258 1.90825
3168.93414 1.90798
3166.88570 1.90882
3164.83726 1.91064
3162.78882 1.91132
3160.74039 1.90983
3158.69195 1.90716
3156.64351 1.90525
3154.59507 1.90460
3152.54663 1.90465
3150.49819 1.90512
3148.44976 1.90576
3146.40132 1.90589
3144.35288 1.90486
3142.30444 1.90409
3140.25600 1.90402
3138.20756 1.90302
3136.15913 1.90204
3134.11069 1.90145
3132.06225 1.90019
3130.01381 1.89938
3127.96537 1.89973
3125.91693 1.90049
3123.86850 1.90018
3121.82006 1.89869
3119.77162 1.89710
3117.72318 1.89572
3115.67474 1.89520
3113.62630 1.89503
3111.57787 1.89389
3109.52943 1.89279
3107.48099 1.89236
3105.43255 1.89196
3103.38411 1.89222
3101.33567 1.89285
3099.28724 1.89253
3097.23880 1.89137
3095.19036 1.88989
3093.14192 1.88879
3091.09348 1.88831
3089.04504 1.88755
3086.99661 1.88635
3084.94817 1.88576
3082.89973 1.88580
3080.85129 1.88540
3078.80285 1.88436
3076.75441 1.88331
3074.70598 1.88205
3072.65754 1.88074
3070.60910 1.88063
3068.56066 1.88066
3066.51222 1.87897
3064.46378 1.87735
3062.41535 1.87771
3060.36691 1.87824
3058.31847 1.87761
3056.27003 1.87675
3054.22159 1.87593
3052.17315 1.87593
3050.12471 1.87683
3048.07628 1.87635
3046.02784 1.87472
3043.97940 1.87356
3041.93096 1.87269
3039.88252 1.87204
3037.83408 1.87167
3035.78565 1.87124
3033.73721 1.87015
3031.68877 1.86785
3029.64033 1.86553
3027.59189 1.86462
3025.54345 1.86497
3023.49502 1.86570
3021.44658 1.86540
3019.39814 1.86431
3017.34970 1.86347
3015.30126 1.86258
3013.25282 1.86222
3011.20439 1.86251
3009.15595 1.86204
3007.10751 1.86076
3005.05907 1.85952
3003.01063 1.85871
3000.96219 1.85800
2998.91376 1.85663
2996.86532 1.85526
2994.81688 1.85473
2992.76844 1.85464
2990.72000 1.85476
2988.67156 1.85459
2986.62313 1.85427
2984.57469 1.85389
2982.52625 1.85297
2980.47781 1.85188
2978.42937 1.85073
2976.38093 1.84951
2974.33250 1.84921
2972.28406 1.84981
2970.23562 1.84927
2968.18718 1.84703
2966.13874 1.84472
2964.09030 1.84291
2962.04187 1.84195
2959.99343 1.84291
2957.94499 1.84430
2955.89655 1.84397
2953.84811 1.84292
2951.79967 1.84195
2949.75124 1.84012
2947.70280 1.83797
2945.65436 1.83706
2943.60592 1.83687
2941.55748 1.83633
2939.50904 1.83629
2937.46061 1.83683
2935.41217 1.83662
2933.36373 1.83550
2931.31529 1.83465
2929.26685 1.83464
2927.21841 1.83370
2925.16998 1.83167
2923.12154 1.83120
2921.07310 1.83218
2919.02466 1.83284
2916.97622 1.83302
2914.92778 1.83339
2912.87934 1.83270
2910.83091 1.82949
2908.78247 1.82648
2906.73403 1.82557
2904.68559 1.82521
2902.63715 1.82439
2900.58871 1.82388
2898.54028 1.82422
2896.49184 1.82332
2894.44340 1.82055
2892.39496 1.81876
2890.34652 1.81843
2888.29808 1.81805
2886.24965 1.81746
2884.20121 1.81650
2882.15277 1.81490
2880.10433 1.81463
2878.05589 1.81611
2876.00745 1.81581
2873.95902 1.81371
2871.91058 1.81249
2869.86214 1.81249
2867.81370 1.81275
2865.76526 1.81219
2863.71682 1.81112
2861.66839 1.81025
2859.61995 1.80948
2857.57151 1.80951
2855.52307 1.80997
2853.47463 1.80898
2851.42619 1.80746
2849.37776 1.80677
2847.32932 1.80577
2845.28088 1.80463
2843.23244 1.80443
2841.18400 1.80496
2839.13556 1.80451
2837.08713 1.80185
2835.03869 1.79950
2832.99025 1.79982
2830.94181 1.80088
2828.89337 1.80079
2826.84493 1.79945
2824.79650 1.79756
2822.74806 1.79643
2820.69962 1.79619
2818.65118 1.79658
2816.60274 1.79686
2814.55430 1.79584
2812.50587 1.79405
2810.45743 1.79282
2808.40899 1.79259
2806.36055 1.79324
2804.31211 1.79385
2802.26367 1.79333
2800.21524 1.79196
2798.16680 1.79101
2796.11836 1.79055
2794.06992 1.78969
2792.02148 1.78862
2789.97304 1.78821
2787.92461 1.78850
2785.87617 1.78882
2783.82773 1.78864
2781.77929 1.78738
2779.73085 1.78554
2777.68241 1.78488
2775.63397 1.78536
2773.58554 1.78509
2771.53710 1.78320
2769.48866 1.78147
2767.44022 1.78158
2765.39178 1.78196
2763.34334 1.78130
2761.29491 1.78028
2759.24647 1.77889
2757.19803 1.77761
2755.14959 1.77715
2753.10115 1.77712
2751.05271 1.77696
2749.00428 1.77627
2746.95584 1.77581
2744.90740 1.77566
2742.85896 1.77452
2740.81052 1.77293
2738.76208 1.77226
2736.71365 1.77243
2734.66521 1.77223
2732.61677 1.77143
2730.56833 1.77118
2728.51989 1.77124
2726.47145 1.77100
2724.42302 1.77038
2722.37458 1.76894
2720.32614 1.76768
2718.27770 1.76792
2716.22926 1.76841
2714.18082 1.76738
2712.13239 1.76586
2710.08395 1.76531
2708.03551 1.76488
2705.98707 1.76346
2703.93863 1.76225
2701.89019 1.76178
2699.84176 1.76104
2697.79332 1.76105
2695.74488 1.76126
2693.69644 1.75971
2691.64800 1.75811
2689.59956 1.75763
2687.55113 1.75711
2685.50269 1.75668
2683.45425 1.75648
2681.40581 1.75604
2679.35737 1.75589
2677.30893 1.75614
2675.26050 1.75565
2673.21206 1.75413
2671.16362 1.75284
2669.11518 1.75244
2667.06674 1.75237
2665.01830 1.75182
2662.96987 1.75083
2660.92143 1.75038
2658.87299 1.75023
2656.82455 1.74948
2654.77611 1.74862
2652.72767 1.74839
2650.67924 1.74818
2648.63080 1.74784
2646.58236 1.74742
2644.53392 1.74604
2642.48548 1.74415
2640.43704 1.74339
2638.38860 1.74389
2636.34017 1.74429
2634.29173 1.74423
2632.24329 1.74397
2630.19485 1.74351
2628.14641 1.74318
2626.09797 1.74230
2624.04954 1.74057
2622.00110 1.73898
2619.95266 1.73809
2617.90422 1.73815
2615.85578 1.73856
2613.80734 1.73892
2611.75891 1.73880
2609.71047 1.73702
2607.66203 1.73536
2605.61359 1.73611
2603.56515 1.73724
2601.51671 1.73628
2599.46828 1.73432
2597.41984 1.73345
2595.37140 1.73350
2593.32296 1.73337
2591.27452 1.73320
2589.22608 1.73305
2587.17765 1.73235
2585.12921 1.73149
2583.08077 1.73090
2581.03233 1.73008
2578.98389 1.72893
2576.93545 1.72780
2574.88702 1.72708
2572.83858 1.72684
2570.79014 1.72646
2568.74170 1.72573
2566.69326 1.72534
2564.64482 1.72565
2562.59639 1.72606
2560.54795 1.72616
2558.49951 1.72607
2556.45107 1.72538
2554.40263 1.72412
2552.35419 1.72308
2550.30576 1.72227
2548.25732 1.72132
2546.20888 1.72072
2544.16044 1.72099
2542.11200 1.72153
2540.06356 1.72164
2538.01513 1.72097
2535.96669 1.71987
2533.91825 1.71953
2531.86981 1.71973
2529.82137 1.71918
2527.77293 1.71843
2525.72450 1.71791
2523.67606 1.71670
2521.62762 1.71559
2519.57918 1.71561
2517.53074 1.71615
2515.48230 1.71647
2513.43387 1.71647
2511.38543 1.71601
2509.33699 1.71485
2507.28855 1.71373
2505.24011 1.71364
2503.19167 1.71391
2501.14324 1.71343
2499.09480 1.71289
2497.04636 1.71275
2494.99792 1.71220
2492.94948 1.71099
2490.90104 1.70987
2488.85260 1.70988
2486.80417 1.71057
2484.75573 1.71033
2482.70729 1.70938
2480.65885 1.70888
2478.61041 1.70868
2476.56197 1.70863
2474.51354 1.70897
2472.46510 1.70887
2470.41666 1.70768
2468.36822 1.70669
2466.31978 1.70638
2464.27134 1.70542
2462.22291 1.70456
2460.17447 1.70505
2458.12603 1.70601
2456.07759 1.70608
2454.02915 1.70526
2451.98071 1.70504
2449.93228 1.70548
2447.88384 1.70494
2445.83540 1.70351
2443.78696 1.70329
2441.73852 1.70417
2439.69008 1.70437
2437.64165 1.70418
2435.59321 1.70432
2433.54477 1.70417
2431.49633 1.70344
2429.44789 1.70295
2427.39945 1.70271
2425.35102 1.70213
2423.30258 1.70166
2421.25414 1.70137
2419.20570 1.70106
2417.15726 1.70132
2415.10882 1.70173
2413.06039 1.70126
2411.01195 1.70065
2408.96351 1.70101
2406.91507 1.70175
2404.86663 1.70180
2402.81819 1.70189
2400.76976 1.70222
2398.72132 1.70164
2396.67288 1.70091
2394.62444 1.70099
2392.57600 1.70129
2390.52756 1.70134
2388.47913 1.70129
2386.43069 1.70162
2384.38225 1.70253
2382.33381 1.70326
2380.28537 1.70327
2378.23693 1.70316
2376.18850 1.70353
2374.14006 1.70463
2372.09162 1.70648
2370.04318 1.70772
2367.99474 1.70599
2365.94630 1.70318
2363.89787 1.70367
2361.84943 1.70715
2359.80099 1.70818
2357.75255 1.70459
2355.70411 1.70183
2353.65567 1.70251
2351.60723 1.70307
2349.55880 1.70147
2347.51036 1.69906
2345.46192 1.69763
2343.41348 1.69827
2341.36504 1.69945
2339.31660 1.69916
2337.26817 1.69835
2335.21973 1.69776
2333.17129 1.69646
2331.12285 1.69529
2329.07441 1.69552
2327.02597 1.69579
2324.97754 1.69588
2322.92910 1.69752
2320.88066 1.69992
2318.83222 1.70011
2316.78378 1.69870
2314.73534 1.69766
2312.68691 1.69771
2310.63847 1.69832
2308.59003 1.69734
2306.54159 1.69556
2304.49315 1.69468
2302.44471 1.69355
2300.39628 1.69196
2298.34784 1.69114
2296.29940 1.69107
2294.25096 1.69094
2292.20252 1.69079
2290.15408 1.69091
2288.10565 1.69102
2286.05721 1.69087
2284.00877 1.69033
2281.96033 1.68923
2279.91189 1.68821
2277.86345 1.68793
2275.81502 1.68818
2273.76658 1.68843
2271.71814 1.68822
2269.66970 1.68739
2267.62126 1.68656
2265.57282 1.68628
2263.52439 1.68586
2261.47595 1.68494
2259.42751 1.68431
2257.37907 1.68398
2255.33063 1.68358
2253.28219 1.68341
2251.23376 1.68331
2249.18532 1.68309
2247.13688 1.68249
2245.08844 1.68170
2243.04000 1.68124
2240.99156 1.68072
2238.94313 1.68013
2236.89469 1.67957
2234.84625 1.67880
2232.79781 1.67861
2230.74937 1.67894
2228.70093 1.67863
2226.65250 1.67808
2224.60406 1.67799
2222.55562 1.67799
2220.50718 1.67749
2218.45874 1.67665
2216.41030 1.67560
2214.36186 1.67381
2212.31343 1.67218
2210.26499 1.67165
2208.21655 1.67169
2206.16811 1.67207
2204.11967 1.67254
2202.07123 1.67226
2200.02280 1.67109
2197.97436 1.66995
2195.92592 1.66941
2193.87748 1.66916
2191.82904 1.66883
2189.78060 1.66837
2187.73217 1.66776
2185.68373 1.66715
2183.63529 1.66677
2181.58685 1.66662
2179.53841 1.66632
2177.48997 1.66563
2175.44154 1.66492
2173.39310 1.66447
2171.34466 1.66385
2169.29622 1.66286
2167.24778 1.66192
2165.19934 1.66140
2163.15091 1.66136
2161.10247 1.66156
2159.05403 1.66168
2157.00559 1.66150
2154.95715 1.66112
2152.90871 1.66067
2150.86028 1.66025
2148.81184 1.65980
2146.76340 1.65900
2144.71496 1.65846
2142.66652 1.65847
2140.61808 1.65848
2138.56965 1.65823
2136.52121 1.65747
2134.47277 1.65643
2132.42433 1.65587
2130.37589 1.65567
2128.32745 1.65502
2126.27902 1.65382
2124.23058 1.65289
2122.18214 1.65252
2120.13370 1.65203
2118.08526 1.65170
2116.03682 1.65188
2113.98839 1.65184
2111.93995 1.65139
2109.89151 1.65054
2107.84307 1.64980
2105.79463 1.64983
2103.74619 1.64999
2101.69776 1.64954
2099.64932 1.64908
2097.60088 1.64907
2095.55244 1.64862
2093.50400 1.64743
2091.45556 1.64664
2089.40713 1.64661
2087.35869 1.64685
2085.31025 1.64705
2083.26181 1.64668
2081.21337 1.64610
2079.16493 1.64648
2077.11649 1.64754
2075.06806 1.64798
2073.01962 1.64755
2070.97118 1.64681
2068.92274 1.64612
2066.87430 1.64557
2064.82586 1.64467
2062.77743 1.64328
2060.72899 1.64242
2058.68055 1.64275
2056.63211 1.64327
2054.58367 1.64303
2052.53523 1.64283
2050.48680 1.64301
2048.43836 1.64304
2046.38992 1.64304
2044.34148 1.64299
2042.29304 1.64267
2040.24460 1.64201
2038.19617 1.64148
2036.14773 1.64103
2034.09929 1.64009
2032.05085 1.63944
2030.00241 1.63920
2027.95397 1.63914
2025.90554 1.63909
2023.85710 1.63858
2021.80866 1.63860
2019.76022 1.63952
2017.71178 1.64031
2015.66334 1.64009
2013.61491 1.63900
2011.56647 1.63791
2009.51803 1.63740
2007.46959 1.63729
2005.42115 1.63664
2003.37271 1.63568
2001.32428 1.63577
1999.27584 1.63618
1997.22740 1.63576
1995.17896 1.63599
1993.13052 1.63724
1991.08208 1.63733
1989.03365 1.63596
1986.98521 1.63472
1984.93677 1.63415
1982.88833 1.63375
1980.83989 1.63303
1978.79145 1.63235
1976.74302 1.63204
1974.69458 1.63209
1972.64614 1.63234
1970.59770 1.63294
1968.54926 1.63446
1966.50082 1.63505
1964.45239 1.63339
1962.40395 1.63176
1960.35551 1.63058
1958.30707 1.62944
1956.25863 1.62913
1954.21019 1.62897
1952.16176 1.62826
1950.11332 1.62809
1948.06488 1.62891
1946.01644 1.63010
1943.96800 1.63125
1941.91956 1.63089
1939.87112 1.62866
1937.82269 1.62682
1935.77425 1.62600
1933.72581 1.62559
1931.67737 1.62543
1929.62893 1.62550
1927.58049 1.62576
1925.53206 1.62670
1923.48362 1.62773
1921.43518 1.62743
1919.38674 1.62697
1917.33830 1.62617
1915.28986 1.62412
1913.24143 1.62313
1911.19299 1.62410
1909.14455 1.62477
1907.09611 1.62333
1905.04767 1.62123
1902.99923 1.62035
1900.95080 1.62072
1898.90236 1.62126
1896.85392 1.62163
1894.80548 1.62146
1892.75704 1.62097
1890.70860 1.62149
1888.66017 1.62190
1886.61173 1.62128
1884.56329 1.62081
1882.51485 1.62028
1880.46641 1.61944
1878.41797 1.61836
1876.36954 1.61740
1874.32110 1.61727
1872.27266 1.61831
1870.22422 1.62114
1868.17578 1.62357
1866.12734 1.62214
1864.07891 1.61968
1862.03047 1.61814
1859.98203 1.61723
1857.93359 1.61686
1855.88515 1.61654
1853.83671 1.61603
1851.78828 1.61561
1849.73984 1.61645
1847.69140 1.61941
1845.64296 1.62286
1843.59452 1.62323
1841.54608 1.62014
1839.49765 1.61752
1837.44921 1.61645
1835.40077 1.61567
1833.35233 1.61595
1831.30389 1.61905
1829.25545 1.62180
1827.20702 1.62097
1825.15858 1.61954
1823.11014 1.61780
1821.06170 1.61580
1819.01326 1.61493
1816.96482 1.61465
1814.91639 1.61447
1812.86795 1.61578
1810.81951 1.61804
1808.77107 1.61855
1806.72263 1.61738
1804.67419 1.61679
1802.62575 1.61813
1800.57732 1.61927
1798.52888 1.61848
1796.48044 1.61825
1794.43200 1.62042
1792.38356 1.62328
1790.33512 1.62115
1788.28669 1.61694
1786.23825 1.61527
1784.18981 1.61555
1782.14137 1.61630
1780.09293 1.61646
1778.04449 1.61590
1775.99606 1.61676
1773.94762 1.62025
1771.89918 1.62324
1769.85074 1.62116
1767.80230 1.61723
1765.75386 1.61468
1763.70543 1.61458
1761.65699 1.61587
1759.60855 1.61602
1757.56011 1.61540
1755.51167 1.61468
1753.46323 1.61531
1751.41480 1.61904
1749.36636 1.62303
1747.31792 1.62218
1745.26948 1.61905
1743.22104 1.61689
1741.17260 1.61598
1739.12417 1.61534
1737.07573 1.61544
1735.02729 1.61853
1732.97885 1.62149
1730.93041 1.61816
1728.88197 1.61308
1726.83354 1.61023
1724.78510 1.61028
1722.73666 1.61108
1720.68822 1.61242
1718.63978 1.61766
1716.59134 1.62450
1714.54291 1.62196
1712.49447 1.61630
1710.44603 1.61405
1708.39759 1.61613
1706.34915 1.62059
1704.30071 1.62229
1702.25228 1.62168
1700.20384 1.62479
1698.15540 1.62898
1696.10696 1.62680
1694.05852 1.62212
1692.01008 1.62072
1689.96165 1.62252
1687.91321 1.62500
1685.86477 1.62851
1683.81633 1.63394
1681.76789 1.63320
1679.71945 1.63014
1677.67102 1.62933
1675.62258 1.63101
1673.57414 1.63326
1671.52570 1.63577
1669.47726 1.63733
1667.42882 1.63431
1665.38038 1.63207
1663.33195 1.63331
1661.28351 1.63378
1659.23507 1.63245
1657.18663 1.63324
1655.13819 1.63729
1653.08975 1.64375
1651.04132 1.64495
1648.99288 1.64513
1646.94444 1.64563
1644.89600 1.64145
1642.84756 1.63718
1640.79912 1.63604
1638.75069 1.63808
1636.70225 1.64228
1634.65381 1.64103
1632.60537 1.63572
1630.55693 1.63377
1628.50849 1.63503
1626.46006 1.63708
1624.41162 1.63884
1622.36318 1.63838
1620.31474 1.63597
1618.26630 1.63554
1616.21786 1.63639
1614.16943 1.63478
1612.12099 1.63303
1610.07255 1.63248
1608.02411 1.63153
1605.97567 1.62990
1603.92723 1.62903
1601.87880 1.62841
1599.83036 1.62729
1597.78192 1.62680
1595.73348 1.62716
1593.68504 1.62702
1591.63660 1.62639
1589.58817 1.62598
1587.53973 1.62586
1585.49129 1.62610
1583.44285 1.62667
1581.39441 1.62713
1579.34597 1.62807
1577.29754 1.63061
1575.24910 1.63173
1573.20066 1.63038
1571.15222 1.63113
1569.10378 1.63215
1567.05534 1.62999
1565.00691 1.62858
1562.95847 1.62898
1560.91003 1.63113
1558.86159 1.63771
1556.81315 1.63882
1554.76471 1.63472
1552.71628 1.63143
1550.66784 1.62952
1548.61940 1.62785
1546.57096 1.62841
1544.52252 1.63371
1542.47408 1.64092
1540.42565 1.64131
1538.37721 1.63365
1536.32877 1.63009
1534.28033 1.63033
1532.23189 1.62948
1530.18345 1.62719
1528.13501 1.62755
1526.08658 1.63004
1524.03814 1.63284
1521.98970 1.63569
1519.94126 1.63480
1517.89282 1.63171
1515.84438 1.62833
1513.79595 1.62554
1511.74751 1.62608
1509.69907 1.63054
1507.65063 1.63526
1505.60219 1.62892
1503.55375 1.62165
1501.50532 1.61959
1499.45688 1.62140
1497.40844 1.62247
1495.36000 1.61863
1493.31156 1.61645
1491.26312 1.61993
1489.21469 1.62436
1487.16625 1.62040
1485.11781 1.61427
1483.06937 1.61180
1481.02093 1.61185
1478.97249 1.61243
1476.92406 1.61462
1474.87562 1.61936
1472.82718 1.62126
1470.77874 1.61583
1468.73030 1.61153
1466.68186 1.61139
1464.63343 1.61230
1462.58499 1.61178
1460.53655 1.61353
1458.48811 1.61885
1456.43967 1.61998
1454.39123 1.61499
1452.34280 1.61116
1450.29436 1.60943
1448.24592 1.60922
1446.19748 1.60784
1444.14904 1.60545
1442.10060 1.60420
1440.05217 1.60464
1438.00373 1.60655
1435.95529 1.60821
1433.90685 1.60756
1431.85841 1.60664
1429.80997 1.60594
1427.76154 1.60510
1425.71310 1.60569
1423.66466 1.60709
1421.61622 1.60776
1419.56778 1.60985
1417.51934 1.61075
1415.47091 1.60757
1413.42247 1.60486
1411.37403 1.60437
1409.32559 1.60502
1407.27715 1.60603
1405.22871 1.60649
1403.18028 1.60571
1401.13184 1.60586
1399.08340 1.60799
1397.03496 1.61027
1394.98652 1.61045
1392.93808 1.60784
1390.88965 1.60552
1388.84121 1.60546
1386.79277 1.60567
1384.74433 1.60434
1382.69589 1.60315
1380.64745 1.60287
1378.59901 1.60316
1376.55058 1.60423
1374.50214 1.60542
1372.45370 1.60471
1370.40526 1.60313
1368.35682 1.60200
1366.30838 1.60181
1364.25995 1.60380
1362.21151 1.60544
1360.16307 1.60344
1358.11463 1.60110
1356.06619 1.60030
1354.01775 1.59981
1351.96932 1.59916
1349.92088 1.59850
1347.87244 1.59740
1345.82400 1.59659
1343.77556 1.59722
1341.72712 1.59954
1339.67869 1.60118
1337.63025 1.59890
1335.58181 1.59527
1333.53337 1.59325
1331.48493 1.59241
1329.43649 1.59187
1327.38806 1.59131
1325.33962 1.59054
1323.29118 1.59003
1321.24274 1.59061
1319.19430 1.59153
1317.14586 1.59110
1315.09743 1.58945
1313.04899 1.58762
1311.00055 1.58592
1308.95211 1.58455
1306.90367 1.58324
1304.85523 1.58148
1302.80680 1.57983
1300.75836 1.57899
1298.70992 1.57844
1296.66148 1.57759
1294.61304 1.57676
1292.56460 1.57625
1290.51617 1.57615
1288.46773 1.57604
1286.41929 1.57510
1284.37085 1.57358
1282.32241 1.57271
1280.27397 1.57249
1278.22554 1.57193
1276.17710 1.57121
1274.12866 1.57092
1272.08022 1.57094
1270.03178 1.57134
1267.98334 1.57158
1265.93491 1.57113
1263.88647 1.57061
1261.83803 1.57047
1259.78959 1.57027
1257.74115 1.56919
1255.69271 1.56769
1253.64428 1.56687
1251.59584 1.56641
1249.54740 1.56558
1247.49896 1.56458
1245.45052 1.56408
1243.40208 1.56379
1241.35364 1.56295
1239.30521 1.56240
1237.25677 1.56248
1235.20833 1.56221
1233.15989 1.56125
1231.11145 1.56004
1229.06301 1.55964
1227.01458 1.56034
1224.96614 1.56093
1222.91770 1.56076
1220.86926 1.55997
1218.82082 1.55890
1216.77238 1.55828
1214.72395 1.55841
1212.67551 1.55869
1210.62707 1.55858
1208.57863 1.55835
1206.53019 1.55850
1204.48175 1.55889
1202.43332 1.55917
1200.38488 1.55939
1198.33644 1.55954
1196.28800 1.55961
1194.23956 1.55966
1192.19112 1.55953
1190.14269 1.55933
1188.09425 1.55931
1186.04581 1.55921
1183.99737 1.55933
1181.94893 1.56001
1179.90049 1.56077
1177.85206 1.56128
1175.80362 1.56172
1173.75518 1.56205
1171.70674 1.56214
1169.65830 1.56227
1167.60986 1.56266
1165.56143 1.56335
1163.51299 1.56414
1161.46455 1.56481
1159.41611 1.56559
1157.36767 1.56645
1155.31923 1.56703
1153.27080 1.56766
1151.22236 1.56869
1149.17392 1.56965
1147.12548 1.56981
1145.07704 1.56940
1143.02860 1.56958
1140.98017 1.57080
1138.93173 1.57223
1136.88329 1.57294
1134.83485 1.57308
1132.78641 1.57329
1130.73797 1.57371
1128.68954 1.57417
1126.64110 1.57479
1124.59266 1.57585
1122.54422 1.57677
1120.49578 1.57682
1118.44734 1.57663
1116.39891 1.57700
1114.35047 1.57780
1112.30203 1.57832
1110.25359 1.57790
1108.20515 1.57691
1106.15671 1.57655
1104.10827 1.57707
1102.05984 1.57736
1100.01140 1.57678
1097.96296 1.57576
1095.91452 1.57517
1093.86608 1.57498
1091.81764 1.57431
1089.76921 1.57377
1087.72077 1.57382
1085.67233 1.57383
1083.62389 1.57428
1081.57545 1.57473
1079.52701 1.57394
1077.47858 1.57310
1075.43014 1.57374
1073.38170 1.57471
1071.33326 1.57416
1069.28482 1.57266
1067.23638 1.57216
1065.18795 1.57296
1063.13951 1.57385
1061.09107 1.57428
1059.04263 1.57476
1056.99419 1.57550
1054.94575 1.57590
1052.89732 1.57577
1050.84888 1.57557
1048.80044 1.57574
1046.75200 1.57646
1044.70356 1.57717
1042.65512 1.57698
1040.60669 1.57664
1038.55825 1.57768
1036.50981 1.57936
1034.46137 1.58049
1032.41293 1.58147
1030.36449 1.58265
1028.31606 1.58381
1026.26762 1.58446
1024.21918 1.58465
1022.17074 1.58496
1020.12230 1.58524
1018.07386 1.58555
1016.02543 1.58670
1013.97699 1.58850
1011.92855 1.59003
1009.88011 1.59091
1007.83167 1.59123
1005.78323 1.59121
1003.73480 1.59159
1001.68636 1.59271
999.63792 1.59359
997.58948 1.59370
995.54104 1.59364
993.49260 1.59422
991.44417 1.59526
989.39573 1.59559
987.34729 1.59581
985.29885 1.59628
983.25041 1.59572
981.20197 1.59457
979.15354 1.59420
977.10510 1.59527
975.05666 1.59689
973.00822 1.59694
970.95978 1.59565
968.91134 1.59521
966.86290 1.59509
964.81447 1.59364
962.76603 1.59230
960.71759 1.59230
958.66915 1.59250
956.62071 1.59247
954.57227 1.59256
952.52384 1.59233
950.47540 1.59143
948.42696 1.59097
946.37852 1.59174
944.33008 1.59275
942.28164 1.59270
940.23321 1.59190
938.18477 1.59192
936.13633 1.59299
934.08789 1.59456
932.03945 1.59661
929.99101 1.59878
927.94258 1.60128
925.89414 1.60397
923.84570 1.60479
921.79726 1.60442
919.74882 1.60626
917.70038 1.60992
915.65195 1.61295
913.60351 1.61502
911.55507 1.61656
909.50663 1.61801
907.45819 1.61971
905.40975 1.62153
903.36132 1.62383
901.31288 1.62696
899.26444 1.62960
897.21600 1.63080
895.16756 1.63119
893.11912 1.63152
891.07069 1.63229
889.02225 1.63309
886.97381 1.63367
884.92537 1.63522
882.87693 1.63809
880.82849 1.64057
878.78006 1.64135
876.73162 1.64105
874.68318 1.64069
872.63474 1.64095
870.58630 1.64166
868.53786 1.64172
866.48943 1.64083
864.44099 1.64015
862.39255 1.64066
860.34411 1.64143
858.29567 1.64096
856.24723 1.63946
854.19880 1.63839
852.15036 1.63724
850.10192 1.63548
848.05348 1.63504
846.00504 1.63540
843.95660 1.63484
841.90817 1.63486
839.85973 1.63535
837.81129 1.63411
835.76285 1.63232
833.71441 1.63221
831.66597 1.63259
829.61753 1.63170
827.56910 1.63137
825.52066 1.63312
823.47222 1.63537
821.42378 1.63680
819.37534 1.63705
817.32690 1.63635
815.27847 1.63653
813.23003 1.63895
811.18159 1.64181
809.13315 1.64347
807.08471 1.64436
805.03627 1.64415
802.98784 1.64393
800.93940 1.64593
798.89096 1.64913
796.84252 1.65204
794.79408 1.65500
792.74564 1.65707
790.69721 1.65799
788.64877 1.65928
786.60033 1.66059
784.55189 1.65997
782.50345 1.65777
780.45501 1.65615
778.40658 1.65439
776.35814 1.65230
774.30970 1.65168
772.26126 1.65155
770.21282 1.65022
768.16438 1.64733
766.11595 1.64319
764.06751 1.63874
762.01907 1.63520
759.97063 1.63338
757.92219 1.63272
755.87375 1.63120
753.82532 1.62741
751.77688 1.62251
749.72844 1.61786
747.68000 1.61377
745.63156 1.61199
743.58312 1.61293
741.53469 1.61213
739.48625 1.60709
737.43781 1.60123
735.38937 1.59734
733.34093 1.59534
731.29249 1.59426
729.24406 1.59238
727.19562 1.58930
725.14718 1.58696
723.09874 1.58470
721.05030 1.58241
719.00186 1.58347
716.95343 1.58572
714.90499 1.58538
712.85655 1.58316
710.80811 1.57988
708.75967 1.57708
706.71123 1.57663
704.66280 1.57729
702.61436 1.57713
700.56592 1.57653
698.51748 1.57581
696.46904 1.57545
694.42060 1.57493
692.37216 1.57380
690.32373 1.57504
688.27529 1.57815
686.22685 1.58026
684.17841 1.58231
682.12997 1.58432
680.08153 1.58426
678.03310 1.58118
675.98466 1.57722
673.93622 1.57721
671.88778 1.58254
669.83934 1.59161
667.79090 1.59916
665.74247 1.59679
663.69403 1.59546
661.64559 1.59794
659.59715 1.59354
657.54871 1.58402
655.50027 1.58440
653.45184 1.59101
651.40340 1.58591
649.35496 1.56956
647.30652 1.55741
645.25808 1.55470
643.20964 1.55523
641.16121 1.54858
639.11277 1.53395
637.06433 1.52332
635.01589 1.51825
632.96745 1.51148
630.91901 1.49980
628.87058 1.48829
626.82214 1.48572
624.77370 1.48563
622.72526 1.47749
620.67682 1.46674
618.62838 1.46064
616.57995 1.45820
614.53151 1.45764
612.48307 1.45767
610.43463 1.45339
608.38619 1.44131
606.33775 1.42138
604.28932 1.40748
602.24088 1.41099
600.19244 1.41916
598.14400 1.42019
