3996.50324 1.52074
3994.45480 1.52092
3992.40636 1.52103
3990.35792 1.52124
3988.30948 1.52076
3986.26104 1.52009
3984.21261 1.52015
3982.16417 1.52021
3980.11573 1.51956
3978.06729 1.51994
3976.01885 1.52190
3973.97041 1.52292
3971.92198 1.52236
3969.87354 1.52143
3967.82510 1.52086
3965.77666 1.52127
3963.72822 1.52293
3961.67978 1.52443
3959.63135 1.52455
3957.58291 1.52408
3955.53447 1.52370
3953.48603 1.52410
3951.43759 1.52583
3949.38915 1.52752
3947.34072 1.52731
3945.29228 1.52733
3943.24384 1.52784
3941.19540 1.52627
3939.14696 1.52469
3937.09852 1.52481
3935.05009 1.52670
3933.00165 1.52987
3930.95321 1.53065
3928.90477 1.52831
3926.85633 1.52764
3924.80789 1.52928
3922.75946 1.52999
3920.71102 1.53092
3918.66258 1.53263
3916.61414 1.53118
3914.56570 1.52701
3912.51726 1.52402
3910.46883 1.52338
3908.42039 1.52642
3906.37195 1.53382
3904.32351 1.54104
3902.27507 1.54232
3900.22663 1.54016
3898.17820 1.53621
3896.12976 1.53333
3894.08132 1.53409
3892.03288 1.53506
3889.98444 1.53274
3887.93600 1.53298
3885.88756 1.53728
3883.83913 1.53972
3881.79069 1.53882
3879.74225 1.53466
3877.69381 1.53144
3875.64537 1.53289
3873.59693 1.53618
3871.54850 1.53905
3869.50006 1.53991
3867.45162 1.53998
3865.40318 1.54243
3863.35474 1.54208
3861.30630 1.53742
3859.25787 1.53652
3857.20943 1.54133
3855.16099 1.54863
3853.11255 1.54964
3851.06411 1.54174
3849.01567 1.53660
3846.96724 1.53566
3844.91880 1.53774
3842.87036 1.54069
3840.82192 1.54439
3838.77348 1.54753
3836.72504 1.54578
3834.67661 1.54240
3832.62817 1.54012
3830.57973 1.53891
3828.53129 1.53930
3826.48285 1.54018
3824.43441 1.54135
3822.38598 1.54488
3820.33754 1.54763
3818.28910 1.54604
3816.24066 1.54215
3814.19222 1.53644
3812.14378 1.53282
3810.09535 1.53316
3808.04691 1.53641
3805.99847 1.53876
3803.95003 1.54191
3801.90159 1.54626
3799.85315 1.54514
3797.80472 1.54217
3795.75628 1.53856
3793.70784 1.53372
3791.65940 1.53076
3789.61096 1.53080
3787.56252 1.53295
3785.51409 1.53524
3783.46565 1.53604
3781.41721 1.53689
3779.36877 1.53756
3777.32033 1.53540
3775.27189 1.53344
3773.22346 1.53450
3771.17502 1.53748
3769.12658 1.53941
3767.07814 1.53958
3765.02970 1.53892
3762.98126 1.53947
3760.93283 1.54348
3758.88439 1.54741
3756.83595 1.54759
3754.78751 1.54903
3752.73907 1.55531
3750.69063 1.56104
3748.64219 1.55806
3746.59376 1.55423
3744.54532 1.55156
3742.49688 1.55004
3740.44844 1.55070
3738.40000 1.55351
3736.35156 1.55703
3734.30313 1.55627
3732.25469 1.55030
3730.20625 1.54519
3728.15781 1.54482
3726.10937 1.54815
3724.06093 1.54980
3722.01250 1.54719
3719.96406 1.54305
3717.91562 1.54058
3715.86718 1.54163
3713.81874 1.54654
3711.77030 1.55242
3709.72187 1.55054
3707.67343 1.54356
3705.62499 1.53958
3703.57655 1.53980
3701.52811 1.54032
3699.47967 1.53873
3697.43124 1.53727
3695.38280 1.53751
3693.33436 1.54208
3691.28592 1.55137
3689.23748 1.55555
3687.18904 1.54826
3685.14061 1.54149
3683.09217 1.53927
3681.04373 1.54135
3678.99529 1.54685
3676.94685 1.55399
3674.89841 1.55616
3672.84998 1.55331
3670.80154 1.55285
3668.75310 1.55148
3666.70466 1.54792
3664.65622 1.54501
3662.60778 1.54327
3660.55935 1.54367
3658.51091 1.54689
3656.46247 1.55074
3654.41403 1.55278
3652.36559 1.55740
3650.31715 1.56757
3648.26872 1.56887
3646.22028 1.55864
3644.17184 1.55308
3642.12340 1.55168
3640.07496 1.55174
3638.02652 1.55235
3635.97809 1.55368
3633.92965 1.55650
3631.88121 1.56064
3629.83277 1.56424
3627.78433 1.56249
3625.73589 1.55883
3623.68746 1.55843
3621.63902 1.56224
3619.59058 1.56856
3617.54214 1.57100
3615.49370 1.57103
3613.44526 1.57096
3611.39682 1.57048
3609.34839 1.57100
3607.29995 1.56917
3605.25151 1.56557
3603.20307 1.56583
3601.15463 1.56978
3599.10619 1.57275
3597.05776 1.57366
3595.00932 1.57428
3592.96088 1.57410
3590.91244 1.57438
3588.86400 1.57683
3586.81556 1.57749
3584.76713 1.57433
3582.71869 1.57223
3580.67025 1.57188
3578.62181 1.57218
3576.57337 1.57273
3574.52493 1.57274
3572.47650 1.57328
3570.42806 1.57740
3568.37962 1.58515
3566.33118 1.58857
3564.28274 1.58421
3562.23430 1.58063
3560.18587 1.57889
3558.13743 1.57730
3556.08899 1.57756
3554.04055 1.58015
3551.99211 1.58143
3549.94367 1.58111
3547.89524 1.58325
3545.84680 1.58575
3543.79836 1.58369
3541.74992 1.58026
3539.70148 1.57947
3537.65304 1.58099
3535.60461 1.58221
3533.55617 1.58213
3531.50773 1.58314
3529.45929 1.58635
3527.41085 1.58849
3525.36241 1.58778
3523.31398 1.58636
3521.26554 1.58549
3519.21710 1.58476
3517.16866 1.58377
3515.12022 1.58331
3513.07178 1.58465
3511.02335 1.58714
3508.97491 1.58805
3506.92647 1.58735
3504.87803 1.58794
3502.82959 1.58923
3500.78115 1.58885
3498.73272 1.58762
3496.68428 1.58706
3494.63584 1.58782
3492.58740 1.58899
3490.53896 1.58953
3488.49052 1.58970
3486.44209 1.58996
3484.39365 1.59119
3482.34521 1.59254
3480.29677 1.59104
3478.24833 1.58862
3476.19989 1.58905
3474.15146 1.59056
3472.10302 1.59114
3470.05458 1.59155
3468.00614 1.59154
3465.95770 1.59067
3463.90926 1.59023
3461.86082 1.59091
3459.81239 1.59180
3457.76395 1.59307
3455.71551 1.59426
3453.66707 1.59391
3451.61863 1.59289
3449.57019 1.59352
3447.52176 1.59525
3445.47332 1.59555
3443.42488 1.59524
3441.37644 1.59557
3439.32800 1.59610
3437.27956 1.59627
3435.23113 1.59573
3433.18269 1.59548
3431.13425 1.59691
3429.08581 1.59878
3427.03737 1.59825
3424.98893 1.59656
3422.94050 1.59684
3420.89206 1.59753
3418.84362 1.59676
3416.79518 1.59574
3414.74674 1.59469
3412.69830 1.59452
3410.64987 1.59559
3408.60143 1.59643
3406.55299 1.59712
3404.50455 1.59797
3402.45611 1.59847
3400.40767 1.59850
3398.35924 1.59818
3396.31080 1.59798
3394.26236 1.59865
3392.21392 1.59911
3390.16548 1.59810
3388.11704 1.59770
3386.06861 1.59873
3384.02017 1.59918
3381.97173 1.59846
3379.92329 1.59763
3377.87485 1.59715
3375.82641 1.59737
3373.77798 1.59803
3371.72954 1.59809
3369.68110 1.59842
3367.63266 1.60007
3365.58422 1.60145
3363.53578 1.60102
3361.48735 1.59973
3359.43891 1.59876
3357.39047 1.59863
3355.34203 1.59886
3353.29359 1.59862
3351.24515 1.59866
3349.19672 1.59919
3347.14828 1.59905
3345.09984 1.59875
3343.05140 1.59947
3341.00296 1.60055
3338.95452 1.60094
3336.90609 1.60107
3334.85765 1.60165
3332.80921 1.60195
3330.76077 1.60125
3328.71233 1.60050
3326.66389 1.60100
3324.61545 1.60232
3322.56702 1.60269
3320.51858 1.60211
3318.47014 1.60187
3316.42170 1.60185
3314.37326 1.60188
3312.32482 1.60183
3310.27639 1.60169
3308.22795 1.60186
3306.17951 1.60170
3304.13107 1.60146
3302.08263 1.60276
3300.03419 1.60450
3297.98576 1.60403
3295.93732 1.60209
3293.88888 1.60156
3291.84044 1.60283
3289.79200 1.60361
3287.74356 1.60299
3285.69513 1.60271
3283.64669 1.60329
3281.59825 1.60358
3279.54981 1.60366
3277.50137 1.60380
3275.45293 1.60378
3273.40450 1.60383
3271.35606 1.60401
3269.30762 1.60463
3267.25918 1.60525
3265.21074 1.60481
3263.16230 1.60395
3261.11387 1.60346
3259.06543 1.60306
3257.01699 1.60334
3254.96855 1.60475
3252.92011 1.60588
3250.87167 1.60605
3248.82324 1.60638
3246.77480 1.60704
3244.72636 1.60719
3242.67792 1.60672
3240.62948 1.60558
3238.58104 1.60435
3236.53261 1.60415
3234.48417 1.60454
3232.43573 1.60488
3230.38729 1.60547
3228.33885 1.60589
3226.29041 1.60532
3224.24198 1.60447
3222.19354 1.60453
3220.14510 1.60511
3218.09666 1.60512
3216.04822 1.60476
3213.99978 1.60475
3211.95135 1.60473
3209.90291 1.60446
3207.85447 1.60432
3205.80603 1.60426
3203.75759 1.60388
3201.70915 1.60371
3199.66072 1.60376
3197.61228 1.60315
3195.56384 1.60247
3193.51540 1.60264
3191.46696 1.60356
3189.41852 1.60466
3187.37008 1.60505
3185.32165 1.60421
3183.27321 1.60285
3181.22477 1.60258
3179.17633 1.60336
3177.12789 1.60352
3175.07945 1.60314
3173.03102 1.60293
3170.98258 1.60277
3168.93414 1.60274
3166.88570 1.60259
3164.83726 1.60191
3162.78882 1.60084
3160.74039 1.60018
3158.69195 1.60055
3156.64351 1.60089
3154.59507 1.60037
3152.54663 1.60031
3150.49819 1.60051
3148.44976 1.59969
3146.40132 1.59879
3144.35288 1.59818
3142.30444 1.59690
3140.25600 1.59578
3138.20756 1.59540
3136.15913 1.59532
3134.11069 1.59559
3132.06225 1.59578
3130.01381 1.59627
3127.96537 1.59653
3125.91693 1.59553
3123.86850 1.59535
3121.82006 1.59672
3119.77162 1.59716
3117.72318 1.59620
3115.67474 1.59519
3113.62630 1.59415
3111.57787 1.59315
3109.52943 1.59270
3107.48099 1.59258
3105.43255 1.59273
3103.38411 1.59297
3101.33567 1.59269
3099.28724 1.59157
3097.23880 1.58999
3095.19036 1.58896
3093.14192 1.58861
3091.09348 1.58847
3089.04504 1.58860
3086.99661 1.58886
3084.94817 1.58873
3082.89973 1.58817
3080.85129 1.58769
3078.80285 1.58726
3076.75441 1.58678
3074.70598 1.58628
3072.65754 1.58566
3070.60910 1.58546
3068.56066 1.58582
3066.51222 1.58619
3064.46378 1.58628
3062.41535 1.58579
3060.36691 1.58432
3058.31847 1.58243
3056.27003 1.58151
3054.22159 1.58138
3052.17315 1.58140
3050.12471 1.58168
3048.07628 1.58137
3046.02784 1.58048
3043.97940 1.58030
3041.93096 1.58049
3039.88252 1.58005
3037.83408 1.57958
3035.78565 1.57977
3033.73721 1.58006
3031.68877 1.57956
3029.64033 1.57901
3027.59189 1.57940
3025.54345 1.57979
3023.49502 1.57925
3021.44658 1.57822
3019.39814 1.57763
3017.34970 1.57784
3015.30126 1.57802
3013.25282 1.57761
3011.20439 1.57706
3009.15595 1.57648
3007.10751 1.57599
3005.05907 1.57571
3003.01063 1.57552
3000.96219 1.57544
2998.91376 1.57498
2996.86532 1.57423
2994.81688 1.57376
2992.76844 1.57327
2990.72000 1.57304
2988.67156 1.57374
2986.62313 1.57450
2984.57469 1.57449
2982.52625 1.57411
2980.47781 1.57377
2978.42937 1.57318
2976.38093 1.57257
2974.33250 1.57282
2972.28406 1.57335
2970.23562 1.57309
2968.18718 1.57229
2966.13874 1.57179
2964.09030 1.57202
2962.04187 1.57274
2959.99343 1.57291
2957.94499 1.57214
2955.89655 1.57150
2953.84811 1.57164
2951.79967 1.57228
2949.75124 1.57220
2947.70280 1.57111
2945.65436 1.57020
2943.60592 1.57019
2941.55748 1.57094
2939.50904 1.57120
2937.46061 1.57076
2935.41217 1.57078
2933.36373 1.57078
2931.31529 1.57028
2929.26685 1.56995
2927.21841 1.56976
2925.16998 1.56962
2923.12154 1.56979
2921.07310 1.57035
2919.02466 1.57070
2916.97622 1.57008
2914.92778 1.56886
2912.87934 1.56790
2910.83091 1.56758
2908.78247 1.56767
2906.73403 1.56776
2904.68559 1.56711
2902.63715 1.56591
2900.58871 1.56570
2898.54028 1.56664
2896.49184 1.56693
2894.44340 1.56613
2892.39496 1.56563
2890.34652 1.56541
2888.29808 1.56479
2886.24965 1.56424
2884.20121 1.56403
2882.15277 1.56371
2880.10433 1.56331
2878.05589 1.56333
2876.00745 1.56380
2873.95902 1.56421
2871.91058 1.56410
2869.86214 1.56349
2867.81370 1.56282
2865.76526 1.56241
2863.71682 1.56253
2861.66839 1.56341
2859.61995 1.56420
2857.57151 1.56398
2855.52307 1.56340
2853.47463 1.56316
2851.42619 1.56311
2849.37776 1.56273
2847.32932 1.56195
2845.28088 1.56128
2843.23244 1.56081
2841.18400 1.56042
2839.13556 1.56033
2837.08713 1.56026
2835.03869 1.55986
2832.99025 1.55956
2830.94181 1.55934
2828.89337 1.55887
2826.84493 1.55889
2824.79650 1.55925
2822.74806 1.55873
2820.69962 1.55793
2818.65118 1.55767
2816.60274 1.55780
2814.55430 1.55824
2812.50587 1.55845
2810.45743 1.55797
2808.40899 1.55728
2806.36055 1.55721
2804.31211 1.55747
2802.26367 1.55710
2800.21524 1.55617
2798.16680 1.55563
2796.11836 1.55614
2794.06992 1.55657
2792.02148 1.55579
2789.97304 1.55454
2787.92461 1.55363
2785.87617 1.55320
2783.82773 1.55344
2781.77929 1.55394
2779.73085 1.55400
2777.68241 1.55394
2775.63397 1.55411
2773.58554 1.55381
2771.53710 1.55296
2769.48866 1.55261
2767.44022 1.55297
2765.39178 1.55315
2763.34334 1.55282
2761.29491 1.55232
2759.24647 1.55182
2757.19803 1.55118
2755.14959 1.55084
2753.10115 1.55130
2751.05271 1.55193
2749.00428 1.55184
2746.95584 1.55114
2744.90740 1.55065
2742.85896 1.55041
2740.81052 1.55016
2738.76208 1.55013
2736.71365 1.54991
2734.66521 1.54917
2732.61677 1.54863
2730.56833 1.54834
2728.51989 1.54796
2726.47145 1.54794
2724.42302 1.54801
2722.37458 1.54773
2720.32614 1.54741
2718.27770 1.54714
2716.22926 1.54673
2714.18082 1.54631
2712.13239 1.54641
2710.08395 1.54709
2708.03551 1.54742
2705.98707 1.54664
2703.93863 1.54546
2701.89019 1.54514
2699.84176 1.54529
2697.79332 1.54524
2695.74488 1.54542
2693.69644 1.54565
2691.64800 1.54551
2689.59956 1.54498
2687.55113 1.54425
2685.50269 1.54373
2683.45425 1.54363
2681.40581 1.54363
2679.35737 1.54330
2677.30893 1.54266
2675.26050 1.54214
2673.21206 1.54205
2671.16362 1.54203
2669.11518 1.54162
2667.06674 1.54105
2665.01830 1.54088
2662.96987 1.54112
2660.92143 1.54123
2658.87299 1.54103
2656.82455 1.54049
2654.77611 1.53972
2652.72767 1.53912
2650.67924 1.53917
2648.63080 1.53931
2646.58236 1.53877
2644.53392 1.53844
2642.48548 1.53865
2640.43704 1.53873
2638.38860 1.53824
2636.34017 1.53739
2634.29173 1.53706
2632.24329 1.53732
2630.19485 1.53766
2628.14641 1.53802
2626.09797 1.53821
2624.04954 1.53789
2622.00110 1.53709
2619.95266 1.53632
2617.90422 1.53602
2615.85578 1.53582
2613.80734 1.53505
2611.75891 1.53437
2609.71047 1.53456
2607.66203 1.53487
2605.61359 1.53464
2603.56515 1.53428
2601.51671 1.53408
2599.46828 1.53375
2597.41984 1.53327
2595.37140 1.53295
2593.32296 1.53271
2591.27452 1.53266
2589.22608 1.53285
2587.17765 1.53311
2585.12921 1.53332
2583.08077 1.53331
2581.03233 1.53349
2578.98389 1.53375
2576.93545 1.53338
2574.88702 1.53241
2572.83858 1.53161
2570.79014 1.53150
2568.74170 1.53176
2566.69326 1.53152
2564.64482 1.53093
2562.59639 1.53061
2560.54795 1.53013
2558.49951 1.52960
2556.45107 1.52962
2554.40263 1.52990
2552.35419 1.52990
2550.30576 1.52979
2548.25732 1.52994
2546.20888 1.53001
2544.16044 1.52958
2542.11200 1.52867
2540.06356 1.52799
2538.01513 1.52813
2535.96669 1.52835
2533.91825 1.52792
2531.86981 1.52769
2529.82137 1.52831
2527.77293 1.52868
2525.72450 1.52846
2523.67606 1.52830
2521.62762 1.52792
2519.57918 1.52725
2517.53074 1.52687
2515.48230 1.52707
2513.43387 1.52745
2511.38543 1.52733
2509.33699 1.52683
2507.28855 1.52630
2505.24011 1.52595
2503.19167 1.52577
2501.14324 1.52574
2499.09480 1.52578
2497.04636 1.52571
2494.99792 1.52578
2492.94948 1.52589
2490.90104 1.52567
2488.85260 1.52535
2486.80417 1.52518
2484.75573 1.52527
2482.70729 1.52558
2480.65885 1.52562
2478.61041 1.52476
2476.56197 1.52353
2474.51354 1.52312
2472.46510 1.52341
2470.41666 1.52372
2468.36822 1.52380
2466.31978 1.52341
2464.27134 1.52290
2462.22291 1.52240
2460.17447 1.52170
2458.12603 1.52155
2456.07759 1.52187
2454.02915 1.52173
2451.98071 1.52137
2449.93228 1.52135
2447.88384 1.52161
2445.83540 1.52194
2443.78696 1.52201
2441.73852 1.52165
2439.69008 1.52102
2437.64165 1.52048
2435.59321 1.52024
2433.54477 1.52003
2431.49633 1.51985
2429.44789 1.51971
2427.39945 1.51975
2425.35102 1.52004
2423.30258 1.51959
2421.25414 1.51805
2419.20570 1.51683
2417.15726 1.51715
2415.10882 1.51822
2413.06039 1.51892
2411.01195 1.51916
2408.96351 1.51880
2406.91507 1.51833
2404.86663 1.51820
2402.81819 1.51799
2400.76976 1.51769
2398.72132 1.51744
2396.67288 1.51745
2394.62444 1.51782
2392.57600 1.51815
2390.52756 1.51824
2388.47913 1.51805
2386.43069 1.51803
2384.38225 1.51876
2382.33381 1.51963
2380.28537 1.52010
2378.23693 1.52096
2376.18850 1.52247
2374.14006 1.52367
2372.09162 1.52412
2370.04318 1.52386
2367.99474 1.52295
2365.94630 1.52167
2363.89787 1.52080
2361.84943 1.52151
2359.80099 1.52401
2357.75255 1.52588
2355.70411 1.52553
2353.65567 1.52352
2351.60723 1.52195
2349.55880 1.52282
2347.51036 1.52462
2345.46192 1.52489
2343.41348 1.52353
2341.36504 1.52282
2339.31660 1.52314
2337.26817 1.52306
2335.21973 1.52183
2333.17129 1.52115
2331.12285 1.52176
2329.07441 1.52214
2327.02597 1.52258
2324.97754 1.52336
2322.92910 1.52320
2320.88066 1.52161
2318.83222 1.52004
2316.78378 1.51971
2314.73534 1.51971
2312.68691 1.51931
2310.63847 1.51910
2308.59003 1.51912
2306.54159 1.51855
2304.49315 1.51763
2302.44471 1.51735
2300.39628 1.51767
2298.34784 1.51761
2296.29940 1.51683
2294.25096 1.51614
2292.20252 1.51604
2290.15408 1.51585
2288.10565 1.51519
2286.05721 1.51458
2284.00877 1.51452
2281.96033 1.51497
2279.91189 1.51529
2277.86345 1.51522
2275.81502 1.51519
2273.76658 1.51527
2271.71814 1.51535
2269.66970 1.51543
2267.62126 1.51535
2265.57282 1.51507
2263.52439 1.51489
2261.47595 1.51480
2259.42751 1.51461
2257.37907 1.51450
2255.33063 1.51442
2253.28219 1.51440
2251.23376 1.51454
2249.18532 1.51443
2247.13688 1.51420
2245.08844 1.51410
2243.04000 1.51390
2240.99156 1.51390
2238.94313 1.51424
2236.89469 1.51445
2234.84625 1.51434
2232.79781 1.51411
2230.74937 1.51410
2228.70093 1.51402
2226.65250 1.51338
2224.60406 1.51271
2222.55562 1.51279
2220.50718 1.51351
2218.45874 1.51429
2216.41030 1.51482
2214.36186 1.51507
2212.31343 1.51513
2210.26499 1.51490
2208.21655 1.51433
2206.16811 1.51415
2204.11967 1.51472
2202.07123 1.51519
2200.02280 1.51512
2197.97436 1.51516
2195.92592 1.51544
2193.87748 1.51558
2191.82904 1.51559
2189.78060 1.51519
2187.73217 1.51445
2185.68373 1.51422
2183.63529 1.51454
2181.58685 1.51486
2179.53841 1.51517
2177.48997 1.51532
2175.44154 1.51483
2173.39310 1.51426
2171.34466 1.51444
2169.29622 1.51500
2167.24778 1.51507
2165.19934 1.51479
2163.15091 1.51448
2161.10247 1.51406
2159.05403 1.51423
2157.00559 1.51484
2154.95715 1.51489
2152.90871 1.51479
2150.86028 1.51476
2148.81184 1.51456
2146.76340 1.51459
2144.71496 1.51475
2142.66652 1.51456
2140.61808 1.51427
2138.56965 1.51422
2136.52121 1.51456
2134.47277 1.51478
2132.42433 1.51422
2130.37589 1.51338
2128.32745 1.51308
2126.27902 1.51337
2124.23058 1.51385
2122.18214 1.51389
2120.13370 1.51341
2118.08526 1.51305
2116.03682 1.51318
2113.98839 1.51348
2111.93995 1.51354
2109.89151 1.51336
2107.84307 1.51342
2105.79463 1.51388
2103.74619 1.51404
2101.69776 1.51359
2099.64932 1.51328
2097.60088 1.51348
2095.55244 1.51359
2093.50400 1.51353
2091.45556 1.51369
2089.40713 1.51339
2087.35869 1.51237
2085.31025 1.51192
2083.26181 1.51247
2081.21337 1.51284
2079.16493 1.51240
2077.11649 1.51211
2075.06806 1.51263
2073.01962 1.51308
2070.97118 1.51293
2068.92274 1.51300
2066.87430 1.51407
2064.82586 1.51495
2062.77743 1.51425
2060.72899 1.51338
2058.68055 1.51353
2056.63211 1.51387
2054.58367 1.51371
2052.53523 1.51293
2050.48680 1.51224
2048.43836 1.51254
2046.38992 1.51340
2044.34148 1.51423
2042.29304 1.51465
2040.24460 1.51424
2038.19617 1.51385
2036.14773 1.51421
2034.09929 1.51454
2032.05085 1.51445
2030.00241 1.51414
2027.95397 1.51397
2025.90554 1.51402
2023.85710 1.51394
2021.80866 1.51394
2019.76022 1.51449
2017.71178 1.51526
2015.66334 1.51496
2013.61491 1.51386
2011.56647 1.51335
2009.51803 1.51371
2007.46959 1.51443
2005.42115 1.51483
2003.37271 1.51474
2001.32428 1.51458
1999.27584 1.51449
1997.22740 1.51429
1995.17896 1.51475
1993.13052 1.51642
1991.08208 1.51738
1989.03365 1.51664
1986.98521 1.51547
1984.93677 1.51435
1982.88833 1.51376
1980.83989 1.51424
1978.79145 1.51489
1976.74302 1.51454
1974.69458 1.51343
1972.64614 1.51256
1970.59770 1.51307
1968.54926 1.51493
1966.50082 1.51559
1964.45239 1.51417
1962.40395 1.51318
1960.35551 1.51344
1958.30707 1.51402
1956.25863 1.51447
1954.21019 1.51442
1952.16176 1.51399
1950.11332 1.51362
1948.06488 1.51390
1946.01644 1.51551
1943.96800 1.51784
1941.91956 1.51833
1939.87112 1.51645
1937.82269 1.51489
1935.77425 1.51499
1933.72581 1.51572
1931.67737 1.51544
1929.62893 1.51449
1927.58049 1.51417
1925.53206 1.51564
1923.48362 1.51813
1921.43518 1.51869
1919.38674 1.51778
1917.33830 1.51659
1915.28986 1.51518
1913.24143 1.51488
1911.19299 1.51612
1909.14455 1.51748
1907.09611 1.51719
1905.04767 1.51586
1902.99923 1.51507
1900.95080 1.51508
1898.90236 1.51577
1896.85392 1.51717
1894.80548 1.51793
1892.75704 1.51805
1890.70860 1.51918
1888.66017 1.51966
1886.61173 1.51855
1884.56329 1.51770
1882.51485 1.51725
1880.46641 1.51698
1878.41797 1.51671
1876.36954 1.51623
1874.32110 1.51637
1872.27266 1.51872
1870.22422 1.52334
1868.17578 1.52528
1866.12734 1.52146
1864.07891 1.51742
1862.03047 1.51599
1859.98203 1.51628
1857.93359 1.51633
1855.88515 1.51554
1853.83671 1.51508
1851.78828 1.51577
1849.73984 1.51777
1847.69140 1.52092
1845.64296 1.52408
1843.59452 1.52362
1841.54608 1.51988
1839.49765 1.51804
1837.44921 1.51822
1835.40077 1.51804
1833.35233 1.51855
1831.30389 1.52180
1829.25545 1.52411
1827.20702 1.52259
1825.15858 1.52076
1823.11014 1.51895
1821.06170 1.51735
1819.01326 1.51687
1816.96482 1.51665
1814.91639 1.51679
1812.86795 1.51868
1810.81951 1.52076
1808.77107 1.52026
1806.72263 1.51880
1804.67419 1.51915
1802.62575 1.52164
1800.57732 1.52367
1798.52888 1.52353
1796.48044 1.52372
1794.43200 1.52615
1792.38356 1.52829
1790.33512 1.52486
1788.28669 1.52052
1786.23825 1.51961
1784.18981 1.52067
1782.14137 1.52183
1780.09293 1.52220
1778.04449 1.52193
1775.99606 1.52350
1773.94762 1.52828
1771.89918 1.53172
1769.85074 1.52806
1767.80230 1.52302
1765.75386 1.52102
1763.70543 1.52220
1761.65699 1.52370
1759.60855 1.52320
1757.56011 1.52246
1755.51167 1.52178
1753.46323 1.52315
1751.41480 1.52853
1749.36636 1.53355
1747.31792 1.53297
1745.26948 1.52993
1743.22104 1.52735
1741.17260 1.52643
1739.12417 1.52640
1737.07573 1.52695
1735.02729 1.53028
1732.97885 1.53263
1730.93041 1.52869
1728.88197 1.52289
1726.83354 1.51886
1724.78510 1.51815
1722.73666 1.51954
1720.68822 1.52321
1718.63978 1.53108
1716.59134 1.53691
1714.54291 1.53179
1712.49447 1.52532
1710.44603 1.52230
1708.39759 1.52344
1706.34915 1.52749
1704.30071 1.53028
1702.25228 1.53219
1700.20384 1.53734
1698.15540 1.54122
1696.10696 1.53581
1694.05852 1.52652
1692.01008 1.52331
1689.96165 1.52604
1687.91321 1.53138
1685.86477 1.53786
1683.81633 1.54183
1681.76789 1.53718
1679.71945 1.53199
1677.67102 1.52969
1675.62258 1.53052
1673.57414 1.53299
1671.52570 1.53668
1669.47726 1.53777
1667.42882 1.53223
1665.38038 1.52887
1663.33195 1.52983
1661.28351 1.52958
1659.23507 1.52786
1657.18663 1.52956
1655.13819 1.53584
1653.08975 1.54232
1651.04132 1.54155
1648.99288 1.54345
1646.94444 1.54454
1644.89600 1.53704
1642.84756 1.53116
1640.79912 1.53049
1638.75069 1.53473
1636.70225 1.54083
1634.65381 1.53747
1632.60537 1.53061
1630.55693 1.52879
1628.50849 1.53025
1626.46006 1.53189
1624.41162 1.53286
1622.36318 1.53201
1620.31474 1.53056
1618.26630 1.53199
1616.21786 1.53245
1614.16943 1.52792
1612.12099 1.52492
1610.07255 1.52543
1608.02411 1.52640
1605.97567 1.52586
1603.92723 1.52533
1601.87880 1.52502
1599.83036 1.52425
1597.78192 1.52417
1595.73348 1.52526
1593.68504 1.52541
1591.63660 1.52435
1589.58817 1.52346
1587.53973 1.52263
1585.49129 1.52180
1583.44285 1.52143
1581.39441 1.52234
1579.34597 1.52567
1577.29754 1.53095
1575.24910 1.53133
1573.20066 1.52806
1571.15222 1.52855
1569.10378 1.52973
1567.05534 1.52785
1565.00691 1.52735
1562.95847 1.52945
1560.91003 1.53471
1558.86159 1.54338
1556.81315 1.54093
1554.76471 1.53417
1552.71628 1.52950
1550.66784 1.52780
1548.61940 1.52716
1546.57096 1.52928
1544.52252 1.53765
1542.47408 1.55049
1540.42565 1.55448
1538.37721 1.54039
1536.32877 1.53271
1534.28033 1.53123
1532.23189 1.52842
1530.18345 1.52594
1528.13501 1.52813
1526.08658 1.53327
1524.03814 1.53835
1521.98970 1.54145
1519.94126 1.53904
1517.89282 1.53563
1515.84438 1.53096
1513.79595 1.52624
1511.74751 1.52699
1509.69907 1.53486
1507.65063 1.54312
1505.60219 1.53151
1503.55375 1.52101
1501.50532 1.51877
1499.45688 1.52055
1497.40844 1.52105
1495.36000 1.51597
1493.31156 1.51345
1491.26312 1.51791
1489.21469 1.52249
1487.16625 1.51698
1485.11781 1.50997
1483.06937 1.50712
1481.02093 1.50680
1478.97249 1.50769
1476.92406 1.51145
1474.87562 1.51850
1472.82718 1.52129
1470.77874 1.51394
1468.73030 1.50849
1466.68186 1.50873
1464.63343 1.50988
1462.58499 1.50912
1460.53655 1.51211
1458.48811 1.52101
1456.43967 1.52160
1454.39123 1.51168
1452.34280 1.50625
1450.29436 1.50484
1448.24592 1.50445
1446.19748 1.50259
1444.14904 1.50028
1442.10060 1.49903
1440.05217 1.49989
1438.00373 1.50338
1435.95529 1.50525
1433.90685 1.50308
1431.85841 1.50216
1429.80997 1.50214
1427.76154 1.50107
1425.71310 1.50137
1423.66466 1.50322
1421.61622 1.50530
1419.56778 1.50811
1417.51934 1.50651
1415.47091 1.50074
1413.42247 1.49726
1411.37403 1.49642
1409.32559 1.49637
1407.27715 1.49700
1405.22871 1.49736
1403.18028 1.49611
1401.13184 1.49623
1399.08340 1.49863
1397.03496 1.50020
1394.98652 1.49844
1392.93808 1.49414
1390.88965 1.49210
1388.84121 1.49364
1386.79277 1.49463
1384.74433 1.49248
1382.69589 1.49050
1380.64745 1.49035
1378.59901 1.49188
1376.55058 1.49476
1374.50214 1.49643
1372.45370 1.49416
1370.40526 1.49148
1368.35682 1.49037
1366.30838 1.49048
1364.25995 1.49277
1362.21151 1.49418
1360.16307 1.49136
1358.11463 1.48840
1356.06619 1.48758
1354.01775 1.48737
1351.96932 1.48687
1349.92088 1.48663
1347.87244 1.48632
1345.82400 1.48577
1343.77556 1.48626
1341.72712 1.48934
1339.67869 1.49277
1337.63025 1.49116
1335.58181 1.48655
1333.53337 1.48342
1331.48493 1.48208
1329.43649 1.48161
1327.38806 1.48154
1325.33962 1.48178
1323.29118 1.48231
1321.24274 1.48334
1319.19430 1.48453
1317.14586 1.48475
1315.09743 1.48414
1313.04899 1.48319
1311.00055 1.48183
1308.95211 1.48074
1306.90367 1.47999
1304.85523 1.47897
1302.80680 1.47818
1300.75836 1.47844
1298.70992 1.47905
1296.66148 1.47884
1294.61304 1.47847
1292.56460 1.47884
1290.51617 1.47933
1288.46773 1.47919
1286.41929 1.47837
1284.37085 1.47759
1282.32241 1.47750
1280.27397 1.47776
1278.22554 1.47788
1276.17710 1.47797
1274.12866 1.47830
1272.08022 1.47879
1270.03178 1.47885
1267.98334 1.47847
1265.93491 1.47817
1263.88647 1.47807
1261.83803 1.47836
1259.78959 1.47862
1257.74115 1.47801
1255.69271 1.47689
1253.64428 1.47594
1251.59584 1.47524
1249.54740 1.47482
1247.49896 1.47443
1245.45052 1.47373
1243.40208 1.47290
1241.35364 1.47249
1239.30521 1.47240
1237.25677 1.47207
1235.20833 1.47156
1233.15989 1.47108
1231.11145 1.47075
1229.06301 1.47051
1227.01458 1.46999
1224.96614 1.46912
1222.91770 1.46834
1220.86926 1.46812
1218.82082 1.46810
1216.77238 1.46804
1214.72395 1.46779
1212.67551 1.46701
1210.62707 1.46628
1208.57863 1.46605
1206.53019 1.46584
1204.48175 1.46550
1202.43332 1.46537
1200.38488 1.46537
1198.33644 1.46537
1196.28800 1.46535
1194.23956 1.46539
1192.19112 1.46558
1190.14269 1.46577
1188.09425 1.46581
1186.04581 1.46553
1183.99737 1.46522
1181.94893 1.46523
1179.90049 1.46521
1177.85206 1.46500
1175.80362 1.46466
1173.75518 1.46425
1171.70674 1.46420
1169.65830 1.46456
1167.60986 1.46486
1165.56143 1.46536
1163.51299 1.46662
1161.46455 1.46825
1159.41611 1.46926
1157.36767 1.46892
1155.31923 1.46719
1153.27080 1.46507
1151.22236 1.46366
1149.17392 1.46302
1147.12548 1.46262
1145.07704 1.46239
1143.02860 1.46237
1140.98017 1.46201
1138.93173 1.46119
1136.88329 1.46056
1134.83485 1.46024
1132.78641 1.46008
1130.73797 1.46015
1128.68954 1.46007
1126.64110 1.45995
1124.59266 1.46012
1122.54422 1.46000
1120.49578 1.45959
1118.44734 1.45957
1116.39891 1.45996
1114.35047 1.46059
1112.30203 1.46104
1110.25359 1.46100
1108.20515 1.46090
1106.15671 1.46068
1104.10827 1.46052
1102.05984 1.46086
1100.01140 1.46096
1097.96296 1.46066
1095.91452 1.46055
1093.86608 1.46059
1091.81764 1.46053
1089.76921 1.46014
1087.72077 1.45960
1085.67233 1.45977
1083.62389 1.46013
1081.57545 1.46001
1079.52701 1.46013
1077.47858 1.46037
1075.43014 1.46015
1073.38170 1.46026
1071.33326 1.46092
1069.28482 1.46150
1067.23638 1.46249
1065.18795 1.46420
1063.13951 1.46615
1061.09107 1.46841
1059.04263 1.47090
1056.99419 1.47264
1054.94575 1.47289
1052.89732 1.47260
1050.84888 1.47289
1048.80044 1.47328
1046.75200 1.47330
1044.70356 1.47368
1042.65512 1.47493
1040.60669 1.47654
1038.55825 1.47789
1036.50981 1.47860
1034.46137 1.47881
1032.41293 1.47891
1030.36449 1.47907
1028.31606 1.47971
1026.26762 1.48082
1024.21918 1.48131
1022.17074 1.48094
1020.12230 1.48075
1018.07386 1.48136
1016.02543 1.48238
1013.97699 1.48353
1011.92855 1.48450
1009.88011 1.48471
1007.83167 1.48433
1005.78323 1.48400
1003.73480 1.48411
1001.68636 1.48443
999.63792 1.48441
997.58948 1.48410
995.54104 1.48399
993.49260 1.48411
991.44417 1.48395
989.39573 1.48344
987.34729 1.48325
985.29885 1.48313
983.25041 1.48267
981.20197 1.48284
979.15354 1.48335
977.10510 1.48298
975.05666 1.48176
973.00822 1.48055
970.95978 1.48026
968.91134 1.48039
966.86290 1.48019
964.81447 1.47996
962.76603 1.47945
960.71759 1.47881
958.66915 1.47870
956.62071 1.47849
954.57227 1.47766
952.52384 1.47658
950.47540 1.47517
948.42696 1.47382
946.37852 1.47321
944.33008 1.47271
942.28164 1.47193
940.23321 1.47168
938.18477 1.47201
936.13633 1.47219
934.08789 1.47191
932.03945 1.47133
929.99101 1.47067
927.94258 1.47023
925.89414 1.47038
923.84570 1.47083
921.79726 1.47100
919.74882 1.47096
917.70038 1.47086
915.65195 1.47042
913.60351 1.47005
911.55507 1.47069
909.50663 1.47193
907.45819 1.47265
905.40975 1.47262
903.36132 1.47206
901.31288 1.47141
899.26444 1.47103
897.21600 1.47118
895.16756 1.47148
893.11912 1.47121
891.07069 1.47091
889.02225 1.47133
886.97381 1.47156
884.92537 1.47073
882.87693 1.46953
880.82849 1.46873
878.78006 1.46842
876.73162 1.46817
874.68318 1.46747
872.63474 1.46661
870.58630 1.46607
868.53786 1.46550
866.48943 1.46467
864.44099 1.46402
862.39255 1.46369
860.34411 1.46344
858.29567 1.46242
856.24723 1.46062
854.19880 1.45956
852.15036 1.45919
850.10192 1.45810
848.05348 1.45690
846.00504 1.45640
843.95660 1.45540
841.90817 1.45386
839.85973 1.45280
837.81129 1.45244
835.76285 1.45230
833.71441 1.45163
831.66597 1.45083
829.61753 1.45047
827.56910 1.45018
825.52066 1.44957
823.47222 1.44931
821.42378 1.45029
819.37534 1.45221
817.32690 1.45392
815.27847 1.45502
813.23003 1.45609
811.18159 1.45707
809.13315 1.45746
807.08471 1.45722
805.03627 1.45695
802.98784 1.45651
800.93940 1.45558
798.89096 1.45535
796.84252 1.45635
794.79408 1.45687
792.74564 1.45653
790.69721 1.45660
788.64877 1.45605
786.60033 1.45376
784.55189 1.45116
782.50345 1.44965
780.45501 1.44799
778.40658 1.44459
776.35814 1.44040
774.30970 1.43648
772.26126 1.43298
770.21282 1.42972
768.16438 1.42597
766.11595 1.42207
764.06751 1.41979
762.01907 1.41872
759.97063 1.41651
757.92219 1.41305
755.87375 1.41043
753.82532 1.40969
751.77688 1.40909
749.72844 1.40744
747.68000 1.40521
745.63156 1.40189
743.58312 1.39890
741.53469 1.39815
739.48625 1.39758
737.43781 1.39616
735.38937 1.39552
733.34093 1.39509
731.29249 1.39352
729.24406 1.39128
727.19562 1.38897
725.14718 1.38748
723.09874 1.38648
721.05030 1.38322
719.00186 1.37891
716.95343 1.37729
714.90499 1.37770
712.85655 1.37885
710.80811 1.38012
708.75967 1.37996
706.71123 1.37863
704.66280 1.37710
702.61436 1.37577
700.56592 1.37612
698.51748 1.37781
696.46904 1.37841
694.42060 1.37699
692.37216 1.37386
690.32373 1.37015
688.27529 1.36751
686.22685 1.36693
684.17841 1.36833
682.12997 1.36976
680.08153 1.36919
678.03310 1.36683
675.98466 1.36502
673.93622 1.36468
671.88778 1.36453
669.83934 1.36367
667.79090 1.35866
665.74247 1.35553
663.69403 1.35670
661.64559 1.35484
659.59715 1.34967
657.54871 1.34436
655.50027 1.33699
653.45184 1.32763
651.40340 1.32108
649.35496 1.31503
647.30652 1.30358
645.25808 1.29064
643.20964 1.28025
641.16121 1.27133
639.11277 1.26403
637.06433 1.26059
635.01589 1.25780
632.96745 1.24991
630.91901 1.24017
628.87058 1.23529
626.82214 1.23461
624.77370 1.23082
622.72526 1.22350
620.67682 1.21949
618.62838 1.21668
616.57995 1.21011
614.53151 1.20569
612.48307 1.20697
610.43463 1.20799
608.38619 1.20677
606.33775 1.20337
604.28932 1.19553
602.24088 1.18841
600.19244 1.18515
598.14400 1.18182
