3996.50324 0.93171
3994.45480 0.93177
3992.40636 0.93156
3990.35792 0.93100
3988.30948 0.93023
3986.26104 0.92995
3984.21261 0.93025
3982.16417 0.93043
3980.11573 0.93022
3978.06729 0.93018
3976.01885 0.93052
3973.97041 0.93054
3971.92198 0.93006
3969.87354 0.92935
3967.82510 0.92855
3965.77666 0.92833
3963.72822 0.92896
3961.67978 0.92935
3959.63135 0.92894
3957.58291 0.92848
3955.53447 0.92822
3953.48603 0.92874
3951.43759 0.93061
3949.38915 0.93206
3947.34072 0.93142
3945.29228 0.93104
3943.24384 0.93100
3941.19540 0.92903
3939.14696 0.92689
3937.09852 0.92635
3935.05009 0.92799
3933.00165 0.93096
3930.95321 0.93150
3928.90477 0.92954
3926.85633 0.92914
3924.80789 0.93007
3922.75946 0.92962
3920.71102 0.92936
3918.66258 0.93021
3916.61414 0.92890
3914.56570 0.92529
3912.51726 0.92304
3910.46883 0.92320
3908.42039 0.92613
3906.37195 0.93266
3904.32351 0.93955
3902.27507 0.94063
3900.22663 0.93671
3898.17820 0.93081
3896.12976 0.92729
3894.08132 0.92856
3892.03288 0.93061
3889.98444 0.92888
3887.93600 0.92835
3885.88756 0.93049
3883.83913 0.93176
3881.79069 0.93163
3879.74225 0.92823
3877.69381 0.92513
3875.64537 0.92729
3873.59693 0.93238
3871.54850 0.93598
3869.50006 0.93463
3867.45162 0.93185
3865.40318 0.93265
3863.35474 0.93184
3861.30630 0.92726
3859.25787 0.92596
3857.20943 0.93032
3855.16099 0.93864
3853.11255 0.94183
3851.06411 0.93262
3849.01567 0.92514
3846.96724 0.92288
3844.91880 0.92534
3842.87036 0.93070
3840.82192 0.93694
3838.77348 0.93977
3836.72504 0.93503
3834.67661 0.92937
3832.62817 0.92578
3830.57973 0.92341
3828.53129 0.92317
3826.48285 0.92442
3824.43441 0.92707
3822.38598 0.93197
3820.33754 0.93348
3818.28910 0.93069
3816.24066 0.92696
3814.19222 0.92058
3812.14378 0.91655
3810.09535 0.91727
3808.04691 0.92105
3805.99847 0.92384
3803.95003 0.92658
3801.90159 0.92940
3799.85315 0.92738
3797.80472 0.92355
3795.75628 0.91817
3793.70784 0.91293
3791.65940 0.91075
3789.61096 0.91078
3787.56252 0.91253
3785.51409 0.91475
3783.46565 0.91532
3781.41721 0.91579
3779.36877 0.91565
3777.32033 0.91233
3775.27189 0.90990
3773.22346 0.91139
3771.17502 0.91523
3769.12658 0.91726
3767.07814 0.91698
3765.02970 0.91569
3762.98126 0.91495
3760.93283 0.91743
3758.88439 0.92034
3756.83595 0.92052
3754.78751 0.92248
3752.73907 0.92923
3750.69063 0.93512
3748.64219 0.93335
3746.59376 0.93140
3744.54532 0.92781
3742.49688 0.92303
3740.44844 0.92243
3738.40000 0.92624
3736.35156 0.93304
3734.30313 0.93288
3732.25469 0.92321
3730.20625 0.91632
3728.15781 0.91553
3726.10937 0.91768
3724.06093 0.91836
3722.01250 0.91626
3719.96406 0.91246
3717.91562 0.90940
3715.86718 0.91002
3713.81874 0.91551
3711.77030 0.92155
3709.72187 0.91788
3707.67343 0.91047
3705.62499 0.90744
3703.57655 0.90845
3701.52811 0.90877
3699.47967 0.90617
3697.43124 0.90469
3695.38280 0.90591
3693.33436 0.91041
3691.28592 0.91786
3689.23748 0.91931
3687.18904 0.91077
3685.14061 0.90447
3683.09217 0.90285
3681.04373 0.90548
3678.99529 0.91206
3676.94685 0.91972
3674.89841 0.91992
3672.84998 0.91665
3670.80154 0.91665
3668.75310 0.91079
3666.70466 0.90246
3664.65622 0.89855
3662.60778 0.89772
3660.55935 0.89882
3658.51091 0.90174
3656.46247 0.90423
3654.41403 0.90549
3652.36559 0.91094
3650.31715 0.92235
3648.26872 0.92287
3646.22028 0.90979
3644.17184 0.90179
3642.12340 0.89890
3640.07496 0.89795
3638.02652 0.89783
3635.97809 0.89870
3633.92965 0.90094
3631.88121 0.90530
3629.83277 0.91059
3627.78433 0.90808
3625.73589 0.90123
3623.68746 0.89938
3621.63902 0.90308
3619.59058 0.90814
3617.54214 0.90821
3615.49370 0.90707
3613.44526 0.90643
3611.39682 0.90497
3609.34839 0.90408
3607.29995 0.90103
3605.25151 0.89687
3603.20307 0.89650
3601.15463 0.89868
3599.10619 0.89971
3597.05776 0.89979
3595.00932 0.89918
3592.96088 0.89701
3590.91244 0.89696
3588.86400 0.90075
3586.81556 0.90125
3584.76713 0.89633
3582.71869 0.89313
3580.67025 0.89212
3578.62181 0.89168
3576.57337 0.89111
3574.52493 0.89030
3572.47650 0.89052
3570.42806 0.89435
3568.37962 0.90182
3566.33118 0.90435
3564.28274 0.89855
3562.23430 0.89347
3560.18587 0.89059
3558.13743 0.88864
3556.08899 0.88850
3554.04055 0.89014
3551.99211 0.89085
3549.94367 0.89077
3547.89524 0.89284
3545.84680 0.89455
3543.79836 0.89178
3541.74992 0.88766
3539.70148 0.88610
3537.65304 0.88666
3535.60461 0.88668
3533.55617 0.88616
3531.50773 0.88721
3529.45929 0.88967
3527.41085 0.89122
3525.36241 0.89115
3523.31398 0.88973
3521.26554 0.88722
3519.21710 0.88523
3517.16866 0.88423
3515.12022 0.88384
3513.07178 0.88455
3511.02335 0.88609
3508.97491 0.88646
3506.92647 0.88623
3504.87803 0.88759
3502.82959 0.88823
3500.78115 0.88611
3498.73272 0.88431
3496.68428 0.88396
3494.63584 0.88333
3492.58740 0.88257
3490.53896 0.88300
3488.49052 0.88384
3486.44209 0.88391
3484.39365 0.88415
3482.34521 0.88473
3480.29677 0.88402
3478.24833 0.88260
3476.19989 0.88202
3474.15146 0.88194
3472.10302 0.88154
3470.05458 0.88117
3468.00614 0.88134
3465.95770 0.88181
3463.90926 0.88229
3461.86082 0.88240
3459.81239 0.88180
3457.76395 0.88097
3455.71551 0.88041
3453.66707 0.88024
3451.61863 0.88058
3449.57019 0.88173
3447.52176 0.88279
3445.47332 0.88246
3443.42488 0.88170
3441.37644 0.88131
3439.32800 0.88097
3437.27956 0.88053
3435.23113 0.88005
3433.18269 0.87974
3431.13425 0.87958
3429.08581 0.87949
3427.03737 0.87957
3424.98893 0.88012
3422.94050 0.88110
3420.89206 0.88139
3418.84362 0.88055
3416.79518 0.87972
3414.74674 0.87934
3412.69830 0.87917
3410.64987 0.87905
3408.60143 0.87898
3406.55299 0.87919
3404.50455 0.87941
3402.45611 0.87931
3400.40767 0.87934
3398.35924 0.87955
3396.31080 0.87953
3394.26236 0.87956
3392.21392 0.87949
3390.16548 0.87900
3388.11704 0.87878
3386.06861 0.87902
3384.02017 0.87911
3381.97173 0.87874
3379.92329 0.87827
3377.87485 0.87808
3375.82641 0.87825
3373.77798 0.87843
3371.72954 0.87829
3369.68110 0.87820
3367.63266 0.87844
3365.58422 0.87861
3363.53578 0.87847
3361.48735 0.87810
3359.43891 0.87776
3357.39047 0.87778
3355.34203 0.87783
3353.29359 0.87759
3351.24515 0.87734
3349.19672 0.87712
3347.14828 0.87691
3345.09984 0.87684
3343.05140 0.87689
3341.00296 0.87705
3338.95452 0.87741
3336.90609 0.87761
3334.85765 0.87733
3332.80921 0.87686
3330.76077 0.87659
3328.71233 0.87656
3326.66389 0.87658
3324.61545 0.87656
3322.56702 0.87639
3320.51858 0.87600
3318.47014 0.87565
3316.42170 0.87558
3314.37326 0.87571
3312.32482 0.87599
3310.27639 0.87627
3308.22795 0.87612
3306.17951 0.87555
3304.13107 0.87511
3302.08263 0.87505
3300.03419 0.87515
3297.98576 0.87526
3295.93732 0.87525
3293.88888 0.87514
3291.84044 0.87521
3289.79200 0.87533
3287.74356 0.87523
3285.69513 0.87510
3283.64669 0.87498
3281.59825 0.87482
3279.54981 0.87500
3277.50137 0.87544
3275.45293 0.87560
3273.40450 0.87529
3271.35606 0.87487
3269.30762 0.87471
3267.25918 0.87470
3265.21074 0.87463
3263.16230 0.87451
3261.11387 0.87449
3259.06543 0.87466
3257.01699 0.87476
3254.96855 0.87450
3252.92011 0.87404
3250.87167 0.87379
3248.82324 0.87383
3246.77480 0.87411
3244.72636 0.87415
3242.67792 0.87363
3240.62948 0.87308
3238.58104 0.87290
3236.53261 0.87298
3234.48417 0.87305
3232.43573 0.87300
3230.38729 0.87292
3228.33885 0.87280
3226.29041 0.87260
3224.24198 0.87247
3222.19354 0.87231
3220.14510 0.87194
3218.09666 0.87160
3216.04822 0.87174
3213.99978 0.87206
3211.95135 0.87185
3209.90291 0.87138
3207.85447 0.87098
3205.80603 0.87049
3203.75759 0.86991
3201.70915 0.86965
3199.66072 0.86995
3197.61228 0.87025
3195.56384 0.86996
3193.51540 0.86952
3191.46696 0.86929
3189.41852 0.86909
3187.37008 0.86900
3185.32165 0.86882
3183.27321 0.86838
3181.22477 0.86829
3179.17633 0.86853
3177.12789 0.86845
3175.07945 0.86806
3173.03102 0.86755
3170.98258 0.86696
3168.93414 0.86668
3166.88570 0.86665
3164.83726 0.86654
3162.78882 0.86630
3160.74039 0.86601
3158.69195 0.86582
3156.64351 0.86570
3154.59507 0.86545
3152.54663 0.86504
3150.49819 0.86466
3148.44976 0.86445
3146.40132 0.86428
3144.35288 0.86403
3142.30444 0.86375
3140.25600 0.86349
3138.20756 0.86340
3136.15913 0.86348
3134.11069 0.86339
3132.06225 0.86287
3130.01381 0.86244
3127.96537 0.86240
3125.91693 0.86232
3123.86850 0.86213
3121.82006 0.86198
3119.77162 0.86182
3117.72318 0.86159
3115.67474 0.86125
3113.62630 0.86089
3111.57787 0.86063
3109.52943 0.86035
3107.48099 0.86003
3105.43255 0.85985
3103.38411 0.85989
3101.33567 0.85993
3099.28724 0.85969
3097.23880 0.85938
3095.19036 0.85907
3093.14192 0.85848
3091.09348 0.85781
3089.04504 0.85732
3086.99661 0.85703
3084.94817 0.85708
3082.89973 0.85742
3080.85129 0.85751
3078.80285 0.85704
3076.75441 0.85640
3074.70598 0.85606
3072.65754 0.85586
3070.60910 0.85564
3068.56066 0.85557
3066.51222 0.85568
3064.46378 0.85557
3062.41535 0.85503
3060.36691 0.85461
3058.31847 0.85471
3056.27003 0.85480
3054.22159 0.85456
3052.17315 0.85430
3050.12471 0.85409
3048.07628 0.85378
3046.02784 0.85351
3043.97940 0.85335
3041.93096 0.85313
3039.88252 0.85288
3037.83408 0.85288
3035.78565 0.85317
3033.73721 0.85352
3031.68877 0.85355
3029.64033 0.85308
3027.59189 0.85255
3025.54345 0.85222
3023.49502 0.85197
3021.44658 0.85167
3019.39814 0.85133
3017.34970 0.85122
3015.30126 0.85133
3013.25282 0.85140
3011.20439 0.85133
3009.15595 0.85104
3007.10751 0.85073
3005.05907 0.85041
3003.01063 0.84995
3000.96219 0.84943
2998.91376 0.84915
2996.86532 0.84924
2994.81688 0.84934
2992.76844 0.84903
2990.72000 0.84865
2988.67156 0.84854
2986.62313 0.84840
2984.57469 0.84816
2982.52625 0.84800
2980.47781 0.84783
2978.42937 0.84765
2976.38093 0.84758
2974.33250 0.84751
2972.28406 0.84732
2970.23562 0.84709
2968.18718 0.84699
2966.13874 0.84705
2964.09030 0.84715
2962.04187 0.84716
2959.99343 0.84700
2957.94499 0.84684
2955.89655 0.84674
2953.84811 0.84660
2951.79967 0.84645
2949.75124 0.84626
2947.70280 0.84597
2945.65436 0.84564
2943.60592 0.84528
2941.55748 0.84510
2939.50904 0.84523
2937.46061 0.84538
2935.41217 0.84543
2933.36373 0.84551
2931.31529 0.84564
2929.26685 0.84578
2927.21841 0.84604
2925.16998 0.84642
2923.12154 0.84668
2921.07310 0.84675
2919.02466 0.84677
2916.97622 0.84667
2914.92778 0.84628
2912.87934 0.84576
2910.83091 0.84545
2908.78247 0.84527
2906.73403 0.84505
2904.68559 0.84472
2902.63715 0.84441
2900.58871 0.84424
2898.54028 0.84404
2896.49184 0.84377
2894.44340 0.84352
2892.39496 0.84326
2890.34652 0.84307
2888.29808 0.84292
2886.24965 0.84266
2884.20121 0.84246
2882.15277 0.84227
2880.10433 0.84193
2878.05589 0.84173
2876.00745 0.84171
2873.95902 0.84160
2871.91058 0.84142
2869.86214 0.84124
2867.81370 0.84096
2865.76526 0.84065
2863.71682 0.84046
2861.66839 0.84043
2859.61995 0.84051
2857.57151 0.84067
2855.52307 0.84093
2853.47463 0.84121
2851.42619 0.84140
2849.37776 0.84144
2847.32932 0.84124
2845.28088 0.84086
2843.23244 0.84044
2841.18400 0.84002
2839.13556 0.83959
2837.08713 0.83918
2835.03869 0.83895
2832.99025 0.83887
2830.94181 0.83870
2828.89337 0.83839
2826.84493 0.83809
2824.79650 0.83784
2822.74806 0.83771
2820.69962 0.83768
2818.65118 0.83749
2816.60274 0.83711
2814.55430 0.83677
2812.50587 0.83652
2810.45743 0.83631
2808.40899 0.83615
2806.36055 0.83601
2804.31211 0.83590
2802.26367 0.83585
2800.21524 0.83577
2798.16680 0.83557
2796.11836 0.83546
2794.06992 0.83542
2792.02148 0.83522
2789.97304 0.83499
2787.92461 0.83496
2785.87617 0.83488
2783.82773 0.83451
2781.77929 0.83413
2779.73085 0.83404
2777.68241 0.83404
2775.63397 0.83396
2773.58554 0.83383
2771.53710 0.83361
2769.48866 0.83334
2767.44022 0.83317
2765.39178 0.83311
2763.34334 0.83298
2761.29491 0.83273
2759.24647 0.83252
2757.19803 0.83245
2755.14959 0.83232
2753.10115 0.83208
2751.05271 0.83178
2749.00428 0.83149
2746.95584 0.83128
2744.90740 0.83121
2742.85896 0.83117
2740.81052 0.83109
2738.76208 0.83098
2736.71365 0.83079
2734.66521 0.83058
2732.61677 0.83043
2730.56833 0.83039
2728.51989 0.83040
2726.47145 0.83025
2724.42302 0.82994
2722.37458 0.82975
2720.32614 0.82968
2718.27770 0.82957
2716.22926 0.82942
2714.18082 0.82917
2712.13239 0.82895
2710.08395 0.82885
2708.03551 0.82876
2705.98707 0.82862
2703.93863 0.82849
2701.89019 0.82835
2699.84176 0.82816
2697.79332 0.82781
2695.74488 0.82738
2693.69644 0.82720
2691.64800 0.82728
2689.59956 0.82727
2687.55113 0.82706
2685.50269 0.82690
2683.45425 0.82686
2681.40581 0.82674
2679.35737 0.82656
2677.30893 0.82638
2675.26050 0.82627
2673.21206 0.82615
2671.16362 0.82583
2669.11518 0.82553
2667.06674 0.82545
2665.01830 0.82542
2662.96987 0.82528
2660.92143 0.82507
2658.87299 0.82492
2656.82455 0.82478
2654.77611 0.82456
2652.72767 0.82442
2650.67924 0.82435
2648.63080 0.82419
2646.58236 0.82412
2644.53392 0.82415
2642.48548 0.82402
2640.43704 0.82374
2638.38860 0.82350
2636.34017 0.82337
2634.29173 0.82344
2632.24329 0.82346
2630.19485 0.82312
2628.14641 0.82268
2626.09797 0.82253
2624.04954 0.82251
2622.00110 0.82242
2619.95266 0.82223
2617.90422 0.82198
2615.85578 0.82180
2613.80734 0.82168
2611.75891 0.82149
2609.71047 0.82129
2607.66203 0.82116
2605.61359 0.82095
2603.56515 0.82077
2601.51671 0.82076
2599.46828 0.82063
2597.41984 0.82043
2595.37140 0.82040
2593.32296 0.82028
2591.27452 0.81990
2589.22608 0.81963
2587.17765 0.81954
2585.12921 0.81945
2583.08077 0.81929
2581.03233 0.81920
2578.98389 0.81924
2576.93545 0.81921
2574.88702 0.81905
2572.83858 0.81884
2570.79014 0.81869
2568.74170 0.81859
2566.69326 0.81845
2564.64482 0.81833
2562.59639 0.81825
2560.54795 0.81809
2558.49951 0.81788
2556.45107 0.81772
2554.40263 0.81754
2552.35419 0.81722
2550.30576 0.81694
2548.25732 0.81685
2546.20888 0.81677
2544.16044 0.81665
2542.11200 0.81660
2540.06356 0.81646
2538.01513 0.81620
2535.96669 0.81601
2533.91825 0.81590
2531.86981 0.81576
2529.82137 0.81565
2527.77293 0.81558
2525.72450 0.81547
2523.67606 0.81529
2521.62762 0.81511
2519.57918 0.81500
2517.53074 0.81486
2515.48230 0.81468
2513.43387 0.81463
2511.38543 0.81464
2509.33699 0.81448
2507.28855 0.81414
2505.24011 0.81387
2503.19167 0.81379
2501.14324 0.81372
2499.09480 0.81363
2497.04636 0.81353
2494.99792 0.81337
2492.94948 0.81313
2490.90104 0.81290
2488.85260 0.81285
2486.80417 0.81279
2484.75573 0.81261
2482.70729 0.81247
2480.65885 0.81244
2478.61041 0.81246
2476.56197 0.81246
2474.51354 0.81228
2472.46510 0.81202
2470.41666 0.81185
2468.36822 0.81173
2466.31978 0.81161
2464.27134 0.81146
2462.22291 0.81122
2460.17447 0.81092
2458.12603 0.81069
2456.07759 0.81055
2454.02915 0.81048
2451.98071 0.81042
2449.93228 0.81034
2447.88384 0.81024
2445.83540 0.81005
2443.78696 0.80985
2441.73852 0.80974
2439.69008 0.80965
2437.64165 0.80949
2435.59321 0.80925
2433.54477 0.80906
2431.49633 0.80897
2429.44789 0.80888
2427.39945 0.80871
2425.35102 0.80850
2423.30258 0.80838
2421.25414 0.80832
2419.20570 0.80823
2417.15726 0.80808
2415.10882 0.80787
2413.06039 0.80772
2411.01195 0.80771
2408.96351 0.80771
2406.91507 0.80764
2404.86663 0.80752
2402.81819 0.80733
2400.76976 0.80706
2398.72132 0.80678
2396.67288 0.80663
2394.62444 0.80666
2392.57600 0.80669
2390.52756 0.80657
2388.47913 0.80643
2386.43069 0.80664
2384.38225 0.80744
2382.33381 0.80872
2380.28537 0.81021
2378.23693 0.81186
2376.18850 0.81370
2374.14006 0.81533
2372.09162 0.81658
2370.04318 0.81795
2367.99474 0.81966
2365.94630 0.82129
2363.89787 0.82222
2361.84943 0.82254
2359.80099 0.82279
2357.75255 0.82242
2355.70411 0.82089
2353.65567 0.81873
2351.60723 0.81659
2349.55880 0.81544
2347.51036 0.81575
2345.46192 0.81698
2343.41348 0.81793
2341.36504 0.81788
2339.31660 0.81749
2337.26817 0.81731
2335.21973 0.81696
2333.17129 0.81624
2331.12285 0.81544
2329.07441 0.81491
2327.02597 0.81456
2324.97754 0.81397
2322.92910 0.81313
2320.88066 0.81209
2318.83222 0.81079
2316.78378 0.80957
2314.73534 0.80888
2312.68691 0.80855
2310.63847 0.80806
2308.59003 0.80715
2306.54159 0.80602
2304.49315 0.80494
2302.44471 0.80406
2300.39628 0.80345
2298.34784 0.80298
2296.29940 0.80246
2294.25096 0.80192
2292.20252 0.80134
2290.15408 0.80080
2288.10565 0.80041
2286.05721 0.80015
2284.00877 0.80004
2281.96033 0.80000
2279.91189 0.79987
2277.86345 0.79971
2275.81502 0.79958
2273.76658 0.79941
2271.71814 0.79921
2269.66970 0.79904
2267.62126 0.79900
2265.57282 0.79906
2263.52439 0.79898
2261.47595 0.79875
2259.42751 0.79851
2257.37907 0.79828
2255.33063 0.79801
2253.28219 0.79773
2251.23376 0.79761
2249.18532 0.79762
2247.13688 0.79756
2245.08844 0.79739
2243.04000 0.79718
2240.99156 0.79693
2238.94313 0.79665
2236.89469 0.79635
2234.84625 0.79612
2232.79781 0.79606
2230.74937 0.79611
2228.70093 0.79602
2226.65250 0.79577
2224.60406 0.79554
2222.55562 0.79535
2220.50718 0.79522
2218.45874 0.79522
2216.41030 0.79519
2214.36186 0.79507
2212.31343 0.79494
2210.26499 0.79474
2208.21655 0.79461
2206.16811 0.79460
2204.11967 0.79453
2202.07123 0.79449
2200.02280 0.79453
2197.97436 0.79442
2195.92592 0.79420
2193.87748 0.79408
2191.82904 0.79396
2189.78060 0.79378
2187.73217 0.79364
2185.68373 0.79358
2183.63529 0.79353
2181.58685 0.79340
2179.53841 0.79311
2177.48997 0.79283
2175.44154 0.79264
2173.39310 0.79249
2171.34466 0.79228
2169.29622 0.79203
2167.24778 0.79177
2165.19934 0.79164
2163.15091 0.79164
2161.10247 0.79156
2159.05403 0.79146
2157.00559 0.79138
2154.95715 0.79118
2152.90871 0.79092
2150.86028 0.79077
2148.81184 0.79069
2146.76340 0.79057
2144.71496 0.79046
2142.66652 0.79043
2140.61808 0.79040
2138.56965 0.79031
2136.52121 0.79020
2134.47277 0.79012
2132.42433 0.79007
2130.37589 0.78998
2128.32745 0.78983
2126.27902 0.78973
2124.23058 0.78965
2122.18214 0.78952
2120.13370 0.78942
2118.08526 0.78930
2116.03682 0.78919
2113.98839 0.78912
2111.93995 0.78892
2109.89151 0.78861
2107.84307 0.78846
2105.79463 0.78837
2103.74619 0.78817
2101.69776 0.78794
2099.64932 0.78776
2097.60088 0.78764
2095.55244 0.78759
2093.50400 0.78756
2091.45556 0.78754
2089.40713 0.78750
2087.35869 0.78736
2085.31025 0.78714
2083.26181 0.78699
2081.21337 0.78687
2079.16493 0.78681
2077.11649 0.78684
2075.06806 0.78684
2073.01962 0.78672
2070.97118 0.78649
2068.92274 0.78643
2066.87430 0.78686
2064.82586 0.78714
2062.77743 0.78673
2060.72899 0.78620
2058.68055 0.78584
2056.63211 0.78564
2054.58367 0.78562
2052.53523 0.78556
2050.48680 0.78534
2048.43836 0.78511
2046.38992 0.78511
2044.34148 0.78549
2042.29304 0.78587
2040.24460 0.78557
2038.19617 0.78489
2036.14773 0.78451
2034.09929 0.78432
2032.05085 0.78408
2030.00241 0.78393
2027.95397 0.78394
2025.90554 0.78394
2023.85710 0.78392
2021.80866 0.78406
2019.76022 0.78462
2017.71178 0.78512
2015.66334 0.78465
2013.61491 0.78376
2011.56647 0.78339
2009.51803 0.78333
2007.46959 0.78318
2005.42115 0.78300
2003.37271 0.78296
2001.32428 0.78296
1999.27584 0.78288
1997.22740 0.78286
1995.17896 0.78356
1993.13052 0.78486
1991.08208 0.78508
1989.03365 0.78410
1986.98521 0.78301
1984.93677 0.78213
1982.88833 0.78170
1980.83989 0.78161
1978.79145 0.78156
1976.74302 0.78142
1974.69458 0.78123
1972.64614 0.78122
1970.59770 0.78188
1968.54926 0.78312
1966.50082 0.78326
1964.45239 0.78198
1962.40395 0.78102
1960.35551 0.78071
1958.30707 0.78062
1956.25863 0.78072
1954.21019 0.78069
1952.16176 0.78044
1950.11332 0.78044
1948.06488 0.78109
1946.01644 0.78250
1943.96800 0.78409
1941.91956 0.78380
1939.87112 0.78153
1937.82269 0.77996
1935.77425 0.77966
1933.72581 0.77971
1931.67737 0.77959
1929.62893 0.77932
1927.58049 0.77944
1925.53206 0.78099
1923.48362 0.78309
1921.43518 0.78339
1919.38674 0.78296
1917.33830 0.78217
1915.28986 0.78031
1913.24143 0.77949
1911.19299 0.78046
1909.14455 0.78113
1907.09611 0.78011
1905.04767 0.77891
1902.99923 0.77836
1900.95080 0.77807
1898.90236 0.77836
1896.85392 0.77939
1894.80548 0.77993
1892.75704 0.77998
1890.70860 0.78078
1888.66017 0.78065
1886.61173 0.77913
1884.56329 0.77820
1882.51485 0.77784
1880.46641 0.77766
1878.41797 0.77753
1876.36954 0.77733
1874.32110 0.77766
1872.27266 0.77997
1870.22422 0.78472
1868.17578 0.78695
1866.12734 0.78309
1864.07891 0.77900
1862.03047 0.77752
1859.98203 0.77736
1857.93359 0.77710
1855.88515 0.77657
1853.83671 0.77624
1851.78828 0.77661
1849.73984 0.77830
1847.69140 0.78137
1845.64296 0.78449
1843.59452 0.78404
1841.54608 0.78028
1839.49765 0.77827
1837.44921 0.77824
1835.40077 0.77810
1833.35233 0.77895
1831.30389 0.78228
1829.25545 0.78428
1827.20702 0.78291
1825.15858 0.78129
1823.11014 0.77904
1821.06170 0.77689
1819.01326 0.77615
1816.96482 0.77606
1814.91639 0.77655
1812.86795 0.77846
1810.81951 0.78001
1808.77107 0.77899
1806.72263 0.77735
1804.67419 0.77763
1802.62575 0.78010
1800.57732 0.78215
1798.52888 0.78205
1796.48044 0.78240
1794.43200 0.78472
1792.38356 0.78629
1790.33512 0.78245
1788.28669 0.77796
1786.23825 0.77677
1784.18981 0.77770
1782.14137 0.77924
1780.09293 0.77987
1778.04449 0.77954
1775.99606 0.78148
1773.94762 0.78657
1771.89918 0.78936
1769.85074 0.78549
1767.80230 0.78040
1765.75386 0.77777
1763.70543 0.77867
1761.65699 0.78057
1759.60855 0.78058
1757.56011 0.78006
1755.51167 0.77941
1753.46323 0.78089
1751.41480 0.78685
1749.36636 0.79252
1747.31792 0.79168
1745.26948 0.78874
1743.22104 0.78690
1741.17260 0.78589
1739.12417 0.78523
1737.07573 0.78621
1735.02729 0.79041
1732.97885 0.79190
1730.93041 0.78666
1728.88197 0.78069
1726.83354 0.77718
1724.78510 0.77707
1722.73666 0.77853
1720.68822 0.78194
1718.63978 0.79034
1716.59134 0.79712
1714.54291 0.79083
1712.49447 0.78316
1710.44603 0.78035
1708.39759 0.78238
1706.34915 0.78695
1704.30071 0.78940
1702.25228 0.79054
1700.20384 0.79481
1698.15540 0.79812
1696.10696 0.79278
1694.05852 0.78404
1692.01008 0.78104
1689.96165 0.78312
1687.91321 0.78710
1685.86477 0.79232
1683.81633 0.79558
1681.76789 0.79072
1679.71945 0.78529
1677.67102 0.78276
1675.62258 0.78350
1673.57414 0.78565
1671.52570 0.78858
1669.47726 0.78866
1667.42882 0.78287
1665.38038 0.77995
1663.33195 0.78097
1661.28351 0.78018
1659.23507 0.77844
1657.18663 0.78081
1655.13819 0.78801
1653.08975 0.79435
1651.04132 0.79242
1648.99288 0.79414
1646.94444 0.79517
1644.89600 0.78681
1642.84756 0.78054
1640.79912 0.78025
1638.75069 0.78492
1636.70225 0.79090
1634.65381 0.78687
1632.60537 0.77972
1630.55693 0.77809
1628.50849 0.77998
1626.46006 0.78230
1624.41162 0.78424
1622.36318 0.78386
1620.31474 0.78246
1618.26630 0.78426
1616.21786 0.78483
1614.16943 0.78037
1612.12099 0.77793
1610.07255 0.77856
1608.02411 0.77890
1605.97567 0.77795
1603.92723 0.77763
1601.87880 0.77729
1599.83036 0.77627
1597.78192 0.77625
1595.73348 0.77729
1593.68504 0.77747
1591.63660 0.77676
1589.58817 0.77608
1587.53973 0.77547
1585.49129 0.77513
1583.44285 0.77527
1581.39441 0.77643
1579.34597 0.78027
1577.29754 0.78640
1575.24910 0.78708
1573.20066 0.78397
1571.15222 0.78500
1569.10378 0.78675
1567.05534 0.78516
1565.00691 0.78434
1562.95847 0.78610
1560.91003 0.79219
1558.86159 0.80271
1556.81315 0.80039
1554.76471 0.79360
1552.71628 0.78918
1550.66784 0.78721
1548.61940 0.78632
1546.57096 0.78932
1544.52252 0.79920
1542.47408 0.81188
1540.42565 0.81329
1538.37721 0.79914
1536.32877 0.79286
1534.28033 0.79291
1532.23189 0.79104
1530.18345 0.78877
1528.13501 0.79148
1526.08658 0.79706
1524.03814 0.80233
1521.98970 0.80586
1519.94126 0.80353
1517.89282 0.80011
1515.84438 0.79571
1513.79595 0.79149
1511.74751 0.79305
1509.69907 0.80159
1507.65063 0.81008
1505.60219 0.79855
1503.55375 0.78800
1501.50532 0.78607
1499.45688 0.78853
1497.40844 0.79002
1495.36000 0.78601
1493.31156 0.78425
1491.26312 0.78956
1489.21469 0.79494
1487.16625 0.78920
1485.11781 0.78176
1483.06937 0.77898
1481.02093 0.77890
1478.97249 0.78001
1476.92406 0.78421
1474.87562 0.79150
1472.82718 0.79367
1470.77874 0.78595
1468.73030 0.78081
1466.68186 0.78146
1464.63343 0.78284
1462.58499 0.78230
1460.53655 0.78570
1458.48811 0.79538
1456.43967 0.79765
1454.39123 0.78847
1452.34280 0.78267
1450.29436 0.78112
1448.24592 0.78145
1446.19748 0.77997
1444.14904 0.77759
1442.10060 0.77688
1440.05217 0.77864
1438.00373 0.78266
1435.95529 0.78490
1433.90685 0.78320
1431.85841 0.78238
1429.80997 0.78199
1427.76154 0.78076
1425.71310 0.78121
1423.66466 0.78314
1421.61622 0.78530
1419.56778 0.78852
1417.51934 0.78766
1415.47091 0.78267
1413.42247 0.77990
1411.37403 0.77941
1409.32559 0.77925
1407.27715 0.78006
1405.22871 0.78140
1403.18028 0.78128
1401.13184 0.78240
1399.08340 0.78617
1397.03496 0.78894
1394.98652 0.78742
1392.93808 0.78277
1390.88965 0.78041
1388.84121 0.78188
1386.79277 0.78262
1384.74433 0.78003
1382.69589 0.77822
1380.64745 0.77862
1378.59901 0.78015
1376.55058 0.78277
1374.50214 0.78472
1372.45370 0.78296
1370.40526 0.78068
1368.35682 0.77993
1366.30838 0.78034
1364.25995 0.78297
1362.21151 0.78471
1360.16307 0.78220
1358.11463 0.77966
1356.06619 0.77907
1354.01775 0.77891
1351.96932 0.77864
1349.92088 0.77862
1347.87244 0.77843
1345.82400 0.77815
1343.77556 0.77916
1341.72712 0.78281
1339.67869 0.78650
1337.63025 0.78511
1335.58181 0.78113
1333.53337 0.77886
1331.48493 0.77833
1329.43649 0.77832
1327.38806 0.77835
1325.33962 0.77863
1323.29118 0.77943
1321.24274 0.78094
1319.19430 0.78233
1317.14586 0.78241
1315.09743 0.78195
1313.04899 0.78151
1311.00055 0.78066
1308.95211 0.77995
1306.90367 0.77962
1304.85523 0.77934
1302.80680 0.77921
1300.75836 0.77932
1298.70992 0.77960
1296.66148 0.77978
1294.61304 0.77974
1292.56460 0.77985
1290.51617 0.78028
1288.46773 0.78059
1286.41929 0.78039
1284.37085 0.78004
1282.32241 0.78002
1280.27397 0.78014
1278.22554 0.78011
1276.17710 0.78015
1274.12866 0.78061
1272.08022 0.78134
1270.03178 0.78168
1267.98334 0.78151
1265.93491 0.78128
1263.88647 0.78134
1261.83803 0.78183
1259.78959 0.78227
1257.74115 0.78215
1255.69271 0.78186
1253.64428 0.78179
1251.59584 0.78181
1249.54740 0.78183
1247.49896 0.78188
1245.45052 0.78202
1243.40208 0.78208
1241.35364 0.78206
1239.30521 0.78208
1237.25677 0.78215
1235.20833 0.78235
1233.15989 0.78259
1231.11145 0.78264
1229.06301 0.78268
1227.01458 0.78289
1224.96614 0.78310
1222.91770 0.78315
1220.86926 0.78324
1218.82082 0.78340
1216.77238 0.78352
1214.72395 0.78370
1212.67551 0.78386
1210.62707 0.78373
1208.57863 0.78359
1206.53019 0.78370
1204.48175 0.78386
1202.43332 0.78393
1200.38488 0.78397
1198.33644 0.78405
1196.28800 0.78412
1194.23956 0.78416
1192.19112 0.78428
1190.14269 0.78447
1188.09425 0.78466
1186.04581 0.78477
1183.99737 0.78482
1181.94893 0.78486
1179.90049 0.78489
1177.85206 0.78499
1175.80362 0.78519
1173.75518 0.78531
1171.70674 0.78524
1169.65830 0.78520
1167.60986 0.78523
1165.56143 0.78520
1163.51299 0.78511
1161.46455 0.78502
1159.41611 0.78499
1157.36767 0.78510
1155.31923 0.78526
1153.27080 0.78533
1151.22236 0.78539
1149.17392 0.78544
1147.12548 0.78541
1145.07704 0.78541
1143.02860 0.78555
1140.98017 0.78579
1138.93173 0.78597
1136.88329 0.78601
1134.83485 0.78601
1132.78641 0.78593
1130.73797 0.78583
1128.68954 0.78589
1126.64110 0.78603
1124.59266 0.78617
1122.54422 0.78636
1120.49578 0.78659
1118.44734 0.78679
1116.39891 0.78700
1114.35047 0.78726
1112.30203 0.78752
1110.25359 0.78771
1108.20515 0.78780
1106.15671 0.78780
1104.10827 0.78779
1102.05984 0.78783
1100.01140 0.78789
1097.96296 0.78792
1095.91452 0.78794
1093.86608 0.78803
1091.81764 0.78819
1089.76921 0.78832
1087.72077 0.78827
1085.67233 0.78815
1083.62389 0.78809
1081.57545 0.78802
1079.52701 0.78793
1077.47858 0.78793
1075.43014 0.78791
1073.38170 0.78774
1071.33326 0.78757
1069.28482 0.78737
1067.23638 0.78715
1065.18795 0.78694
1063.13951 0.78672
1061.09107 0.78648
1059.04263 0.78632
1056.99419 0.78619
1054.94575 0.78602
1052.89732 0.78599
1050.84888 0.78619
1048.80044 0.78644
1046.75200 0.78657
1044.70356 0.78664
1042.65512 0.78671
1040.60669 0.78666
1038.55825 0.78652
1036.50981 0.78644
1034.46137 0.78644
1032.41293 0.78652
1030.36449 0.78672
1028.31606 0.78691
1026.26762 0.78719
1024.21918 0.78764
1022.17074 0.78795
1020.12230 0.78812
1018.07386 0.78839
1016.02543 0.78869
1013.97699 0.78883
1011.92855 0.78890
1009.88011 0.78910
1007.83167 0.78946
1005.78323 0.78988
1003.73480 0.79042
1001.68636 0.79107
999.63792 0.79160
997.58948 0.79193
995.54104 0.79217
993.49260 0.79246
991.44417 0.79282
989.39573 0.79307
987.34729 0.79315
985.29885 0.79324
983.25041 0.79334
981.20197 0.79337
979.15354 0.79348
977.10510 0.79373
975.05666 0.79386
973.00822 0.79375
970.95978 0.79365
968.91134 0.79375
966.86290 0.79400
964.81447 0.79420
962.76603 0.79422
960.71759 0.79421
958.66915 0.79435
956.62071 0.79444
954.57227 0.79438
952.52384 0.79428
950.47540 0.79421
948.42696 0.79421
946.37852 0.79436
944.33008 0.79452
942.28164 0.79457
940.23321 0.79465
938.18477 0.79477
936.13633 0.79477
934.08789 0.79478
932.03945 0.79491
929.99101 0.79501
927.94258 0.79509
925.89414 0.79520
923.84570 0.79529
921.79726 0.79532
919.74882 0.79531
917.70038 0.79525
915.65195 0.79526
913.60351 0.79539
911.55507 0.79550
909.50663 0.79553
907.45819 0.79566
905.40975 0.79593
903.36132 0.79615
901.31288 0.79622
899.26444 0.79624
897.21600 0.79629
895.16756 0.79645
893.11912 0.79667
891.07069 0.79682
889.02225 0.79690
886.97381 0.79700
884.92537 0.79718
882.87693 0.79749
880.82849 0.79795
878.78006 0.79842
876.73162 0.79874
874.68318 0.79902
872.63474 0.79938
870.58630 0.79959
868.53786 0.79961
866.48943 0.79977
864.44099 0.79995
862.39255 0.80006
860.34411 0.80040
858.29567 0.80091
856.24723 0.80123
854.19880 0.80114
852.15036 0.80077
850.10192 0.80060
848.05348 0.80076
846.00504 0.80104
843.95660 0.80127
841.90817 0.80140
839.85973 0.80155
837.81129 0.80170
835.76285 0.80192
833.71441 0.80219
831.66597 0.80226
829.61753 0.80226
827.56910 0.80235
825.52066 0.80228
823.47222 0.80220
821.42378 0.80239
819.37534 0.80289
817.32690 0.80345
815.27847 0.80368
813.23003 0.80353
811.18159 0.80335
809.13315 0.80333
807.08471 0.80335
805.03627 0.80346
802.98784 0.80373
800.93940 0.80399
798.89096 0.80438
796.84252 0.80505
794.79408 0.80538
792.74564 0.80507
790.69721 0.80468
788.64877 0.80435
786.60033 0.80406
784.55189 0.80426
782.50345 0.80497
780.45501 0.80569
778.40658 0.80612
776.35814 0.80617
774.30970 0.80602
772.26126 0.80621
770.21282 0.80673
768.16438 0.80719
766.11595 0.80762
764.06751 0.80781
762.01907 0.80745
759.97063 0.80716
757.92219 0.80746
755.87375 0.80801
753.82532 0.80838
751.77688 0.80833
749.72844 0.80827
747.68000 0.80869
745.63156 0.80919
743.58312 0.80894
741.53469 0.80808
739.48625 0.80747
737.43781 0.80746
735.38937 0.80774
733.34093 0.80789
731.29249 0.80803
729.24406 0.80823
727.19562 0.80813
725.14718 0.80822
723.09874 0.80898
721.05030 0.80928
719.00186 0.80835
716.95343 0.80759
714.90499 0.80764
712.85655 0.80759
710.80811 0.80736
708.75967 0.80743
706.71123 0.80761
704.66280 0.80761
702.61436 0.80765
700.56592 0.80762
698.51748 0.80719
696.46904 0.80691
694.42060 0.80703
692.37216 0.80698
690.32373 0.80694
688.27529 0.80686
686.22685 0.80679
684.17841 0.80762
682.12997 0.80889
680.08153 0.80938
678.03310 0.80844
675.98466 0.80697
673.93622 0.80669
671.88778 0.80764
669.83934 0.80812
667.79090 0.80635
665.74247 0.80531
663.69403 0.80591
661.64559 0.80573
659.59715 0.80510
657.54871 0.80526
655.50027 0.80474
653.45184 0.80278
651.40340 0.80077
649.35496 0.79986
647.30652 0.79896
645.25808 0.79643
643.20964 0.79378
641.16121 0.79198
639.11277 0.78987
637.06433 0.78718
635.01589 0.78388
632.96745 0.78093
630.91901 0.77905
628.87058 0.77691
626.82214 0.77323
624.77370 0.76898
622.72526 0.76693
620.67682 0.76755
618.62838 0.76775
616.57995 0.76509
614.53151 0.76079
612.48307 0.75695
610.43463 0.75447
608.38619 0.75212
606.33775 0.74852
604.28932 0.74446
602.24088 0.73916
600.19244 0.73363
598.14400 0.73048
