3996.50324 1.56619
3994.45480 1.56730
3992.40636 1.56813
3990.35792 1.56833
3988.30948 1.56869
3986.26104 1.56873
3984.21261 1.56789
3982.16417 1.56723
3980.11573 1.56699
3978.06729 1.56694
3976.01885 1.56717
3973.97041 1.56742
3971.92198 1.56719
3969.87354 1.56675
3967.82510 1.56617
3965.77666 1.56582
3963.72822 1.56785
3961.67978 1.57090
3959.63135 1.57125
3957.58291 1.57012
3955.53447 1.56988
3953.48603 1.57041
3951.43759 1.57105
3949.38915 1.57083
3947.34072 1.56949
3945.29228 1.56943
3943.24384 1.57031
3941.19540 1.56923
3939.14696 1.56709
3937.09852 1.56652
3935.05009 1.56834
3933.00165 1.57071
3930.95321 1.57118
3928.90477 1.57094
3926.85633 1.57200
3924.80789 1.57300
3922.75946 1.57199
3920.71102 1.57094
3918.66258 1.57178
3916.61414 1.57194
3914.56570 1.56952
3912.51726 1.56674
3910.46883 1.56543
3908.42039 1.56785
3906.37195 1.57387
3904.32351 1.57853
3902.27507 1.57822
3900.22663 1.57595
3898.17820 1.57314
3896.12976 1.57206
3894.08132 1.57478
3892.03288 1.57770
3889.98444 1.57592
3887.93600 1.57417
3885.88756 1.57507
3883.83913 1.57671
3881.79069 1.57687
3879.74225 1.57378
3877.69381 1.57146
3875.64537 1.57246
3873.59693 1.57564
3871.54850 1.57977
3869.50006 1.58049
3867.45162 1.57905
3865.40318 1.58083
3863.35474 1.58138
3861.30630 1.57746
3859.25787 1.57566
3857.20943 1.57850
3855.16099 1.58405
3853.11255 1.58721
3851.06411 1.58262
3849.01567 1.57670
3846.96724 1.57319
3844.91880 1.57411
3842.87036 1.57908
3840.82192 1.58499
3838.77348 1.58674
3836.72504 1.58177
3834.67661 1.57684
3832.62817 1.57425
3830.57973 1.57368
3828.53129 1.57526
3826.48285 1.57668
3824.43441 1.57804
3822.38598 1.58210
3820.33754 1.58477
3818.28910 1.58340
3816.24066 1.58048
3814.19222 1.57523
3812.14378 1.57208
3810.09535 1.57216
3808.04691 1.57382
3805.99847 1.57622
3803.95003 1.58017
3801.90159 1.58255
3799.85315 1.57979
3797.80472 1.57753
3795.75628 1.57463
3793.70784 1.57034
3791.65940 1.56794
3789.61096 1.56799
3787.56252 1.56949
3785.51409 1.57040
3783.46565 1.57006
3781.41721 1.57120
3779.36877 1.57269
3777.32033 1.57090
3775.27189 1.56905
3773.22346 1.57019
3771.17502 1.57258
3769.12658 1.57339
3767.07814 1.57341
3765.02970 1.57300
3762.98126 1.57317
3760.93283 1.57556
3758.88439 1.57696
3756.83595 1.57648
3754.78751 1.57925
3752.73907 1.58770
3750.69063 1.59565
3748.64219 1.59268
3746.59376 1.58765
3744.54532 1.58290
3742.49688 1.57915
3740.44844 1.57915
3738.40000 1.58280
3736.35156 1.58830
3734.30313 1.58690
3732.25469 1.57819
3730.20625 1.57404
3728.15781 1.57630
3726.10937 1.57970
3724.06093 1.57981
3722.01250 1.57814
3719.96406 1.57617
3717.91562 1.57377
3715.86718 1.57281
3713.81874 1.57675
3711.77030 1.58355
3709.72187 1.58114
3707.67343 1.57407
3705.62499 1.57072
3703.57655 1.56991
3701.52811 1.56850
3699.47967 1.56625
3697.43124 1.56563
3695.38280 1.56786
3693.33436 1.57290
3691.28592 1.57922
3689.23748 1.58083
3687.18904 1.57508
3685.14061 1.57077
3683.09217 1.57036
3681.04373 1.57303
3678.99529 1.57777
3676.94685 1.58216
3674.89841 1.58071
3672.84998 1.57908
3670.80154 1.58120
3668.75310 1.57830
3666.70466 1.57228
3664.65622 1.56881
3662.60778 1.56774
3660.55935 1.56934
3658.51091 1.57287
3656.46247 1.57575
3654.41403 1.57744
3652.36559 1.58151
3650.31715 1.58764
3648.26872 1.58565
3646.22028 1.57800
3644.17184 1.57406
3642.12340 1.57289
3640.07496 1.57251
3638.02652 1.57229
3635.97809 1.57324
3633.92965 1.57534
3631.88121 1.57877
3629.83277 1.58313
3627.78433 1.58060
3625.73589 1.57482
3623.68746 1.57431
3621.63902 1.57812
3619.59058 1.58186
3617.54214 1.58175
3615.49370 1.58072
3613.44526 1.57891
3611.39682 1.57633
3609.34839 1.57606
3607.29995 1.57537
3605.25151 1.57299
3603.20307 1.57353
3601.15463 1.57693
3599.10619 1.57902
3597.05776 1.57864
3595.00932 1.57743
3592.96088 1.57661
3590.91244 1.57777
3588.86400 1.58125
3586.81556 1.58221
3584.76713 1.57859
3582.71869 1.57576
3580.67025 1.57520
3578.62181 1.57604
3576.57337 1.57639
3574.52493 1.57525
3572.47650 1.57464
3570.42806 1.57788
3568.37962 1.58477
3566.33118 1.58659
3564.28274 1.58103
3562.23430 1.57645
3560.18587 1.57364
3558.13743 1.57238
3556.08899 1.57316
3554.04055 1.57530
3551.99211 1.57687
3549.94367 1.57750
3547.89524 1.57860
3545.84680 1.57882
3543.79836 1.57692
3541.74992 1.57464
3539.70148 1.57356
3537.65304 1.57390
3535.60461 1.57433
3533.55617 1.57456
3531.50773 1.57579
3529.45929 1.57796
3527.41085 1.57955
3525.36241 1.57948
3523.31398 1.57812
3521.26554 1.57696
3519.21710 1.57600
3517.16866 1.57435
3515.12022 1.57385
3513.07178 1.57524
3511.02335 1.57594
3508.97491 1.57524
3506.92647 1.57605
3504.87803 1.57889
3502.82959 1.57996
3500.78115 1.57827
3498.73272 1.57691
3496.68428 1.57647
3494.63584 1.57584
3492.58740 1.57504
3490.53896 1.57504
3488.49052 1.57579
3486.44209 1.57606
3484.39365 1.57604
3482.34521 1.57611
3480.29677 1.57582
3478.24833 1.57649
3476.19989 1.57746
3474.15146 1.57671
3472.10302 1.57527
3470.05458 1.57444
3468.00614 1.57516
3465.95770 1.57688
3463.90926 1.57712
3461.86082 1.57582
3459.81239 1.57477
3457.76395 1.57433
3455.71551 1.57414
3453.66707 1.57386
3451.61863 1.57364
3449.57019 1.57467
3447.52176 1.57634
3445.47332 1.57694
3443.42488 1.57687
3441.37644 1.57665
3439.32800 1.57683
3437.27956 1.57718
3435.23113 1.57646
3433.18269 1.57513
3431.13425 1.57460
3429.08581 1.57467
3427.03737 1.57452
3424.98893 1.57495
3422.94050 1.57624
3420.89206 1.57707
3418.84362 1.57674
3416.79518 1.57593
3414.74674 1.57498
3412.69830 1.57366
3410.64987 1.57317
3408.60143 1.57435
3406.55299 1.57557
3404.50455 1.57550
3402.45611 1.57491
3400.40767 1.57530
3398.35924 1.57647
3396.31080 1.57693
3394.26236 1.57662
3392.21392 1.57625
3390.16548 1.57635
3388.11704 1.57676
3386.06861 1.57705
3384.02017 1.57740
3381.97173 1.57773
3379.92329 1.57757
3377.87485 1.57707
3375.82641 1.57707
3373.77798 1.57708
3371.72954 1.57643
3369.68110 1.57600
3367.63266 1.57624
3365.58422 1.57726
3363.53578 1.57837
3361.48735 1.57770
3359.43891 1.57577
3357.39047 1.57532
3355.34203 1.57572
3353.29359 1.57519
3351.24515 1.57469
3349.19672 1.57499
3347.14828 1.57561
3345.09984 1.57601
3343.05140 1.57583
3341.00296 1.57515
3338.95452 1.57467
3336.90609 1.57461
3334.85765 1.57419
3332.80921 1.57310
3330.76077 1.57261
3328.71233 1.57327
3326.66389 1.57421
3324.61545 1.57480
3322.56702 1.57493
3320.51858 1.57505
3318.47014 1.57492
3316.42170 1.57447
3314.37326 1.57426
3312.32482 1.57441
3310.27639 1.57519
3308.22795 1.57605
3306.17951 1.57585
3304.13107 1.57522
3302.08263 1.57501
3300.03419 1.57475
3297.98576 1.57451
3295.93732 1.57456
3293.88888 1.57463
3291.84044 1.57463
3289.79200 1.57488
3287.74356 1.57538
3285.69513 1.57540
3283.64669 1.57485
3281.59825 1.57477
3279.54981 1.57541
3277.50137 1.57579
3275.45293 1.57545
3273.40450 1.57540
3271.35606 1.57589
3269.30762 1.57572
3267.25918 1.57487
3265.21074 1.57427
3263.16230 1.57429
3261.11387 1.57444
3259.06543 1.57437
3257.01699 1.57478
3254.96855 1.57517
3252.92011 1.57438
3250.87167 1.57320
3248.82324 1.57355
3246.77480 1.57556
3244.72636 1.57693
3242.67792 1.57670
3240.62948 1.57588
3238.58104 1.57510
3236.53261 1.57464
3234.48417 1.57430
3232.43573 1.57401
3230.38729 1.57382
3228.33885 1.57351
3226.29041 1.57299
3224.24198 1.57298
3222.19354 1.57378
3220.14510 1.57435
3218.09666 1.57404
3216.04822 1.57360
3213.99978 1.57400
3211.95135 1.57443
3209.90291 1.57374
3207.85447 1.57265
3205.80603 1.57166
3203.75759 1.57091
3201.70915 1.57121
3199.66072 1.57220
3197.61228 1.57225
3195.56384 1.57135
3193.51540 1.57114
3191.46696 1.57168
3189.41852 1.57168
3187.37008 1.57129
3185.32165 1.57104
3183.27321 1.57036
3181.22477 1.56933
3179.17633 1.56887
3177.12789 1.56876
3175.07945 1.56853
3173.03102 1.56833
3170.98258 1.56875
3168.93414 1.56963
3166.88570 1.56957
3164.83726 1.56851
3162.78882 1.56742
3160.74039 1.56691
3158.69195 1.56712
3156.64351 1.56730
3154.59507 1.56706
3152.54663 1.56694
3150.49819 1.56710
3148.44976 1.56721
3146.40132 1.56731
3144.35288 1.56735
3142.30444 1.56705
3140.25600 1.56630
3138.20756 1.56556
3136.15913 1.56553
3134.11069 1.56608
3132.06225 1.56608
3130.01381 1.56507
3127.96537 1.56413
3125.91693 1.56378
3123.86850 1.56364
3121.82006 1.56340
3119.77162 1.56311
3117.72318 1.56263
3115.67474 1.56189
3113.62630 1.56175
3111.57787 1.56201
3109.52943 1.56154
3107.48099 1.56050
3105.43255 1.56040
3103.38411 1.56160
3101.33567 1.56234
3099.28724 1.56224
3097.23880 1.56212
3095.19036 1.56176
3093.14192 1.56128
3091.09348 1.56095
3089.04504 1.56071
3086.99661 1.56050
3084.94817 1.55999
3082.89973 1.55927
3080.85129 1.55864
3078.80285 1.55816
3076.75441 1.55792
3074.70598 1.55786
3072.65754 1.55803
3070.60910 1.55829
3068.56066 1.55836
3066.51222 1.55835
3064.46378 1.55821
3062.41535 1.55785
3060.36691 1.55797
3058.31847 1.55837
3056.27003 1.55752
3054.22159 1.55598
3052.17315 1.55580
3050.12471 1.55662
3048.07628 1.55681
3046.02784 1.55571
3043.97940 1.55419
3041.93096 1.55360
3039.88252 1.55392
3037.83408 1.55430
3035.78565 1.55430
3033.73721 1.55412
3031.68877 1.55377
3029.64033 1.55335
3027.59189 1.55314
3025.54345 1.55288
3023.49502 1.55276
3021.44658 1.55284
3019.39814 1.55285
3017.34970 1.55291
3015.30126 1.55311
3013.25282 1.55332
3011.20439 1.55305
3009.15595 1.55234
3007.10751 1.55229
3005.05907 1.55285
3003.01063 1.55243
3000.96219 1.55112
2998.91376 1.55072
2996.86532 1.55125
2994.81688 1.55131
2992.76844 1.55091
2990.72000 1.55075
2988.67156 1.55034
2986.62313 1.54962
2984.57469 1.54953
2982.52625 1.54954
2980.47781 1.54907
2978.42937 1.54922
2976.38093 1.54979
2974.33250 1.54919
2972.28406 1.54792
2970.23562 1.54767
2968.18718 1.54828
2966.13874 1.54868
2964.09030 1.54915
2962.04187 1.54983
2959.99343 1.54982
2957.94499 1.54932
2955.89655 1.54917
2953.84811 1.54904
2951.79967 1.54844
2949.75124 1.54786
2947.70280 1.54765
2945.65436 1.54760
2943.60592 1.54756
2941.55748 1.54764
2939.50904 1.54784
2937.46061 1.54793
2935.41217 1.54767
2933.36373 1.54746
2931.31529 1.54724
2929.26685 1.54685
2927.21841 1.54690
2925.16998 1.54719
2923.12154 1.54692
2921.07310 1.54590
2919.02466 1.54512
2916.97622 1.54493
2914.92778 1.54443
2912.87934 1.54396
2910.83091 1.54416
2908.78247 1.54465
2906.73403 1.54468
2904.68559 1.54389
2902.63715 1.54309
2900.58871 1.54257
2898.54028 1.54210
2896.49184 1.54244
2894.44340 1.54358
2892.39496 1.54430
2890.34652 1.54400
2888.29808 1.54299
2886.24965 1.54212
2884.20121 1.54194
2882.15277 1.54200
2880.10433 1.54159
2878.05589 1.54101
2876.00745 1.54122
2873.95902 1.54180
2871.91058 1.54209
2869.86214 1.54204
2867.81370 1.54105
2865.76526 1.53990
2863.71682 1.53994
2861.66839 1.54042
2859.61995 1.54025
2857.57151 1.53994
2855.52307 1.53992
2853.47463 1.53980
2851.42619 1.53946
2849.37776 1.53904
2847.32932 1.53831
2845.28088 1.53727
2843.23244 1.53679
2841.18400 1.53740
2839.13556 1.53852
2837.08713 1.53900
2835.03869 1.53845
2832.99025 1.53747
2830.94181 1.53659
2828.89337 1.53618
2826.84493 1.53635
2824.79650 1.53658
2822.74806 1.53670
2820.69962 1.53663
2818.65118 1.53609
2816.60274 1.53575
2814.55430 1.53566
2812.50587 1.53528
2810.45743 1.53503
2808.40899 1.53484
2806.36055 1.53422
2804.31211 1.53359
2802.26367 1.53347
2800.21524 1.53333
2798.16680 1.53262
2796.11836 1.53210
2794.06992 1.53223
2792.02148 1.53225
2789.97304 1.53192
2787.92461 1.53172
2785.87617 1.53178
2783.82773 1.53185
2781.77929 1.53187
2779.73085 1.53179
2777.68241 1.53106
2775.63397 1.53024
2773.58554 1.53052
2771.53710 1.53116
2769.48866 1.53107
2767.44022 1.53077
2765.39178 1.53085
2763.34334 1.53076
2761.29491 1.53009
2759.24647 1.52945
2757.19803 1.52954
2755.14959 1.52999
2753.10115 1.52975
2751.05271 1.52883
2749.00428 1.52807
2746.95584 1.52799
2744.90740 1.52848
2742.85896 1.52865
2740.81052 1.52827
2738.76208 1.52804
2736.71365 1.52814
2734.66521 1.52817
2732.61677 1.52773
2730.56833 1.52711
2728.51989 1.52687
2726.47145 1.52676
2724.42302 1.52644
2722.37458 1.52598
2720.32614 1.52558
2718.27770 1.52543
2716.22926 1.52556
2714.18082 1.52584
2712.13239 1.52587
2710.08395 1.52554
2708.03551 1.52556
2705.98707 1.52603
2703.93863 1.52604
2701.89019 1.52540
2699.84176 1.52464
2697.79332 1.52405
2695.74488 1.52361
2693.69644 1.52332
2691.64800 1.52338
2689.59956 1.52342
2687.55113 1.52339
2685.50269 1.52359
2683.45425 1.52353
2681.40581 1.52302
2679.35737 1.52253
2677.30893 1.52229
2675.26050 1.52215
2673.21206 1.52205
2671.16362 1.52204
2669.11518 1.52205
2667.06674 1.52178
2665.01830 1.52094
2662.96987 1.52025
2660.92143 1.52017
2658.87299 1.51976
2656.82455 1.51907
2654.77611 1.51879
2652.72767 1.51874
2650.67924 1.51867
2648.63080 1.51842
2646.58236 1.51806
2644.53392 1.51783
2642.48548 1.51775
2640.43704 1.51769
2638.38860 1.51764
2636.34017 1.51765
2634.29173 1.51763
2632.24329 1.51737
2630.19485 1.51686
2628.14641 1.51664
2626.09797 1.51676
2624.04954 1.51681
2622.00110 1.51671
2619.95266 1.51661
2617.90422 1.51688
2615.85578 1.51745
2613.80734 1.51743
2611.75891 1.51639
2609.71047 1.51507
2607.66203 1.51438
2605.61359 1.51443
2603.56515 1.51458
2601.51671 1.51446
2599.46828 1.51407
2597.41984 1.51330
2595.37140 1.51294
2593.32296 1.51331
2591.27452 1.51341
2589.22608 1.51318
2587.17765 1.51315
2585.12921 1.51314
2583.08077 1.51284
2581.03233 1.51256
2578.98389 1.51254
2576.93545 1.51231
2574.88702 1.51182
2572.83858 1.51145
2570.79014 1.51098
2568.74170 1.51071
2566.69326 1.51107
2564.64482 1.51139
2562.59639 1.51122
2560.54795 1.51107
2558.49951 1.51120
2556.45107 1.51110
2554.40263 1.51038
2552.35419 1.50965
2550.30576 1.50957
2548.25732 1.50994
2546.20888 1.50996
2544.16044 1.50938
2542.11200 1.50870
2540.06356 1.50811
2538.01513 1.50771
2535.96669 1.50754
2533.91825 1.50746
2531.86981 1.50774
2529.82137 1.50829
2527.77293 1.50809
2525.72450 1.50712
2523.67606 1.50652
2521.62762 1.50667
2519.57918 1.50689
2517.53074 1.50656
2515.48230 1.50625
2513.43387 1.50642
2511.38543 1.50643
2509.33699 1.50588
2507.28855 1.50517
2505.24011 1.50497
2503.19167 1.50536
2501.14324 1.50595
2499.09480 1.50647
2497.04636 1.50639
2494.99792 1.50574
2492.94948 1.50522
2490.90104 1.50518
2488.85260 1.50520
2486.80417 1.50478
2484.75573 1.50418
2482.70729 1.50395
2480.65885 1.50409
2478.61041 1.50410
2476.56197 1.50399
2474.51354 1.50425
2472.46510 1.50435
2470.41666 1.50352
2468.36822 1.50252
2466.31978 1.50216
2464.27134 1.50231
2462.22291 1.50241
2460.17447 1.50217
2458.12603 1.50193
2456.07759 1.50207
2454.02915 1.50246
2451.98071 1.50243
2449.93228 1.50164
2447.88384 1.50066
2445.83540 1.50031
2443.78696 1.50051
2441.73852 1.50060
2439.69008 1.50011
2437.64165 1.49900
2435.59321 1.49825
2433.54477 1.49845
2431.49633 1.49885
2429.44789 1.49892
2427.39945 1.49882
2425.35102 1.49845
2423.30258 1.49811
2421.25414 1.49816
2419.20570 1.49817
2417.15726 1.49792
2415.10882 1.49794
2413.06039 1.49855
2411.01195 1.49889
2408.96351 1.49844
2406.91507 1.49815
2404.86663 1.49807
2402.81819 1.49752
2400.76976 1.49689
2398.72132 1.49638
2396.67288 1.49562
2394.62444 1.49504
2392.57600 1.49492
2390.52756 1.49516
2388.47913 1.49590
2386.43069 1.49654
2384.38225 1.49687
2382.33381 1.49753
2380.28537 1.49845
2378.23693 1.49918
2376.18850 1.49972
2374.14006 1.50016
2372.09162 1.49989
2370.04318 1.49900
2367.99474 1.49891
2365.94630 1.49981
2363.89787 1.50114
2361.84943 1.50175
2359.80099 1.50007
2357.75255 1.49781
2355.70411 1.49729
2353.65567 1.49768
2351.60723 1.49749
2349.55880 1.49716
2347.51036 1.49712
2345.46192 1.49731
2343.41348 1.49811
2341.36504 1.49827
2339.31660 1.49641
2337.26817 1.49502
2335.21973 1.49511
2333.17129 1.49485
2331.12285 1.49424
2329.07441 1.49482
2327.02597 1.49633
2324.97754 1.49654
2322.92910 1.49541
2320.88066 1.49497
2318.83222 1.49480
2316.78378 1.49363
2314.73534 1.49249
2312.68691 1.49213
2310.63847 1.49169
2308.59003 1.49136
2306.54159 1.49112
2304.49315 1.49048
2302.44471 1.49002
2300.39628 1.48954
2298.34784 1.48848
2296.29940 1.48722
2294.25096 1.48631
2292.20252 1.48608
2290.15408 1.48618
2288.10565 1.48605
2286.05721 1.48594
2284.00877 1.48572
2281.96033 1.48503
2279.91189 1.48441
2277.86345 1.48417
2275.81502 1.48408
2273.76658 1.48405
2271.71814 1.48418
2269.66970 1.48418
2267.62126 1.48387
2265.57282 1.48370
2263.52439 1.48406
2261.47595 1.48443
2259.42751 1.48371
2257.37907 1.48249
2255.33063 1.48192
2253.28219 1.48182
2251.23376 1.48210
2249.18532 1.48266
2247.13688 1.48279
2245.08844 1.48240
2243.04000 1.48163
2240.99156 1.48108
2238.94313 1.48121
2236.89469 1.48132
2234.84625 1.48113
2232.79781 1.48079
2230.74937 1.47996
2228.70093 1.47915
2226.65250 1.47904
2224.60406 1.47916
2222.55562 1.47903
2220.50718 1.47859
2218.45874 1.47784
2216.41030 1.47728
2214.36186 1.47730
2212.31343 1.47754
2210.26499 1.47774
2208.21655 1.47784
2206.16811 1.47745
2204.11967 1.47675
2202.07123 1.47642
2200.02280 1.47646
2197.97436 1.47659
2195.92592 1.47662
2193.87748 1.47646
2191.82904 1.47638
2189.78060 1.47639
2187.73217 1.47592
2185.68373 1.47522
2183.63529 1.47505
2181.58685 1.47524
2179.53841 1.47534
2177.48997 1.47516
2175.44154 1.47462
2173.39310 1.47405
2171.34466 1.47380
2169.29622 1.47387
2167.24778 1.47390
2165.19934 1.47366
2163.15091 1.47340
2161.10247 1.47312
2159.05403 1.47248
2157.00559 1.47146
2154.95715 1.47056
2152.90871 1.47021
2150.86028 1.47030
2148.81184 1.47042
2146.76340 1.47036
2144.71496 1.47012
2142.66652 1.46986
2140.61808 1.46970
2138.56965 1.46956
2136.52121 1.46929
2134.47277 1.46900
2132.42433 1.46890
2130.37589 1.46881
2128.32745 1.46855
2126.27902 1.46849
2124.23058 1.46868
2122.18214 1.46877
2120.13370 1.46871
2118.08526 1.46846
2116.03682 1.46810
2113.98839 1.46808
2111.93995 1.46813
2109.89151 1.46770
2107.84307 1.46703
2105.79463 1.46653
2103.74619 1.46651
2101.69776 1.46659
2099.64932 1.46619
2097.60088 1.46567
2095.55244 1.46516
2093.50400 1.46453
2091.45556 1.46423
2089.40713 1.46424
2087.35869 1.46404
2085.31025 1.46376
2083.26181 1.46342
2081.21337 1.46304
2079.16493 1.46313
2077.11649 1.46333
2075.06806 1.46306
2073.01962 1.46271
2070.97118 1.46255
2068.92274 1.46251
2066.87430 1.46259
2064.82586 1.46254
2062.77743 1.46232
2060.72899 1.46231
2058.68055 1.46216
2056.63211 1.46148
2054.58367 1.46070
2052.53523 1.46024
2050.48680 1.45999
2048.43836 1.45985
2046.38992 1.46009
2044.34148 1.46027
2042.29304 1.46003
2040.24460 1.45929
2038.19617 1.45819
2036.14773 1.45726
2034.09929 1.45679
2032.05085 1.45684
2030.00241 1.45722
2027.95397 1.45749
2025.90554 1.45741
2023.85710 1.45713
2021.80866 1.45680
2019.76022 1.45693
2017.71178 1.45746
2015.66334 1.45689
2013.61491 1.45587
2011.56647 1.45581
2009.51803 1.45604
2007.46959 1.45583
2005.42115 1.45529
2003.37271 1.45483
2001.32428 1.45480
1999.27584 1.45474
1997.22740 1.45432
1995.17896 1.45460
1993.13052 1.45560
1991.08208 1.45566
1989.03365 1.45474
1986.98521 1.45399
1984.93677 1.45359
1982.88833 1.45347
1980.83989 1.45341
1978.79145 1.45296
1976.74302 1.45207
1974.69458 1.45149
1972.64614 1.45157
1970.59770 1.45187
1968.54926 1.45227
1966.50082 1.45200
1964.45239 1.45101
1962.40395 1.45048
1960.35551 1.45013
1958.30707 1.44966
1956.25863 1.44959
1954.21019 1.44977
1952.16176 1.44965
1950.11332 1.44926
1948.06488 1.44927
1946.01644 1.45026
1943.96800 1.45161
1941.91956 1.45138
1939.87112 1.44958
1937.82269 1.44804
1935.77425 1.44741
1933.72581 1.44745
1931.67737 1.44721
1929.62893 1.44649
1927.58049 1.44621
1925.53206 1.44744
1923.48362 1.44965
1921.43518 1.45043
1919.38674 1.44995
1917.33830 1.44866
1915.28986 1.44650
1913.24143 1.44561
1911.19299 1.44644
1909.14455 1.44689
1907.09611 1.44605
1905.04767 1.44517
1902.99923 1.44478
1900.95080 1.44449
1898.90236 1.44419
1896.85392 1.44434
1894.80548 1.44459
1892.75704 1.44480
1890.70860 1.44561
1888.66017 1.44533
1886.61173 1.44376
1884.56329 1.44282
1882.51485 1.44241
1880.46641 1.44192
1878.41797 1.44120
1876.36954 1.44097
1874.32110 1.44180
1872.27266 1.44389
1870.22422 1.44747
1868.17578 1.44904
1866.12734 1.44574
1864.07891 1.44223
1862.03047 1.44089
1859.98203 1.44048
1857.93359 1.44011
1855.88515 1.43961
1853.83671 1.43890
1851.78828 1.43882
1849.73984 1.44021
1847.69140 1.44271
1845.64296 1.44537
1843.59452 1.44494
1841.54608 1.44123
1839.49765 1.43923
1837.44921 1.43923
1835.40077 1.43893
1833.35233 1.43944
1831.30389 1.44255
1829.25545 1.44437
1827.20702 1.44275
1825.15858 1.44108
1823.11014 1.43923
1821.06170 1.43726
1819.01326 1.43606
1816.96482 1.43553
1814.91639 1.43597
1812.86795 1.43771
1810.81951 1.43886
1808.77107 1.43794
1806.72263 1.43680
1804.67419 1.43713
1802.62575 1.43907
1800.57732 1.44037
1798.52888 1.43971
1796.48044 1.43969
1794.43200 1.44188
1792.38356 1.44330
1790.33512 1.43953
1788.28669 1.43556
1786.23825 1.43473
1784.18981 1.43544
1782.14137 1.43646
1780.09293 1.43692
1778.04449 1.43657
1775.99606 1.43812
1773.94762 1.44228
1771.89918 1.44394
1769.85074 1.43997
1767.80230 1.43567
1765.75386 1.43379
1763.70543 1.43456
1761.65699 1.43575
1759.60855 1.43562
1757.56011 1.43507
1755.51167 1.43394
1753.46323 1.43464
1751.41480 1.43962
1749.36636 1.44477
1747.31792 1.44387
1745.26948 1.44081
1743.22104 1.43920
1741.17260 1.43852
1739.12417 1.43766
1737.07573 1.43845
1735.02729 1.44305
1732.97885 1.44505
1730.93041 1.43983
1728.88197 1.43391
1726.83354 1.43034
1724.78510 1.42996
1722.73666 1.43138
1720.68822 1.43455
1718.63978 1.44122
1716.59134 1.44570
1714.54291 1.43993
1712.49447 1.43338
1710.44603 1.43081
1708.39759 1.43252
1706.34915 1.43661
1704.30071 1.43842
1702.25228 1.43851
1700.20384 1.44160
1698.15540 1.44550
1696.10696 1.44146
1694.05852 1.43283
1692.01008 1.42972
1689.96165 1.43189
1687.91321 1.43548
1685.86477 1.43945
1683.81633 1.44185
1681.76789 1.43810
1679.71945 1.43387
1677.67102 1.43204
1675.62258 1.43288
1673.57414 1.43449
1671.52570 1.43623
1669.47726 1.43500
1667.42882 1.42958
1665.38038 1.42763
1663.33195 1.42886
1661.28351 1.42822
1659.23507 1.42672
1657.18663 1.42813
1655.13819 1.43343
1653.08975 1.43924
1651.04132 1.43801
1648.99288 1.43925
1646.94444 1.44023
1644.89600 1.43282
1642.84756 1.42675
1640.79912 1.42615
1638.75069 1.43016
1636.70225 1.43503
1634.65381 1.43080
1632.60537 1.42423
1630.55693 1.42282
1628.50849 1.42472
1626.46006 1.42669
1624.41162 1.42755
1622.36318 1.42639
1620.31474 1.42499
1618.26630 1.42624
1616.21786 1.42577
1614.16943 1.42159
1612.12099 1.41990
1610.07255 1.42094
1608.02411 1.42154
1605.97567 1.42052
1603.92723 1.41968
1601.87880 1.41903
1599.83036 1.41809
1597.78192 1.41813
1595.73348 1.41891
1593.68504 1.41861
1591.63660 1.41754
1589.58817 1.41675
1587.53973 1.41595
1585.49129 1.41519
1583.44285 1.41507
1581.39441 1.41613
1579.34597 1.41946
1577.29754 1.42463
1575.24910 1.42466
1573.20066 1.42124
1571.15222 1.42156
1569.10378 1.42266
1567.05534 1.42113
1565.00691 1.42054
1562.95847 1.42240
1560.91003 1.42814
1558.86159 1.43714
1556.81315 1.43389
1554.76471 1.42747
1552.71628 1.42341
1550.66784 1.42162
1548.61940 1.42080
1546.57096 1.42320
1544.52252 1.43136
1542.47408 1.44195
1540.42565 1.44254
1538.37721 1.42963
1536.32877 1.42442
1534.28033 1.42485
1532.23189 1.42327
1530.18345 1.42133
1528.13501 1.42376
1526.08658 1.42840
1524.03814 1.43262
1521.98970 1.43501
1519.94126 1.43201
1517.89282 1.42915
1515.84438 1.42651
1513.79595 1.42374
1511.74751 1.42546
1509.69907 1.43295
1507.65063 1.43915
1505.60219 1.42816
1503.55375 1.41962
1501.50532 1.41814
1499.45688 1.41978
1497.40844 1.42033
1495.36000 1.41646
1493.31156 1.41476
1491.26312 1.41909
1489.21469 1.42312
1487.16625 1.41752
1485.11781 1.41103
1483.06937 1.40890
1481.02093 1.40908
1478.97249 1.41009
1476.92406 1.41359
1474.87562 1.41954
1472.82718 1.42066
1470.77874 1.41336
1468.73030 1.40884
1466.68186 1.40949
1464.63343 1.41077
1462.58499 1.41039
1460.53655 1.41320
1458.48811 1.42075
1456.43967 1.42174
1454.39123 1.41413
1452.34280 1.40943
1450.29436 1.40815
1448.24592 1.40843
1446.19748 1.40691
1444.14904 1.40455
1442.10060 1.40370
1440.05217 1.40484
1438.00373 1.40794
1435.95529 1.40957
1433.90685 1.40798
1431.85841 1.40739
1429.80997 1.40708
1427.76154 1.40546
1425.71310 1.40492
1423.66466 1.40589
1421.61622 1.40769
1419.56778 1.41042
1417.51934 1.40939
1415.47091 1.40508
1413.42247 1.40265
1411.37403 1.40193
1409.32559 1.40128
1407.27715 1.40152
1405.22871 1.40251
1403.18028 1.40261
1401.13184 1.40375
1399.08340 1.40650
1397.03496 1.40801
1394.98652 1.40613
1392.93808 1.40154
1390.88965 1.39909
1388.84121 1.40032
1386.79277 1.40103
1384.74433 1.39858
1382.69589 1.39659
1380.64745 1.39657
1378.59901 1.39760
1376.55058 1.39949
1374.50214 1.40070
1372.45370 1.39881
1370.40526 1.39649
1368.35682 1.39535
1366.30838 1.39538
1364.25995 1.39747
1362.21151 1.39871
1360.16307 1.39627
1358.11463 1.39387
1356.06619 1.39320
1354.01775 1.39277
1351.96932 1.39200
1349.92088 1.39129
1347.87244 1.39060
1345.82400 1.39033
1343.77556 1.39125
1341.72712 1.39394
1339.67869 1.39663
1337.63025 1.39530
1335.58181 1.39169
1333.53337 1.38930
1331.48493 1.38833
1329.43649 1.38816
1327.38806 1.38828
1325.33962 1.38825
1323.29118 1.38834
1321.24274 1.38917
1319.19430 1.39013
1317.14586 1.39008
1315.09743 1.38945
1313.04899 1.38862
1311.00055 1.38754
1308.95211 1.38666
1306.90367 1.38599
1304.85523 1.38529
1302.80680 1.38454
1300.75836 1.38402
1298.70992 1.38399
1296.66148 1.38387
1294.61304 1.38354
1292.56460 1.38373
1290.51617 1.38428
1288.46773 1.38426
1286.41929 1.38350
1284.37085 1.38264
1282.32241 1.38196
1280.27397 1.38139
1278.22554 1.38095
1276.17710 1.38073
1274.12866 1.38085
1272.08022 1.38120
1270.03178 1.38122
1267.98334 1.38067
1265.93491 1.38002
1263.88647 1.37977
1261.83803 1.37995
1259.78959 1.38009
1257.74115 1.37989
1255.69271 1.37958
1253.64428 1.37935
1251.59584 1.37924
1249.54740 1.37921
1247.49896 1.37910
1245.45052 1.37876
1243.40208 1.37830
1241.35364 1.37773
1239.30521 1.37711
1237.25677 1.37674
1235.20833 1.37654
1233.15989 1.37640
1231.11145 1.37663
1229.06301 1.37673
1227.01458 1.37597
1224.96614 1.37487
1222.91770 1.37416
1220.86926 1.37389
1218.82082 1.37380
1216.77238 1.37352
1214.72395 1.37293
1212.67551 1.37227
1210.62707 1.37183
1208.57863 1.37160
1206.53019 1.37135
1204.48175 1.37088
1202.43332 1.37013
1200.38488 1.36952
1198.33644 1.36933
1196.28800 1.36925
1194.23956 1.36892
1192.19112 1.36841
1190.14269 1.36811
1188.09425 1.36792
1186.04581 1.36759
1183.99737 1.36737
1181.94893 1.36729
1179.90049 1.36698
1177.85206 1.36635
1175.80362 1.36576
1173.75518 1.36515
1171.70674 1.36455
1169.65830 1.36423
1167.60986 1.36420
1165.56143 1.36419
1163.51299 1.36373
1161.46455 1.36300
1159.41611 1.36246
1157.36767 1.36198
1155.31923 1.36160
1153.27080 1.36130
1151.22236 1.36071
1149.17392 1.36009
1147.12548 1.35984
1145.07704 1.35949
1143.02860 1.35880
1140.98017 1.35825
1138.93173 1.35810
1136.88329 1.35806
1134.83485 1.35781
1132.78641 1.35726
1130.73797 1.35656
1128.68954 1.35589
1126.64110 1.35552
1124.59266 1.35560
1122.54422 1.35589
1120.49578 1.35596
1118.44734 1.35556
1116.39891 1.35482
1114.35047 1.35412
1112.30203 1.35360
1110.25359 1.35322
1108.20515 1.35316
1106.15671 1.35332
1104.10827 1.35330
1102.05984 1.35285
1100.01140 1.35217
1097.96296 1.35168
1095.91452 1.35135
1093.86608 1.35076
1091.81764 1.35004
1089.76921 1.34962
1087.72077 1.34942
1085.67233 1.34921
1083.62389 1.34905
1081.57545 1.34880
1079.52701 1.34820
1077.47858 1.34740
1075.43014 1.34662
1073.38170 1.34606
1071.33326 1.34600
1069.28482 1.34587
1067.23638 1.34551
1065.18795 1.34551
1063.13951 1.34562
1061.09107 1.34551
1059.04263 1.34536
1056.99419 1.34519
1054.94575 1.34507
1052.89732 1.34499
1050.84888 1.34492
1048.80044 1.34500
1046.75200 1.34499
1044.70356 1.34469
1042.65512 1.34418
1040.60669 1.34335
1038.55825 1.34250
1036.50981 1.34208
1034.46137 1.34175
1032.41293 1.34123
1030.36449 1.34075
1028.31606 1.34056
1026.26762 1.34049
1024.21918 1.34026
1022.17074 1.33993
1020.12230 1.33963
1018.07386 1.33912
1016.02543 1.33829
1013.97699 1.33763
1011.92855 1.33746
1009.88011 1.33727
1007.83167 1.33685
1005.78323 1.33658
1003.73480 1.33629
1001.68636 1.33566
999.63792 1.33499
997.58948 1.33456
995.54104 1.33430
993.49260 1.33405
991.44417 1.33358
989.39573 1.33282
987.34729 1.33204
985.29885 1.33130
983.25041 1.33045
981.20197 1.32958
979.15354 1.32900
977.10510 1.32888
975.05666 1.32877
973.00822 1.32807
970.95978 1.32693
968.91134 1.32601
966.86290 1.32572
964.81447 1.32572
962.76603 1.32532
960.71759 1.32484
958.66915 1.32457
956.62071 1.32412
954.57227 1.32357
952.52384 1.32300
950.47540 1.32255
948.42696 1.32237
946.37852 1.32227
944.33008 1.32201
942.28164 1.32149
940.23321 1.32076
938.18477 1.32013
936.13633 1.31987
934.08789 1.31982
932.03945 1.31965
929.99101 1.31920
927.94258 1.31858
925.89414 1.31813
923.84570 1.31779
921.79726 1.31727
919.74882 1.31681
917.70038 1.31671
915.65195 1.31654
913.60351 1.31597
911.55507 1.31535
909.50663 1.31474
907.45819 1.31428
905.40975 1.31419
903.36132 1.31389
901.31288 1.31327
899.26444 1.31283
897.21600 1.31262
895.16756 1.31236
893.11912 1.31179
891.07069 1.31119
889.02225 1.31073
886.97381 1.31034
884.92537 1.30994
882.87693 1.30941
880.82849 1.30897
878.78006 1.30835
876.73162 1.30742
874.68318 1.30699
872.63474 1.30702
870.58630 1.30685
868.53786 1.30654
866.48943 1.30620
864.44099 1.30571
862.39255 1.30525
860.34411 1.30477
858.29567 1.30406
856.24723 1.30366
854.19880 1.30350
852.15036 1.30293
850.10192 1.30239
848.05348 1.30227
846.00504 1.30225
843.95660 1.30203
841.90817 1.30143
839.85973 1.30057
837.81129 1.30018
835.76285 1.30036
833.71441 1.30015
831.66597 1.29957
829.61753 1.29930
827.56910 1.29919
825.52066 1.29898
823.47222 1.29842
821.42378 1.29740
819.37534 1.29642
817.32690 1.29558
815.27847 1.29462
813.23003 1.29355
811.18159 1.29246
809.13315 1.29164
807.08471 1.29108
805.03627 1.29043
802.98784 1.29019
800.93940 1.29024
798.89096 1.28956
796.84252 1.28838
794.79408 1.28697
792.74564 1.28534
790.69721 1.28422
788.64877 1.28351
786.60033 1.28289
784.55189 1.28256
782.50345 1.28209
780.45501 1.28098
778.40658 1.27938
776.35814 1.27800
774.30970 1.27777
772.26126 1.27807
770.21282 1.27723
768.16438 1.27564
766.11595 1.27465
764.06751 1.27442
762.01907 1.27454
759.97063 1.27427
757.92219 1.27390
755.87375 1.27344
753.82532 1.27158
751.77688 1.26924
749.72844 1.26856
747.68000 1.26903
745.63156 1.26893
743.58312 1.26816
741.53469 1.26724
739.48625 1.26601
737.43781 1.26456
735.38937 1.26329
733.34093 1.26263
731.29249 1.26201
729.24406 1.26014
727.19562 1.25807
725.14718 1.25739
723.09874 1.25677
721.05030 1.25524
719.00186 1.25369
716.95343 1.25267
714.90499 1.25200
712.85655 1.25060
710.80811 1.24799
708.75967 1.24544
706.71123 1.24405
704.66280 1.24365
702.61436 1.24328
700.56592 1.24266
698.51748 1.24244
696.46904 1.24163
694.42060 1.23889
692.37216 1.23633
690.32373 1.23600
688.27529 1.23585
686.22685 1.23357
684.17841 1.23092
682.12997 1.23103
680.08153 1.23260
678.03310 1.23191
675.98466 1.22872
673.93622 1.22487
671.88778 1.22308
669.83934 1.22429
667.79090 1.22488
665.74247 1.22293
663.69403 1.22187
661.64559 1.22131
659.59715 1.22056
657.54871 1.22036
655.50027 1.21958
653.45184 1.21647
651.40340 1.21263
649.35496 1.20905
647.30652 1.20265
645.25808 1.19256
643.20964 1.18274
641.16121 1.17677
639.11277 1.17473
637.06433 1.17426
635.01589 1.17244
632.96745 1.16719
630.91901 1.16189
628.87058 1.15794
626.82214 1.14985
624.77370 1.13966
622.72526 1.13220
620.67682 1.12320
618.62838 1.11283
616.57995 1.10881
614.53151 1.10891
612.48307 1.10417
610.43463 1.09532
608.38619 1.08967
606.33775 1.08821
604.28932 1.08114
602.24088 1.06516
600.19244 1.05051
598.14400 1.03971
