3996.50324 0.95519
3994.45480 0.95550
3992.40636 0.95551
3990.35792 0.95539
3988.30948 0.95497
3986.26104 0.95447
3984.21261 0.95438
3982.16417 0.95458
3980.11573 0.95464
3978.06729 0.95488
3976.01885 0.95560
3973.97041 0.95589
3971.92198 0.95542
3969.87354 0.95466
3967.82510 0.95394
3965.77666 0.95401
3963.72822 0.95495
3961.67978 0.95536
3959.63135 0.95467
3957.58291 0.95418
3955.53447 0.95438
3953.48603 0.95520
3951.43759 0.95694
3949.38915 0.95850
3947.34072 0.95824
3945.29228 0.95812
3943.24384 0.95845
3941.19540 0.95667
3939.14696 0.95432
3937.09852 0.95381
3935.05009 0.95557
3933.00165 0.95846
3930.95321 0.95908
3928.90477 0.95731
3926.85633 0.95735
3924.80789 0.95901
3922.75946 0.95888
3920.71102 0.95830
3918.66258 0.95885
3916.61414 0.95796
3914.56570 0.95491
3912.51726 0.95244
3910.46883 0.95194
3908.42039 0.95456
3906.37195 0.96115
3904.32351 0.96835
3902.27507 0.96986
3900.22663 0.96608
3898.17820 0.96014
3896.12976 0.95672
3894.08132 0.95858
3892.03288 0.96134
3889.98444 0.95936
3887.93600 0.95834
3885.88756 0.96102
3883.83913 0.96340
3881.79069 0.96356
3879.74225 0.96013
3877.69381 0.95694
3875.64537 0.95868
3873.59693 0.96364
3871.54850 0.96805
3869.50006 0.96742
3867.45162 0.96445
3865.40318 0.96539
3863.35474 0.96488
3861.30630 0.95972
3859.25787 0.95794
3857.20943 0.96249
3855.16099 0.97122
3853.11255 0.97446
3851.06411 0.96496
3849.01567 0.95721
3846.96724 0.95473
3844.91880 0.95727
3842.87036 0.96314
3840.82192 0.97007
3838.77348 0.97367
3836.72504 0.96942
3834.67661 0.96367
3832.62817 0.95991
3830.57973 0.95748
3828.53129 0.95709
3826.48285 0.95807
3824.43441 0.96071
3822.38598 0.96622
3820.33754 0.96869
3818.28910 0.96565
3816.24066 0.96082
3814.19222 0.95378
3812.14378 0.94973
3810.09535 0.95062
3808.04691 0.95511
3805.99847 0.95901
3803.95003 0.96212
3801.90159 0.96502
3799.85315 0.96268
3797.80472 0.95879
3795.75628 0.95432
3793.70784 0.94948
3791.65940 0.94687
3789.61096 0.94665
3787.56252 0.94853
3785.51409 0.95070
3783.46565 0.95081
3781.41721 0.95115
3779.36877 0.95150
3777.32033 0.94855
3775.27189 0.94593
3773.22346 0.94729
3771.17502 0.95169
3769.12658 0.95444
3767.07814 0.95402
3765.02970 0.95248
3762.98126 0.95184
3760.93283 0.95448
3758.88439 0.95755
3756.83595 0.95790
3754.78751 0.96033
3752.73907 0.96803
3750.69063 0.97435
3748.64219 0.97156
3746.59376 0.96883
3744.54532 0.96526
3742.49688 0.96059
3740.44844 0.95989
3738.40000 0.96396
3736.35156 0.97140
3734.30313 0.97189
3732.25469 0.96234
3730.20625 0.95509
3728.15781 0.95423
3726.10937 0.95664
3724.06093 0.95719
3722.01250 0.95463
3719.96406 0.95088
3717.91562 0.94824
3715.86718 0.94894
3713.81874 0.95442
3711.77030 0.96122
3709.72187 0.95792
3707.67343 0.94977
3705.62499 0.94609
3703.57655 0.94689
3701.52811 0.94744
3699.47967 0.94518
3697.43124 0.94373
3695.38280 0.94479
3693.33436 0.94919
3691.28592 0.95652
3689.23748 0.95795
3687.18904 0.94968
3685.14061 0.94376
3683.09217 0.94258
3681.04373 0.94548
3678.99529 0.95199
3676.94685 0.95935
3674.89841 0.95920
3672.84998 0.95585
3670.80154 0.95629
3668.75310 0.95117
3666.70466 0.94289
3664.65622 0.93863
3662.60778 0.93753
3660.55935 0.93854
3658.51091 0.94162
3656.46247 0.94458
3654.41403 0.94584
3652.36559 0.95075
3650.31715 0.96191
3648.26872 0.96302
3646.22028 0.95062
3644.17184 0.94298
3642.12340 0.94010
3640.07496 0.93883
3638.02652 0.93846
3635.97809 0.93943
3633.92965 0.94206
3631.88121 0.94682
3629.83277 0.95232
3627.78433 0.94964
3625.73589 0.94221
3623.68746 0.93955
3621.63902 0.94269
3619.59058 0.94798
3617.54214 0.94886
3615.49370 0.94827
3613.44526 0.94776
3611.39682 0.94601
3609.34839 0.94486
3607.29995 0.94203
3605.25151 0.93797
3603.20307 0.93740
3601.15463 0.93961
3599.10619 0.94111
3597.05776 0.94178
3595.00932 0.94131
3592.96088 0.93877
3590.91244 0.93858
3588.86400 0.94298
3586.81556 0.94395
3584.76713 0.93820
3582.71869 0.93419
3580.67025 0.93300
3578.62181 0.93268
3576.57337 0.93230
3574.52493 0.93180
3572.47650 0.93222
3570.42806 0.93590
3568.37962 0.94338
3566.33118 0.94632
3564.28274 0.94027
3562.23430 0.93454
3560.18587 0.93152
3558.13743 0.92992
3556.08899 0.93018
3554.04055 0.93219
3551.99211 0.93295
3549.94367 0.93232
3547.89524 0.93358
3545.84680 0.93475
3543.79836 0.93201
3541.74992 0.92812
3539.70148 0.92660
3537.65304 0.92696
3535.60461 0.92675
3533.55617 0.92635
3531.50773 0.92782
3529.45929 0.93045
3527.41085 0.93192
3525.36241 0.93181
3523.31398 0.93020
3521.26554 0.92740
3519.21710 0.92515
3517.16866 0.92400
3515.12022 0.92364
3513.07178 0.92431
3511.02335 0.92579
3508.97491 0.92618
3506.92647 0.92577
3504.87803 0.92688
3502.82959 0.92758
3500.78115 0.92568
3498.73272 0.92392
3496.68428 0.92348
3494.63584 0.92272
3492.58740 0.92187
3490.53896 0.92219
3488.49052 0.92277
3486.44209 0.92258
3484.39365 0.92275
3482.34521 0.92330
3480.29677 0.92246
3478.24833 0.92121
3476.19989 0.92116
3474.15146 0.92116
3472.10302 0.92030
3470.05458 0.91952
3468.00614 0.91955
3465.95770 0.92007
3463.90926 0.92047
3461.86082 0.92029
3459.81239 0.91973
3457.76395 0.91934
3455.71551 0.91904
3453.66707 0.91855
3451.61863 0.91837
3449.57019 0.91950
3447.52176 0.92105
3445.47332 0.92096
3443.42488 0.91989
3441.37644 0.91883
3439.32800 0.91782
3437.27956 0.91717
3435.23113 0.91690
3433.18269 0.91701
3431.13425 0.91721
3429.08581 0.91709
3427.03737 0.91694
3424.98893 0.91735
3422.94050 0.91827
3420.89206 0.91858
3418.84362 0.91767
3416.79518 0.91656
3414.74674 0.91584
3412.69830 0.91539
3410.64987 0.91517
3408.60143 0.91514
3406.55299 0.91524
3404.50455 0.91530
3402.45611 0.91512
3400.40767 0.91498
3398.35924 0.91525
3396.31080 0.91547
3394.26236 0.91548
3392.21392 0.91521
3390.16548 0.91459
3388.11704 0.91432
3386.06861 0.91448
3384.02017 0.91437
3381.97173 0.91376
3379.92329 0.91320
3377.87485 0.91313
3375.82641 0.91331
3373.77798 0.91324
3371.72954 0.91298
3369.68110 0.91294
3367.63266 0.91313
3365.58422 0.91332
3363.53578 0.91327
3361.48735 0.91281
3359.43891 0.91222
3357.39047 0.91200
3355.34203 0.91195
3353.29359 0.91160
3351.24515 0.91105
3349.19672 0.91103
3347.14828 0.91138
3345.09984 0.91130
3343.05140 0.91090
3341.00296 0.91066
3338.95452 0.91090
3336.90609 0.91131
3334.85765 0.91120
3332.80921 0.91072
3330.76077 0.91050
3328.71233 0.91055
3326.66389 0.91043
3324.61545 0.91005
3322.56702 0.90986
3320.51858 0.90983
3318.47014 0.90960
3316.42170 0.90924
3314.37326 0.90909
3312.32482 0.90905
3310.27639 0.90887
3308.22795 0.90848
3306.17951 0.90799
3304.13107 0.90768
3302.08263 0.90768
3300.03419 0.90785
3297.98576 0.90784
3295.93732 0.90768
3293.88888 0.90781
3291.84044 0.90809
3289.79200 0.90807
3287.74356 0.90771
3285.69513 0.90728
3283.64669 0.90701
3281.59825 0.90697
3279.54981 0.90726
3277.50137 0.90757
3275.45293 0.90744
3273.40450 0.90697
3271.35606 0.90647
3269.30762 0.90618
3267.25918 0.90616
3265.21074 0.90625
3263.16230 0.90615
3261.11387 0.90591
3259.06543 0.90582
3257.01699 0.90585
3254.96855 0.90569
3252.92011 0.90521
3250.87167 0.90483
3248.82324 0.90475
3246.77480 0.90485
3244.72636 0.90504
3242.67792 0.90492
3240.62948 0.90436
3238.58104 0.90384
3236.53261 0.90358
3234.48417 0.90342
3232.43573 0.90335
3230.38729 0.90332
3228.33885 0.90310
3226.29041 0.90263
3224.24198 0.90218
3222.19354 0.90202
3220.14510 0.90184
3218.09666 0.90156
3216.04822 0.90152
3213.99978 0.90153
3211.95135 0.90121
3209.90291 0.90062
3207.85447 0.89995
3205.80603 0.89942
3203.75759 0.89913
3201.70915 0.89924
3199.66072 0.89967
3197.61228 0.89972
3195.56384 0.89909
3193.51540 0.89840
3191.46696 0.89810
3189.41852 0.89801
3187.37008 0.89803
3185.32165 0.89808
3183.27321 0.89781
3181.22477 0.89740
3179.17633 0.89727
3177.12789 0.89707
3175.07945 0.89650
3173.03102 0.89595
3170.98258 0.89567
3168.93414 0.89540
3166.88570 0.89500
3164.83726 0.89459
3162.78882 0.89419
3160.74039 0.89379
3158.69195 0.89346
3156.64351 0.89319
3154.59507 0.89288
3152.54663 0.89247
3150.49819 0.89212
3148.44976 0.89192
3146.40132 0.89167
3144.35288 0.89130
3142.30444 0.89075
3140.25600 0.89012
3138.20756 0.88971
3136.15913 0.88965
3134.11069 0.88964
3132.06225 0.88914
3130.01381 0.88848
3127.96537 0.88836
3125.91693 0.88845
3123.86850 0.88828
3121.82006 0.88785
3119.77162 0.88726
3117.72318 0.88676
3115.67474 0.88642
3113.62630 0.88618
3111.57787 0.88592
3109.52943 0.88560
3107.48099 0.88529
3105.43255 0.88511
3103.38411 0.88507
3101.33567 0.88486
3099.28724 0.88438
3097.23880 0.88393
3095.19036 0.88355
3093.14192 0.88303
3091.09348 0.88244
3089.04504 0.88187
3086.99661 0.88127
3084.94817 0.88082
3082.89973 0.88066
3080.85129 0.88043
3078.80285 0.87997
3076.75441 0.87967
3074.70598 0.87956
3072.65754 0.87923
3070.60910 0.87886
3068.56066 0.87876
3066.51222 0.87865
3064.46378 0.87819
3062.41535 0.87762
3060.36691 0.87743
3058.31847 0.87739
3056.27003 0.87704
3054.22159 0.87644
3052.17315 0.87587
3050.12471 0.87556
3048.07628 0.87538
3046.02784 0.87509
3043.97940 0.87472
3041.93096 0.87417
3039.88252 0.87359
3037.83408 0.87341
3035.78565 0.87366
3033.73721 0.87391
3031.68877 0.87369
3029.64033 0.87301
3027.59189 0.87253
3025.54345 0.87234
3023.49502 0.87214
3021.44658 0.87172
3019.39814 0.87108
3017.34970 0.87062
3015.30126 0.87051
3013.25282 0.87041
3011.20439 0.87007
3009.15595 0.86954
3007.10751 0.86902
3005.05907 0.86864
3003.01063 0.86829
3000.96219 0.86783
2998.91376 0.86739
2996.86532 0.86711
2994.81688 0.86679
2992.76844 0.86617
2990.72000 0.86556
2988.67156 0.86518
2986.62313 0.86477
2984.57469 0.86424
2982.52625 0.86371
2980.47781 0.86321
2978.42937 0.86283
2976.38093 0.86252
2974.33250 0.86195
2972.28406 0.86118
2970.23562 0.86054
2968.18718 0.86015
2966.13874 0.86003
2964.09030 0.85996
2962.04187 0.85973
2959.99343 0.85956
2957.94499 0.85939
2955.89655 0.85897
2953.84811 0.85857
2951.79967 0.85834
2949.75124 0.85808
2947.70280 0.85762
2945.65436 0.85685
2943.60592 0.85596
2941.55748 0.85533
2939.50904 0.85498
2937.46061 0.85471
2935.41217 0.85437
2933.36373 0.85389
2931.31529 0.85360
2929.26685 0.85371
2927.21841 0.85405
2925.16998 0.85445
2923.12154 0.85505
2921.07310 0.85594
2919.02466 0.85696
2916.97622 0.85780
2914.92778 0.85837
2912.87934 0.85872
2910.83091 0.85880
2908.78247 0.85864
2906.73403 0.85830
2904.68559 0.85783
2902.63715 0.85741
2900.58871 0.85703
2898.54028 0.85668
2896.49184 0.85644
2894.44340 0.85620
2892.39496 0.85588
2890.34652 0.85554
2888.29808 0.85514
2886.24965 0.85468
2884.20121 0.85417
2882.15277 0.85367
2880.10433 0.85324
2878.05589 0.85279
2876.00745 0.85222
2873.95902 0.85164
2871.91058 0.85121
2869.86214 0.85079
2867.81370 0.85024
2865.76526 0.84967
2863.71682 0.84915
2861.66839 0.84859
2859.61995 0.84802
2857.57151 0.84776
2855.52307 0.84804
2853.47463 0.84874
2851.42619 0.84961
2849.37776 0.85043
2847.32932 0.85102
2845.28088 0.85118
2843.23244 0.85092
2841.18400 0.85042
2839.13556 0.84982
2837.08713 0.84921
2835.03869 0.84867
2832.99025 0.84827
2830.94181 0.84793
2828.89337 0.84741
2826.84493 0.84684
2824.79650 0.84642
2822.74806 0.84597
2820.69962 0.84545
2818.65118 0.84500
2816.60274 0.84461
2814.55430 0.84417
2812.50587 0.84365
2810.45743 0.84318
2808.40899 0.84292
2806.36055 0.84275
2804.31211 0.84236
2802.26367 0.84181
2800.21524 0.84132
2798.16680 0.84096
2796.11836 0.84067
2794.06992 0.84029
2792.02148 0.83994
2789.97304 0.83971
2787.92461 0.83942
2785.87617 0.83905
2783.82773 0.83862
2781.77929 0.83827
2779.73085 0.83804
2777.68241 0.83775
2775.63397 0.83738
2773.58554 0.83707
2771.53710 0.83678
2769.48866 0.83637
2767.44022 0.83592
2765.39178 0.83556
2763.34334 0.83530
2761.29491 0.83495
2759.24647 0.83446
2757.19803 0.83400
2755.14959 0.83356
2753.10115 0.83301
2751.05271 0.83246
2749.00428 0.83211
2746.95584 0.83190
2744.90740 0.83158
2742.85896 0.83119
2740.81052 0.83081
2738.76208 0.83042
2736.71365 0.83007
2734.66521 0.82974
2732.61677 0.82938
2730.56833 0.82894
2728.51989 0.82850
2726.47145 0.82814
2724.42302 0.82787
2722.37458 0.82767
2720.32614 0.82744
2718.27770 0.82711
2716.22926 0.82672
2714.18082 0.82632
2712.13239 0.82599
2710.08395 0.82581
2708.03551 0.82560
2705.98707 0.82520
2703.93863 0.82482
2701.89019 0.82451
2699.84176 0.82413
2697.79332 0.82369
2695.74488 0.82326
2693.69644 0.82292
2691.64800 0.82266
2689.59956 0.82228
2687.55113 0.82186
2685.50269 0.82148
2683.45425 0.82103
2681.40581 0.82055
2679.35737 0.82022
2677.30893 0.82001
2675.26050 0.81969
2673.21206 0.81927
2671.16362 0.81897
2669.11518 0.81876
2667.06674 0.81843
2665.01830 0.81795
2662.96987 0.81746
2660.92143 0.81705
2658.87299 0.81667
2656.82455 0.81623
2654.77611 0.81583
2652.72767 0.81555
2650.67924 0.81529
2648.63080 0.81496
2646.58236 0.81461
2644.53392 0.81431
2642.48548 0.81410
2640.43704 0.81387
2638.38860 0.81353
2636.34017 0.81320
2634.29173 0.81295
2632.24329 0.81264
2630.19485 0.81219
2628.14641 0.81175
2626.09797 0.81138
2624.04954 0.81103
2622.00110 0.81072
2619.95266 0.81042
2617.90422 0.81004
2615.85578 0.80968
2613.80734 0.80934
2611.75891 0.80883
2609.71047 0.80825
2607.66203 0.80791
2605.61359 0.80767
2603.56515 0.80726
2601.51671 0.80680
2599.46828 0.80643
2597.41984 0.80617
2595.37140 0.80594
2593.32296 0.80561
2591.27452 0.80515
2589.22608 0.80466
2587.17765 0.80414
2585.12921 0.80367
2583.08077 0.80341
2581.03233 0.80316
2578.98389 0.80272
2576.93545 0.80232
2574.88702 0.80212
2572.83858 0.80201
2570.79014 0.80185
2568.74170 0.80151
2566.69326 0.80093
2564.64482 0.80041
2562.59639 0.80017
2560.54795 0.79997
2558.49951 0.79963
2556.45107 0.79921
2554.40263 0.79877
2552.35419 0.79842
2550.30576 0.79817
2548.25732 0.79786
2546.20888 0.79748
2544.16044 0.79711
2542.11200 0.79673
2540.06356 0.79629
2538.01513 0.79593
2535.96669 0.79564
2533.91825 0.79531
2531.86981 0.79490
2529.82137 0.79448
2527.77293 0.79409
2525.72450 0.79362
2523.67606 0.79310
2521.62762 0.79261
2519.57918 0.79217
2517.53074 0.79186
2515.48230 0.79165
2513.43387 0.79145
2511.38543 0.79115
2509.33699 0.79073
2507.28855 0.79041
2505.24011 0.79016
2503.19167 0.78979
2501.14324 0.78940
2499.09480 0.78911
2497.04636 0.78883
2494.99792 0.78849
2492.94948 0.78809
2490.90104 0.78768
2488.85260 0.78728
2486.80417 0.78689
2484.75573 0.78657
2482.70729 0.78638
2480.65885 0.78611
2478.61041 0.78567
2476.56197 0.78531
2474.51354 0.78501
2472.46510 0.78461
2470.41666 0.78418
2468.36822 0.78380
2466.31978 0.78340
2464.27134 0.78295
2462.22291 0.78259
2460.17447 0.78227
2458.12603 0.78182
2456.07759 0.78134
2454.02915 0.78087
2451.98071 0.78042
2449.93228 0.78003
2447.88384 0.77974
2445.83540 0.77951
2443.78696 0.77918
2441.73852 0.77871
2439.69008 0.77830
2437.64165 0.77807
2435.59321 0.77781
2433.54477 0.77742
2431.49633 0.77701
2429.44789 0.77665
2427.39945 0.77635
2425.35102 0.77614
2423.30258 0.77585
2421.25414 0.77536
2419.20570 0.77494
2417.15726 0.77467
2415.10882 0.77433
2413.06039 0.77391
2411.01195 0.77359
2408.96351 0.77341
2406.91507 0.77314
2404.86663 0.77271
2402.81819 0.77225
2400.76976 0.77190
2398.72132 0.77159
2396.67288 0.77121
2394.62444 0.77075
2392.57600 0.77031
2390.52756 0.77001
2388.47913 0.76996
2386.43069 0.77014
2384.38225 0.77052
2382.33381 0.77129
2380.28537 0.77261
2378.23693 0.77418
2376.18850 0.77567
2374.14006 0.77692
2372.09162 0.77821
2370.04318 0.77970
2367.99474 0.78075
2365.94630 0.78125
2363.89787 0.78188
2361.84943 0.78241
2359.80099 0.78228
2357.75255 0.78154
2355.70411 0.78016
2353.65567 0.77820
2351.60723 0.77609
2349.55880 0.77476
2347.51036 0.77470
2345.46192 0.77548
2343.41348 0.77582
2341.36504 0.77524
2339.31660 0.77438
2337.26817 0.77379
2335.21973 0.77362
2333.17129 0.77343
2331.12285 0.77281
2329.07441 0.77193
2327.02597 0.77102
2324.97754 0.77035
2322.92910 0.76975
2320.88066 0.76859
2318.83222 0.76699
2316.78378 0.76553
2314.73534 0.76438
2312.68691 0.76339
2310.63847 0.76231
2308.59003 0.76103
2306.54159 0.75975
2304.49315 0.75873
2302.44471 0.75787
2300.39628 0.75698
2298.34784 0.75617
2296.29940 0.75543
2294.25096 0.75458
2292.20252 0.75378
2290.15408 0.75317
2288.10565 0.75262
2286.05721 0.75207
2284.00877 0.75151
2281.96033 0.75100
2279.91189 0.75062
2277.86345 0.75038
2275.81502 0.75019
2273.76658 0.74988
2271.71814 0.74948
2269.66970 0.74921
2267.62126 0.74901
2265.57282 0.74873
2263.52439 0.74833
2261.47595 0.74786
2259.42751 0.74741
2257.37907 0.74700
2255.33063 0.74657
2253.28219 0.74614
2251.23376 0.74562
2249.18532 0.74503
2247.13688 0.74457
2245.08844 0.74428
2243.04000 0.74395
2240.99156 0.74349
2238.94313 0.74302
2236.89469 0.74249
2234.84625 0.74191
2232.79781 0.74140
2230.74937 0.74101
2228.70093 0.74073
2226.65250 0.74044
2224.60406 0.74005
2222.55562 0.73970
2220.50718 0.73943
2218.45874 0.73908
2216.41030 0.73869
2214.36186 0.73833
2212.31343 0.73797
2210.26499 0.73764
2208.21655 0.73735
2206.16811 0.73696
2204.11967 0.73656
2202.07123 0.73628
2200.02280 0.73604
2197.97436 0.73572
2195.92592 0.73528
2193.87748 0.73486
2191.82904 0.73454
2189.78060 0.73425
2187.73217 0.73393
2185.68373 0.73359
2183.63529 0.73320
2181.58685 0.73273
2179.53841 0.73223
2177.48997 0.73177
2175.44154 0.73130
2173.39310 0.73082
2171.34466 0.73039
2169.29622 0.72995
2167.24778 0.72949
2165.19934 0.72907
2163.15091 0.72861
2161.10247 0.72814
2159.05403 0.72779
2157.00559 0.72750
2154.95715 0.72715
2152.90871 0.72673
2150.86028 0.72634
2148.81184 0.72595
2146.76340 0.72551
2144.71496 0.72513
2142.66652 0.72488
2140.61808 0.72462
2138.56965 0.72427
2136.52121 0.72392
2134.47277 0.72358
2132.42433 0.72323
2130.37589 0.72281
2128.32745 0.72241
2126.27902 0.72213
2124.23058 0.72184
2122.18214 0.72143
2120.13370 0.72104
2118.08526 0.72074
2116.03682 0.72039
2113.98839 0.71988
2111.93995 0.71932
2109.89151 0.71883
2107.84307 0.71841
2105.79463 0.71802
2103.74619 0.71758
2101.69776 0.71712
2099.64932 0.71661
2097.60088 0.71611
2095.55244 0.71575
2093.50400 0.71548
2091.45556 0.71531
2089.40713 0.71503
2087.35869 0.71437
2085.31025 0.71368
2083.26181 0.71327
2081.21337 0.71303
2079.16493 0.71279
2077.11649 0.71243
2075.06806 0.71202
2073.01962 0.71166
2070.97118 0.71138
2068.92274 0.71128
2066.87430 0.71155
2064.82586 0.71155
2062.77743 0.71077
2060.72899 0.70995
2058.68055 0.70941
2056.63211 0.70887
2054.58367 0.70840
2052.53523 0.70798
2050.48680 0.70754
2048.43836 0.70714
2046.38992 0.70692
2044.34148 0.70689
2042.29304 0.70680
2040.24460 0.70615
2038.19617 0.70512
2036.14773 0.70432
2034.09929 0.70391
2032.05085 0.70365
2030.00241 0.70335
2027.95397 0.70304
2025.90554 0.70273
2023.85710 0.70234
2021.80866 0.70208
2019.76022 0.70245
2017.71178 0.70287
2015.66334 0.70210
2013.61491 0.70075
2011.56647 0.69999
2009.51803 0.69970
2007.46959 0.69936
2005.42115 0.69885
2003.37271 0.69835
2001.32428 0.69798
1999.27584 0.69761
1997.22740 0.69727
1995.17896 0.69772
1993.13052 0.69880
1991.08208 0.69871
1989.03365 0.69732
1986.98521 0.69582
1984.93677 0.69463
1982.88833 0.69390
1980.83989 0.69339
1978.79145 0.69291
1976.74302 0.69240
1974.69458 0.69195
1972.64614 0.69163
1970.59770 0.69189
1968.54926 0.69291
1966.50082 0.69299
1964.45239 0.69145
1962.40395 0.69013
1960.35551 0.68950
1958.30707 0.68907
1956.25863 0.68885
1954.21019 0.68846
1952.16176 0.68781
1950.11332 0.68754
1948.06488 0.68800
1946.01644 0.68921
1943.96800 0.69058
1941.91956 0.68993
1939.87112 0.68720
1937.82269 0.68525
1935.77425 0.68468
1933.72581 0.68437
1931.67737 0.68377
1929.62893 0.68319
1927.58049 0.68311
1925.53206 0.68432
1923.48362 0.68603
1921.43518 0.68614
1919.38674 0.68548
1917.33830 0.68416
1915.28986 0.68180
1913.24143 0.68070
1911.19299 0.68143
1909.14455 0.68182
1907.09611 0.68048
1905.04767 0.67885
1902.99923 0.67792
1900.95080 0.67731
1898.90236 0.67726
1896.85392 0.67810
1894.80548 0.67847
1892.75704 0.67819
1890.70860 0.67858
1888.66017 0.67812
1886.61173 0.67634
1884.56329 0.67499
1882.51485 0.67407
1880.46641 0.67337
1878.41797 0.67285
1876.36954 0.67236
1874.32110 0.67236
1872.27266 0.67446
1870.22422 0.67913
1868.17578 0.68105
1866.12734 0.67657
1864.07891 0.67199
1862.03047 0.67020
1859.98203 0.66968
1857.93359 0.66892
1855.88515 0.66794
1853.83671 0.66726
1851.78828 0.66730
1849.73984 0.66875
1847.69140 0.67163
1845.64296 0.67456
1843.59452 0.67378
1841.54608 0.66952
1839.49765 0.66702
1837.44921 0.66653
1835.40077 0.66604
1833.35233 0.66673
1831.30389 0.66995
1829.25545 0.67174
1827.20702 0.66999
1825.15858 0.66781
1823.11014 0.66496
1821.06170 0.66234
1819.01326 0.66123
1816.96482 0.66073
1814.91639 0.66081
1812.86795 0.66249
1810.81951 0.66381
1808.77107 0.66239
1806.72263 0.66036
1804.67419 0.66039
1802.62575 0.66269
1800.57732 0.66428
1798.52888 0.66360
1796.48044 0.66361
1794.43200 0.66588
1792.38356 0.66729
1790.33512 0.66295
1788.28669 0.65803
1786.23825 0.65652
1784.18981 0.65692
1782.14137 0.65781
1780.09293 0.65796
1778.04449 0.65720
1775.99606 0.65868
1773.94762 0.66351
1771.89918 0.66623
1769.85074 0.66198
1767.80230 0.65621
1765.75386 0.65289
1763.70543 0.65323
1761.65699 0.65451
1759.60855 0.65391
1757.56011 0.65283
1755.51167 0.65167
1753.46323 0.65286
1751.41480 0.65876
1749.36636 0.66458
1747.31792 0.66382
1745.26948 0.66089
1743.22104 0.65934
1741.17260 0.65878
1739.12417 0.65826
1737.07573 0.65913
1735.02729 0.66313
1732.97885 0.66417
1730.93041 0.65825
1728.88197 0.65154
1726.83354 0.64732
1724.78510 0.64672
1722.73666 0.64801
1720.68822 0.65157
1718.63978 0.66024
1716.59134 0.66670
1714.54291 0.65940
1712.49447 0.65094
1710.44603 0.64761
1708.39759 0.64929
1706.34915 0.65363
1704.30071 0.65601
1702.25228 0.65709
1700.20384 0.66094
1698.15540 0.66341
1696.10696 0.65714
1694.05852 0.64762
1692.01008 0.64432
1689.96165 0.64629
1687.91321 0.65014
1685.86477 0.65535
1683.81633 0.65830
1681.76789 0.65238
1679.71945 0.64618
1677.67102 0.64348
1675.62258 0.64435
1673.57414 0.64638
1671.52570 0.64901
1669.47726 0.64841
1667.42882 0.64165
1665.38038 0.63828
1663.33195 0.63912
1661.28351 0.63779
1659.23507 0.63534
1657.18663 0.63745
1655.13819 0.64511
1653.08975 0.65196
1651.04132 0.64922
1648.99288 0.65036
1646.94444 0.65067
1644.89600 0.64134
1642.84756 0.63443
1640.79912 0.63365
1638.75069 0.63806
1636.70225 0.64399
1634.65381 0.63963
1632.60537 0.63201
1630.55693 0.62993
1628.50849 0.63129
1626.46006 0.63324
1624.41162 0.63502
1622.36318 0.63420
1620.31474 0.63223
1618.26630 0.63360
1616.21786 0.63362
1614.16943 0.62856
1612.12099 0.62564
1610.07255 0.62591
1608.02411 0.62602
1605.97567 0.62475
1603.92723 0.62391
1601.87880 0.62312
1599.83036 0.62179
1597.78192 0.62148
1595.73348 0.62212
1593.68504 0.62177
1591.63660 0.62056
1589.58817 0.61942
1587.53973 0.61838
1585.49129 0.61773
1583.44285 0.61760
1581.39441 0.61849
1579.34597 0.62214
1577.29754 0.62810
1575.24910 0.62822
1573.20066 0.62459
1571.15222 0.62545
1569.10378 0.62689
1567.05534 0.62465
1565.00691 0.62342
1562.95847 0.62522
1560.91003 0.63178
1558.86159 0.64265
1556.81315 0.63914
1554.76471 0.63133
1552.71628 0.62620
1550.66784 0.62376
1548.61940 0.62254
1546.57096 0.62535
1544.52252 0.63535
1542.47408 0.64841
1540.42565 0.64928
1538.37721 0.63389
1536.32877 0.62721
1534.28033 0.62693
1532.23189 0.62435
1530.18345 0.62163
1528.13501 0.62430
1526.08658 0.62979
1524.03814 0.63483
1521.98970 0.63820
1519.94126 0.63549
1517.89282 0.63146
1515.84438 0.62627
1513.79595 0.62136
1511.74751 0.62257
1509.69907 0.63125
1507.65063 0.63993
1505.60219 0.62711
1503.55375 0.61545
1501.50532 0.61295
1499.45688 0.61522
1497.40844 0.61678
1495.36000 0.61247
1493.31156 0.61014
1491.26312 0.61489
1489.21469 0.61955
1487.16625 0.61314
1485.11781 0.60529
1483.06937 0.60223
1481.02093 0.60183
1478.97249 0.60257
1476.92406 0.60653
1474.87562 0.61389
1472.82718 0.61597
1470.77874 0.60748
1468.73030 0.60177
1466.68186 0.60227
1464.63343 0.60356
1462.58499 0.60275
1460.53655 0.60604
1458.48811 0.61584
1456.43967 0.61762
1454.39123 0.60743
1452.34280 0.60105
1450.29436 0.59919
1448.24592 0.59905
1446.19748 0.59688
1444.14904 0.59397
1442.10060 0.59290
1440.05217 0.59441
1438.00373 0.59833
1435.95529 0.60020
1433.90685 0.59796
1431.85841 0.59678
1429.80997 0.59607
1427.76154 0.59432
1425.71310 0.59427
1423.66466 0.59578
1421.61622 0.59760
1419.56778 0.60057
1417.51934 0.59917
1415.47091 0.59341
1413.42247 0.58993
1411.37403 0.58880
1409.32559 0.58808
1407.27715 0.58845
1405.22871 0.58934
1403.18028 0.58865
1401.13184 0.58907
1399.08340 0.59191
1397.03496 0.59377
1394.98652 0.59160
1392.93808 0.58638
1390.88965 0.58348
1388.84121 0.58453
1386.79277 0.58497
1384.74433 0.58197
1382.69589 0.57971
1380.64745 0.57978
1378.59901 0.58100
1376.55058 0.58339
1374.50214 0.58513
1372.45370 0.58305
1370.40526 0.58044
1368.35682 0.57933
1366.30838 0.57937
1364.25995 0.58177
1362.21151 0.58317
1360.16307 0.58001
1358.11463 0.57694
1356.06619 0.57600
1354.01775 0.57538
1351.96932 0.57461
1349.92088 0.57415
1347.87244 0.57351
1345.82400 0.57284
1343.77556 0.57357
1341.72712 0.57696
1339.67869 0.58026
1337.63025 0.57822
1335.58181 0.57360
1333.53337 0.57084
1331.48493 0.56995
1329.43649 0.56955
1327.38806 0.56903
1325.33962 0.56869
1323.29118 0.56894
1321.24274 0.57000
1319.19430 0.57098
1317.14586 0.57062
1315.09743 0.56967
1313.04899 0.56865
1311.00055 0.56720
1308.95211 0.56595
1306.90367 0.56513
1304.85523 0.56440
1302.80680 0.56384
1300.75836 0.56345
1298.70992 0.56315
1296.66148 0.56287
1294.61304 0.56252
1292.56460 0.56224
1290.51617 0.56219
1288.46773 0.56206
1286.41929 0.56141
1284.37085 0.56058
1282.32241 0.56002
1280.27397 0.55966
1278.22554 0.55926
1276.17710 0.55892
1274.12866 0.55891
1272.08022 0.55909
1270.03178 0.55887
1267.98334 0.55824
1265.93491 0.55764
1263.88647 0.55735
1261.83803 0.55738
1259.78959 0.55723
1257.74115 0.55666
1255.69271 0.55604
1253.64428 0.55551
1251.59584 0.55503
1249.54740 0.55464
1247.49896 0.55437
1245.45052 0.55415
1243.40208 0.55381
1241.35364 0.55333
1239.30521 0.55292
1237.25677 0.55260
1235.20833 0.55227
1233.15989 0.55196
1231.11145 0.55169
1229.06301 0.55146
1227.01458 0.55123
1224.96614 0.55094
1222.91770 0.55053
1220.86926 0.55012
1218.82082 0.54982
1216.77238 0.54953
1214.72395 0.54929
1212.67551 0.54911
1210.62707 0.54877
1208.57863 0.54828
1206.53019 0.54781
1204.48175 0.54742
1202.43332 0.54711
1200.38488 0.54683
1198.33644 0.54652
1196.28800 0.54617
1194.23956 0.54584
1192.19112 0.54555
1190.14269 0.54528
1188.09425 0.54497
1186.04581 0.54461
1183.99737 0.54431
1181.94893 0.54411
1179.90049 0.54387
1177.85206 0.54355
1175.80362 0.54324
1173.75518 0.54295
1171.70674 0.54262
1169.65830 0.54227
1167.60986 0.54202
1165.56143 0.54183
1163.51299 0.54158
1161.46455 0.54121
1159.41611 0.54081
1157.36767 0.54049
1155.31923 0.54027
1153.27080 0.54016
1151.22236 0.53999
1149.17392 0.53973
1147.12548 0.53948
1145.07704 0.53926
1143.02860 0.53902
1140.98017 0.53878
1138.93173 0.53849
1136.88329 0.53815
1134.83485 0.53782
1132.78641 0.53749
1130.73797 0.53716
1128.68954 0.53694
1126.64110 0.53682
1124.59266 0.53669
1122.54422 0.53654
1120.49578 0.53647
1118.44734 0.53644
1116.39891 0.53637
1114.35047 0.53624
1112.30203 0.53605
1110.25359 0.53583
1108.20515 0.53559
1106.15671 0.53530
1104.10827 0.53494
1102.05984 0.53458
1100.01140 0.53424
1097.96296 0.53388
1095.91452 0.53358
1093.86608 0.53335
1091.81764 0.53305
1089.76921 0.53273
1087.72077 0.53244
1085.67233 0.53211
1083.62389 0.53166
1081.57545 0.53116
1079.52701 0.53067
1077.47858 0.53021
1075.43014 0.52974
1073.38170 0.52921
1071.33326 0.52859
1069.28482 0.52794
1067.23638 0.52738
1065.18795 0.52692
1063.13951 0.52647
1061.09107 0.52597
1059.04263 0.52548
1056.99419 0.52514
1054.94575 0.52489
1052.89732 0.52452
1050.84888 0.52404
1048.80044 0.52358
1046.75200 0.52317
1044.70356 0.52281
1042.65512 0.52243
1040.60669 0.52199
1038.55825 0.52155
1036.50981 0.52122
1034.46137 0.52104
1032.41293 0.52097
1030.36449 0.52097
1028.31606 0.52100
1026.26762 0.52107
1024.21918 0.52104
1022.17074 0.52080
1020.12230 0.52044
1018.07386 0.52011
1016.02543 0.51981
1013.97699 0.51946
1011.92855 0.51902
1009.88011 0.51863
1007.83167 0.51849
1005.78323 0.51860
1003.73480 0.51867
1001.68636 0.51855
999.63792 0.51825
997.58948 0.51783
995.54104 0.51737
993.49260 0.51681
991.44417 0.51613
989.39573 0.51551
987.34729 0.51497
985.29885 0.51436
983.25041 0.51370
981.20197 0.51307
979.15354 0.51250
977.10510 0.51196
975.05666 0.51135
973.00822 0.51066
970.95978 0.51005
968.91134 0.50953
966.86290 0.50896
964.81447 0.50834
962.76603 0.50773
960.71759 0.50711
958.66915 0.50650
956.62071 0.50597
954.57227 0.50545
952.52384 0.50495
950.47540 0.50453
948.42696 0.50405
946.37852 0.50344
944.33008 0.50285
942.28164 0.50241
940.23321 0.50205
938.18477 0.50169
936.13633 0.50128
934.08789 0.50088
932.03945 0.50059
929.99101 0.50035
927.94258 0.49998
925.89414 0.49956
923.84570 0.49931
921.79726 0.49914
919.74882 0.49895
917.70038 0.49882
915.65195 0.49873
913.60351 0.49866
911.55507 0.49864
909.50663 0.49861
907.45819 0.49839
905.40975 0.49815
903.36132 0.49801
901.31288 0.49781
899.26444 0.49755
897.21600 0.49727
895.16756 0.49685
893.11912 0.49639
891.07069 0.49602
889.02225 0.49567
886.97381 0.49524
884.92537 0.49485
882.87693 0.49451
880.82849 0.49411
878.78006 0.49371
876.73162 0.49334
874.68318 0.49283
872.63474 0.49216
870.58630 0.49144
868.53786 0.49070
866.48943 0.49000
864.44099 0.48929
862.39255 0.48854
860.34411 0.48792
858.29567 0.48736
856.24723 0.48675
854.19880 0.48609
852.15036 0.48535
850.10192 0.48455
848.05348 0.48380
846.00504 0.48310
843.95660 0.48237
841.90817 0.48162
839.85973 0.48096
837.81129 0.48029
835.76285 0.47959
833.71441 0.47894
831.66597 0.47831
829.61753 0.47771
827.56910 0.47711
825.52066 0.47642
823.47222 0.47571
821.42378 0.47516
819.37534 0.47481
817.32690 0.47459
815.27847 0.47435
813.23003 0.47400
811.18159 0.47365
809.13315 0.47334
807.08471 0.47307
805.03627 0.47296
802.98784 0.47302
800.93940 0.47306
798.89096 0.47298
796.84252 0.47277
794.79408 0.47241
792.74564 0.47193
790.69721 0.47140
788.64877 0.47091
786.60033 0.47046
784.55189 0.47005
782.50345 0.46962
780.45501 0.46905
778.40658 0.46846
776.35814 0.46779
774.30970 0.46671
772.26126 0.46539
770.21282 0.46412
768.16438 0.46290
766.11595 0.46179
764.06751 0.46069
762.01907 0.45937
759.97063 0.45805
757.92219 0.45700
755.87375 0.45595
753.82532 0.45466
751.77688 0.45327
749.72844 0.45188
747.68000 0.45047
745.63156 0.44909
743.58312 0.44768
741.53469 0.44604
739.48625 0.44439
737.43781 0.44310
735.38937 0.44197
733.34093 0.44071
731.29249 0.43934
729.24406 0.43792
727.19562 0.43646
725.14718 0.43523
723.09874 0.43438
721.05030 0.43355
719.00186 0.43232
716.95343 0.43081
714.90499 0.42936
712.85655 0.42809
710.80811 0.42697
708.75967 0.42607
706.71123 0.42542
704.66280 0.42462
702.61436 0.42358
700.56592 0.42260
698.51748 0.42157
696.46904 0.42035
694.42060 0.41939
692.37216 0.41886
690.32373 0.41852
688.27529 0.41802
686.22685 0.41716
684.17841 0.41627
682.12997 0.41553
680.08153 0.41492
678.03310 0.41440
675.98466 0.41367
673.93622 0.41268
671.88778 0.41247
669.83934 0.41327
667.79090 0.41238
665.74247 0.41030
663.69403 0.40990
661.64559 0.41030
659.59715 0.41025
657.54871 0.40924
655.50027 0.40761
653.45184 0.40534
651.40340 0.40217
649.35496 0.39853
647.30652 0.39398
645.25808 0.38843
643.20964 0.38335
641.16121 0.37923
639.11277 0.37547
637.06433 0.37201
635.01589 0.36826
632.96745 0.36339
630.91901 0.35831
628.87058 0.35419
626.82214 0.35090
624.77370 0.34749
622.72526 0.34339
620.67682 0.33949
618.62838 0.33632
616.57995 0.33302
614.53151 0.32925
612.48307 0.32578
610.43463 0.32198
608.38619 0.31674
606.33775 0.31143
604.28932 0.30708
602.24088 0.30253
600.19244 0.29690
598.14400 0.29062
