3996.50324 1.55235
3994.45480 1.55314
3992.40636 1.55306
3990.35792 1.55296
3988.30948 1.55391
3986.26104 1.55518
3984.21261 1.55546
3982.16417 1.55524
3980.11573 1.55534
3978.06729 1.55535
3976.01885 1.55557
3973.97041 1.55620
3971.92198 1.55679
3969.87354 1.55708
3967.82510 1.55636
3965.77666 1.55578
3963.72822 1.55655
3961.67978 1.55644
3959.63135 1.55526
3957.58291 1.55539
3955.53447 1.55648
3953.48603 1.55763
3951.43759 1.55876
3949.38915 1.55902
3947.34072 1.55877
3945.29228 1.55981
3943.24384 1.56135
3941.19540 1.56066
3939.14696 1.55859
3937.09852 1.55774
3935.05009 1.55871
3933.00165 1.56095
3930.95321 1.56261
3928.90477 1.56193
3926.85633 1.56093
3924.80789 1.56109
3922.75946 1.56167
3920.71102 1.56253
3918.66258 1.56324
3916.61414 1.56256
3914.56570 1.56113
3912.51726 1.56035
3910.46883 1.55999
3908.42039 1.55999
3906.37195 1.56141
3904.32351 1.56453
3902.27507 1.56770
3900.22663 1.56815
3898.17820 1.56536
3896.12976 1.56386
3894.08132 1.56621
3892.03288 1.56872
3889.98444 1.56682
3887.93600 1.56462
3885.88756 1.56464
3883.83913 1.56612
3881.79069 1.56704
3879.74225 1.56524
3877.69381 1.56360
3875.64537 1.56482
3873.59693 1.56811
3871.54850 1.57112
3869.50006 1.57148
3867.45162 1.57105
3865.40318 1.57126
3863.35474 1.56939
3861.30630 1.56677
3859.25787 1.56657
3857.20943 1.56878
3855.16099 1.57280
3853.11255 1.57486
3851.06411 1.57111
3849.01567 1.56783
3846.96724 1.56716
3844.91880 1.56905
3842.87036 1.57213
3840.82192 1.57591
3838.77348 1.57864
3836.72504 1.57586
3834.67661 1.57163
3832.62817 1.56933
3830.57973 1.56862
3828.53129 1.56989
3826.48285 1.57199
3824.43441 1.57349
3822.38598 1.57515
3820.33754 1.57660
3818.28910 1.57688
3816.24066 1.57479
3814.19222 1.57054
3812.14378 1.56834
3810.09535 1.56887
3808.04691 1.57118
3805.99847 1.57315
3803.95003 1.57491
3801.90159 1.57708
3799.85315 1.57653
3797.80472 1.57404
3795.75628 1.57124
3793.70784 1.56903
3791.65940 1.56782
3789.61096 1.56801
3787.56252 1.56957
3785.51409 1.57076
3783.46565 1.57077
3781.41721 1.57115
3779.36877 1.57173
3777.32033 1.57108
3775.27189 1.57073
3773.22346 1.57177
3771.17502 1.57367
3769.12658 1.57559
3767.07814 1.57660
3765.02970 1.57616
3762.98126 1.57571
3760.93283 1.57707
3758.88439 1.57893
3756.83595 1.57904
3754.78751 1.57939
3752.73907 1.58160
3750.69063 1.58306
3748.64219 1.58263
3746.59376 1.58262
3744.54532 1.58104
3742.49688 1.57991
3740.44844 1.58163
3738.40000 1.58418
3736.35156 1.58559
3734.30313 1.58422
3732.25469 1.58102
3730.20625 1.57905
3728.15781 1.57958
3726.10937 1.58138
3724.06093 1.58232
3722.01250 1.58163
3719.96406 1.58071
3717.91562 1.58078
3715.86718 1.58158
3713.81874 1.58334
3711.77030 1.58501
3709.72187 1.58218
3707.67343 1.57799
3705.62499 1.57703
3703.57655 1.57837
3701.52811 1.57891
3699.47967 1.57878
3697.43124 1.57950
3695.38280 1.58042
3693.33436 1.58159
3691.28592 1.58400
3689.23748 1.58615
3687.18904 1.58579
3685.14061 1.58467
3683.09217 1.58350
3681.04373 1.58334
3678.99529 1.58510
3676.94685 1.58851
3674.89841 1.59240
3672.84998 1.59507
3670.80154 1.59559
3668.75310 1.59061
3666.70466 1.58571
3664.65622 1.58470
3662.60778 1.58526
3660.55935 1.58641
3658.51091 1.58942
3656.46247 1.59281
3654.41403 1.59398
3652.36559 1.59566
3650.31715 1.60031
3648.26872 1.60202
3646.22028 1.59714
3644.17184 1.59424
3642.12340 1.59461
3640.07496 1.59568
3638.02652 1.59615
3635.97809 1.59720
3633.92965 1.59952
3631.88121 1.60252
3629.83277 1.60524
3627.78433 1.60536
3625.73589 1.60348
3623.68746 1.60276
3621.63902 1.60422
3619.59058 1.60685
3617.54214 1.60931
3615.49370 1.61179
3613.44526 1.61206
3611.39682 1.61037
3609.34839 1.61065
3607.29995 1.61058
3605.25151 1.60853
3603.20307 1.60820
3601.15463 1.60965
3599.10619 1.61069
3597.05776 1.61189
3595.00932 1.61345
3592.96088 1.61414
3590.91244 1.61509
3588.86400 1.61739
3586.81556 1.61775
3584.76713 1.61496
3582.71869 1.61373
3580.67025 1.61492
3578.62181 1.61652
3576.57337 1.61665
3574.52493 1.61588
3572.47650 1.61678
3570.42806 1.62087
3568.37962 1.62680
3566.33118 1.62844
3564.28274 1.62476
3562.23430 1.62192
3560.18587 1.62072
3558.13743 1.62027
3556.08899 1.62019
3554.04055 1.62083
3551.99211 1.62211
3549.94367 1.62391
3547.89524 1.62659
3545.84680 1.62754
3543.79836 1.62543
3541.74992 1.62386
3539.70148 1.62370
3537.65304 1.62403
3535.60461 1.62448
3533.55617 1.62549
3531.50773 1.62787
3529.45929 1.63066
3527.41085 1.63233
3525.36241 1.63296
3523.31398 1.63241
3521.26554 1.63082
3519.21710 1.62989
3517.16866 1.63029
3515.12022 1.63105
3513.07178 1.63235
3511.02335 1.63473
3508.97491 1.63593
3506.92647 1.63539
3504.87803 1.63604
3502.82959 1.63720
3500.78115 1.63681
3498.73272 1.63618
3496.68428 1.63573
3494.63584 1.63495
3492.58740 1.63470
3490.53896 1.63612
3488.49052 1.63811
3486.44209 1.63889
3484.39365 1.63930
3482.34521 1.63997
3480.29677 1.64028
3478.24833 1.64030
3476.19989 1.64057
3474.15146 1.64078
3472.10302 1.64066
3470.05458 1.64034
3468.00614 1.63991
3465.95770 1.64034
3463.90926 1.64171
3461.86082 1.64290
3459.81239 1.64368
3457.76395 1.64385
3455.71551 1.64371
3453.66707 1.64444
3451.61863 1.64590
3449.57019 1.64678
3447.52176 1.64648
3445.47332 1.64502
3443.42488 1.64307
3441.37644 1.64238
3439.32800 1.64382
3437.27956 1.64540
3435.23113 1.64550
3433.18269 1.64516
3431.13425 1.64627
3429.08581 1.64859
3427.03737 1.64973
3424.98893 1.64979
3422.94050 1.65026
3420.89206 1.65109
3418.84362 1.65198
3416.79518 1.65227
3414.74674 1.65142
3412.69830 1.65031
3410.64987 1.65005
3408.60143 1.65066
3406.55299 1.65090
3404.50455 1.65022
3402.45611 1.65000
3400.40767 1.65098
3398.35924 1.65204
3396.31080 1.65251
3394.26236 1.65349
3392.21392 1.65475
3390.16548 1.65490
3388.11704 1.65454
3386.06861 1.65432
3384.02017 1.65453
3381.97173 1.65460
3379.92329 1.65359
3377.87485 1.65291
3375.82641 1.65324
3373.77798 1.65350
3371.72954 1.65383
3369.68110 1.65510
3367.63266 1.65686
3365.58422 1.65789
3363.53578 1.65811
3361.48735 1.65803
3359.43891 1.65809
3357.39047 1.65831
3355.34203 1.65826
3353.29359 1.65795
3351.24515 1.65743
3349.19672 1.65675
3347.14828 1.65634
3345.09984 1.65608
3343.05140 1.65605
3341.00296 1.65703
3338.95452 1.65878
3336.90609 1.65980
3334.85765 1.65962
3332.80921 1.65950
3330.76077 1.65976
3328.71233 1.66037
3326.66389 1.66117
3324.61545 1.66094
3322.56702 1.66054
3320.51858 1.66098
3318.47014 1.66119
3316.42170 1.66163
3314.37326 1.66341
3312.32482 1.66476
3310.27639 1.66448
3308.22795 1.66323
3306.17951 1.66199
3304.13107 1.66204
3302.08263 1.66242
3300.03419 1.66258
3297.98576 1.66415
3295.93732 1.66616
3293.88888 1.66626
3291.84044 1.66466
3289.79200 1.66320
3287.74356 1.66316
3285.69513 1.66413
3283.64669 1.66422
3281.59825 1.66314
3279.54981 1.66283
3277.50137 1.66463
3275.45293 1.66682
3273.40450 1.66739
3271.35606 1.66697
3269.30762 1.66654
3267.25918 1.66688
3265.21074 1.66792
3263.16230 1.66825
3261.11387 1.66824
3259.06543 1.66906
3257.01699 1.66959
3254.96855 1.66854
3252.92011 1.66784
3250.87167 1.66883
3248.82324 1.66903
3246.77480 1.66763
3244.72636 1.66662
3242.67792 1.66687
3240.62948 1.66802
3238.58104 1.66896
3236.53261 1.66837
3234.48417 1.66738
3232.43573 1.66759
3230.38729 1.66767
3228.33885 1.66685
3226.29041 1.66715
3224.24198 1.66870
3222.19354 1.66862
3220.14510 1.66701
3218.09666 1.66678
3216.04822 1.66821
3213.99978 1.66910
3211.95135 1.66865
3209.90291 1.66801
3207.85447 1.66705
3205.80603 1.66613
3203.75759 1.66690
3201.70915 1.66777
3199.66072 1.66653
3197.61228 1.66498
3195.56384 1.66484
3193.51540 1.66536
3191.46696 1.66566
3189.41852 1.66557
3187.37008 1.66551
3185.32165 1.66561
3183.27321 1.66598
3181.22477 1.66678
3179.17633 1.66759
3177.12789 1.66787
3175.07945 1.66730
3173.03102 1.66625
3170.98258 1.66536
3168.93414 1.66492
3166.88570 1.66469
3164.83726 1.66393
3162.78882 1.66309
3160.74039 1.66334
3158.69195 1.66404
3156.64351 1.66403
3154.59507 1.66386
3152.54663 1.66402
3150.49819 1.66378
3148.44976 1.66333
3146.40132 1.66282
3144.35288 1.66180
3142.30444 1.66083
3140.25600 1.66062
3138.20756 1.66106
3136.15913 1.66109
3134.11069 1.66051
3132.06225 1.65998
3130.01381 1.65962
3127.96537 1.65943
3125.91693 1.65934
3123.86850 1.65907
3121.82006 1.65845
3119.77162 1.65772
3117.72318 1.65723
3115.67474 1.65720
3113.62630 1.65697
3111.57787 1.65577
3109.52943 1.65430
3107.48099 1.65366
3105.43255 1.65386
3103.38411 1.65459
3101.33567 1.65538
3099.28724 1.65533
3097.23880 1.65478
3095.19036 1.65387
3093.14192 1.65232
3091.09348 1.65147
3089.04504 1.65175
3086.99661 1.65145
3084.94817 1.65024
3082.89973 1.65017
3080.85129 1.65136
3078.80285 1.65176
3076.75441 1.65085
3074.70598 1.64954
3072.65754 1.64873
3070.60910 1.64928
3068.56066 1.65058
3066.51222 1.65096
3064.46378 1.65031
3062.41535 1.64990
3060.36691 1.64987
3058.31847 1.64946
3056.27003 1.64826
3054.22159 1.64664
3052.17315 1.64559
3050.12471 1.64583
3048.07628 1.64679
3046.02784 1.64763
3043.97940 1.64849
3041.93096 1.64869
3039.88252 1.64756
3037.83408 1.64652
3035.78565 1.64664
3033.73721 1.64721
3031.68877 1.64692
3029.64033 1.64566
3027.59189 1.64453
3025.54345 1.64433
3023.49502 1.64486
3021.44658 1.64483
3019.39814 1.64425
3017.34970 1.64448
3015.30126 1.64530
3013.25282 1.64559
3011.20439 1.64552
3009.15595 1.64552
3007.10751 1.64526
3005.05907 1.64490
3003.01063 1.64523
3000.96219 1.64562
2998.91376 1.64473
2996.86532 1.64332
2994.81688 1.64265
2992.76844 1.64262
2990.72000 1.64331
2988.67156 1.64441
2986.62313 1.64458
2984.57469 1.64383
2982.52625 1.64388
2980.47781 1.64498
2978.42937 1.64496
2976.38093 1.64360
2974.33250 1.64326
2972.28406 1.64453
2970.23562 1.64583
2968.18718 1.64560
2966.13874 1.64432
2964.09030 1.64399
2962.04187 1.64491
2959.99343 1.64561
2957.94499 1.64494
2955.89655 1.64369
2953.84811 1.64322
2951.79967 1.64346
2949.75124 1.64358
2947.70280 1.64292
2945.65436 1.64227
2943.60592 1.64273
2941.55748 1.64345
2939.50904 1.64334
2937.46061 1.64310
2935.41217 1.64342
2933.36373 1.64400
2931.31529 1.64469
2929.26685 1.64551
2927.21841 1.64622
2925.16998 1.64647
2923.12154 1.64623
2921.07310 1.64587
2919.02466 1.64576
2916.97622 1.64544
2914.92778 1.64450
2912.87934 1.64414
2910.83091 1.64473
2908.78247 1.64492
2906.73403 1.64480
2904.68559 1.64532
2902.63715 1.64641
2900.58871 1.64727
2898.54028 1.64718
2896.49184 1.64678
2894.44340 1.64706
2892.39496 1.64745
2890.34652 1.64707
2888.29808 1.64632
2886.24965 1.64623
2884.20121 1.64716
2882.15277 1.64777
2880.10433 1.64708
2878.05589 1.64567
2876.00745 1.64460
2873.95902 1.64508
2871.91058 1.64628
2869.86214 1.64640
2867.81370 1.64606
2865.76526 1.64624
2863.71682 1.64684
2861.66839 1.64762
2859.61995 1.64802
2857.57151 1.64778
2855.52307 1.64762
2853.47463 1.64829
2851.42619 1.64908
2849.37776 1.64947
2847.32932 1.64973
2845.28088 1.64937
2843.23244 1.64882
2841.18400 1.64879
2839.13556 1.64876
2837.08713 1.64856
2835.03869 1.64813
2832.99025 1.64751
2830.94181 1.64700
2828.89337 1.64705
2826.84493 1.64797
2824.79650 1.64909
2822.74806 1.64983
2820.69962 1.65021
2818.65118 1.65005
2816.60274 1.64939
2814.55430 1.64880
2812.50587 1.64855
2810.45743 1.64836
2808.40899 1.64809
2806.36055 1.64764
2804.31211 1.64748
2802.26367 1.64805
2800.21524 1.64827
2798.16680 1.64795
2796.11836 1.64835
2794.06992 1.64956
2792.02148 1.65071
2789.97304 1.65096
2787.92461 1.65069
2785.87617 1.65089
2783.82773 1.65099
2781.77929 1.65051
2779.73085 1.65034
2777.68241 1.65061
2775.63397 1.65085
2773.58554 1.65063
2771.53710 1.65015
2769.48866 1.65022
2767.44022 1.65057
2765.39178 1.65055
2763.34334 1.65063
2761.29491 1.65126
2759.24647 1.65156
2757.19803 1.65102
2755.14959 1.65006
2753.10115 1.64926
2751.05271 1.64943
2749.00428 1.65056
2746.95584 1.65177
2744.90740 1.65195
2742.85896 1.65136
2740.81052 1.65116
2738.76208 1.65134
2736.71365 1.65146
2734.66521 1.65114
2732.61677 1.65064
2730.56833 1.65058
2728.51989 1.65095
2726.47145 1.65143
2724.42302 1.65170
2722.37458 1.65201
2720.32614 1.65242
2718.27770 1.65207
2716.22926 1.65134
2714.18082 1.65146
2712.13239 1.65214
2710.08395 1.65240
2708.03551 1.65218
2705.98707 1.65216
2703.93863 1.65238
2701.89019 1.65269
2699.84176 1.65289
2697.79332 1.65266
2695.74488 1.65253
2693.69644 1.65279
2691.64800 1.65299
2689.59956 1.65271
2687.55113 1.65205
2685.50269 1.65155
2683.45425 1.65150
2681.40581 1.65177
2679.35737 1.65218
2677.30893 1.65254
2675.26050 1.65258
2673.21206 1.65279
2671.16362 1.65376
2669.11518 1.65447
2667.06674 1.65400
2665.01830 1.65353
2662.96987 1.65377
2660.92143 1.65363
2658.87299 1.65272
2656.82455 1.65144
2654.77611 1.65042
2652.72767 1.65016
2650.67924 1.65025
2648.63080 1.65024
2646.58236 1.65064
2644.53392 1.65200
2642.48548 1.65353
2640.43704 1.65392
2638.38860 1.65354
2636.34017 1.65306
2634.29173 1.65245
2632.24329 1.65234
2630.19485 1.65288
2628.14641 1.65346
2626.09797 1.65362
2624.04954 1.65334
2622.00110 1.65306
2619.95266 1.65339
2617.90422 1.65392
2615.85578 1.65392
2613.80734 1.65432
2611.75891 1.65506
2609.71047 1.65510
2607.66203 1.65479
2605.61359 1.65453
2603.56515 1.65400
2601.51671 1.65328
2599.46828 1.65347
2597.41984 1.65434
2595.37140 1.65457
2593.32296 1.65439
2591.27452 1.65426
2589.22608 1.65392
2587.17765 1.65348
2585.12921 1.65343
2583.08077 1.65410
2581.03233 1.65497
2578.98389 1.65529
2576.93545 1.65473
2574.88702 1.65378
2572.83858 1.65404
2570.79014 1.65531
2568.74170 1.65599
2566.69326 1.65588
2564.64482 1.65549
2562.59639 1.65548
2560.54795 1.65589
2558.49951 1.65580
2556.45107 1.65493
2554.40263 1.65438
2552.35419 1.65469
2550.30576 1.65510
2548.25732 1.65547
2546.20888 1.65603
2544.16044 1.65616
2542.11200 1.65610
2540.06356 1.65671
2538.01513 1.65723
2535.96669 1.65716
2533.91825 1.65718
2531.86981 1.65678
2529.82137 1.65555
2527.77293 1.65507
2525.72450 1.65593
2523.67606 1.65655
2521.62762 1.65627
2519.57918 1.65610
2517.53074 1.65617
2515.48230 1.65593
2513.43387 1.65549
2511.38543 1.65537
2509.33699 1.65579
2507.28855 1.65577
2505.24011 1.65538
2503.19167 1.65593
2501.14324 1.65684
2499.09480 1.65684
2497.04636 1.65644
2494.99792 1.65652
2492.94948 1.65664
2490.90104 1.65676
2488.85260 1.65713
2486.80417 1.65722
2484.75573 1.65710
2482.70729 1.65729
2480.65885 1.65760
2478.61041 1.65749
2476.56197 1.65726
2474.51354 1.65736
2472.46510 1.65736
2470.41666 1.65728
2468.36822 1.65762
2466.31978 1.65794
2464.27134 1.65798
2462.22291 1.65750
2460.17447 1.65621
2458.12603 1.65567
2456.07759 1.65658
2454.02915 1.65729
2451.98071 1.65735
2449.93228 1.65745
2447.88384 1.65749
2445.83540 1.65766
2443.78696 1.65830
2441.73852 1.65862
2439.69008 1.65823
2437.64165 1.65804
2435.59321 1.65781
2433.54477 1.65640
2431.49633 1.65522
2429.44789 1.65603
2427.39945 1.65740
2425.35102 1.65769
2423.30258 1.65717
2421.25414 1.65649
2419.20570 1.65676
2417.15726 1.65798
2415.10882 1.65842
2413.06039 1.65803
2411.01195 1.65798
2408.96351 1.65827
2406.91507 1.65889
2404.86663 1.65976
2402.81819 1.66028
2400.76976 1.66031
2398.72132 1.65994
2396.67288 1.65911
2394.62444 1.65855
2392.57600 1.65873
2390.52756 1.65894
2388.47913 1.65906
2386.43069 1.65906
2384.38225 1.65874
2382.33381 1.65892
2380.28537 1.65997
2378.23693 1.66092
2376.18850 1.66113
2374.14006 1.66064
2372.09162 1.65955
2370.04318 1.65893
2367.99474 1.65990
2365.94630 1.66069
2363.89787 1.65898
2361.84943 1.65617
2359.80099 1.65537
2357.75255 1.65525
2355.70411 1.65473
2353.65567 1.65666
2351.60723 1.65929
2349.55880 1.66025
2347.51036 1.66038
2345.46192 1.65974
2343.41348 1.65767
2341.36504 1.65473
2339.31660 1.65314
2337.26817 1.65402
2335.21973 1.65503
2333.17129 1.65637
2331.12285 1.65924
2329.07441 1.66099
2327.02597 1.66069
2324.97754 1.66025
2322.92910 1.66050
2320.88066 1.66049
2318.83222 1.65979
2316.78378 1.65893
2314.73534 1.65830
2312.68691 1.65875
2310.63847 1.65931
2308.59003 1.65870
2306.54159 1.65814
2304.49315 1.65827
2302.44471 1.65799
2300.39628 1.65689
2298.34784 1.65589
2296.29940 1.65583
2294.25096 1.65707
2292.20252 1.65811
2290.15408 1.65758
2288.10565 1.65680
2286.05721 1.65617
2284.00877 1.65535
2281.96033 1.65526
2279.91189 1.65597
2277.86345 1.65688
2275.81502 1.65717
2273.76658 1.65670
2271.71814 1.65636
2269.66970 1.65605
2267.62126 1.65551
2265.57282 1.65546
2263.52439 1.65609
2261.47595 1.65682
2259.42751 1.65688
2257.37907 1.65584
2255.33063 1.65433
2253.28219 1.65361
2251.23376 1.65384
2249.18532 1.65410
2247.13688 1.65427
2245.08844 1.65459
2243.04000 1.65441
2240.99156 1.65355
2238.94313 1.65260
2236.89469 1.65216
2234.84625 1.65253
2232.79781 1.65258
2230.74937 1.65199
2228.70093 1.65236
2226.65250 1.65328
2224.60406 1.65323
2222.55562 1.65284
2220.50718 1.65257
2218.45874 1.65170
2216.41030 1.65087
2214.36186 1.65098
2212.31343 1.65152
2210.26499 1.65220
2208.21655 1.65260
2206.16811 1.65214
2204.11967 1.65140
2202.07123 1.65109
2200.02280 1.65105
2197.97436 1.65044
2195.92592 1.64948
2193.87748 1.64919
2191.82904 1.64945
2189.78060 1.64993
2187.73217 1.65043
2185.68373 1.65061
2183.63529 1.65063
2181.58685 1.65070
2179.53841 1.65068
2177.48997 1.65054
2175.44154 1.65071
2173.39310 1.65088
2171.34466 1.65012
2169.29622 1.64923
2167.24778 1.64895
2165.19934 1.64871
2163.15091 1.64868
2161.10247 1.64888
2159.05403 1.64882
2157.00559 1.64856
2154.95715 1.64831
2152.90871 1.64836
2150.86028 1.64856
2148.81184 1.64856
2146.76340 1.64848
2144.71496 1.64829
2142.66652 1.64835
2140.61808 1.64901
2138.56965 1.64910
2136.52121 1.64818
2134.47277 1.64791
2132.42433 1.64868
2130.37589 1.64898
2128.32745 1.64843
2126.27902 1.64788
2124.23058 1.64769
2122.18214 1.64758
2120.13370 1.64755
2118.08526 1.64808
2116.03682 1.64889
2113.98839 1.64936
2111.93995 1.64949
2109.89151 1.64940
2107.84307 1.64908
2105.79463 1.64868
2103.74619 1.64864
2101.69776 1.64876
2099.64932 1.64858
2097.60088 1.64825
2095.55244 1.64721
2093.50400 1.64571
2091.45556 1.64564
2089.40713 1.64687
2087.35869 1.64754
2085.31025 1.64745
2083.26181 1.64748
2081.21337 1.64778
2079.16493 1.64795
2077.11649 1.64769
2075.06806 1.64747
2073.01962 1.64723
2070.97118 1.64659
2068.92274 1.64664
2066.87430 1.64788
2064.82586 1.64882
2062.77743 1.64850
2060.72899 1.64761
2058.68055 1.64716
2056.63211 1.64756
2054.58367 1.64827
2052.53523 1.64844
2050.48680 1.64817
2048.43836 1.64779
2046.38992 1.64741
2044.34148 1.64716
2042.29304 1.64700
2040.24460 1.64679
2038.19617 1.64651
2036.14773 1.64618
2034.09929 1.64614
2032.05085 1.64653
2030.00241 1.64653
2027.95397 1.64614
2025.90554 1.64622
2023.85710 1.64664
2021.80866 1.64710
2019.76022 1.64783
2017.71178 1.64837
2015.66334 1.64785
2013.61491 1.64691
2011.56647 1.64651
2009.51803 1.64658
2007.46959 1.64645
2005.42115 1.64584
2003.37271 1.64578
2001.32428 1.64664
1999.27584 1.64714
1997.22740 1.64715
1995.17896 1.64760
1993.13052 1.64830
1991.08208 1.64799
1989.03365 1.64639
1986.98521 1.64496
1984.93677 1.64462
1982.88833 1.64493
1980.83989 1.64504
1978.79145 1.64489
1976.74302 1.64515
1974.69458 1.64581
1972.64614 1.64616
1970.59770 1.64631
1968.54926 1.64661
1966.50082 1.64628
1964.45239 1.64507
1962.40395 1.64397
1960.35551 1.64340
1958.30707 1.64294
1956.25863 1.64269
1954.21019 1.64298
1952.16176 1.64340
1950.11332 1.64334
1948.06488 1.64340
1946.01644 1.64452
1943.96800 1.64626
1941.91956 1.64660
1939.87112 1.64525
1937.82269 1.64421
1935.77425 1.64355
1933.72581 1.64264
1931.67737 1.64204
1929.62893 1.64187
1927.58049 1.64187
1925.53206 1.64242
1923.48362 1.64349
1921.43518 1.64403
1919.38674 1.64418
1917.33830 1.64394
1915.28986 1.64266
1913.24143 1.64169
1911.19299 1.64220
1909.14455 1.64266
1907.09611 1.64133
1905.04767 1.63957
1902.99923 1.63898
1900.95080 1.63929
1898.90236 1.63996
1896.85392 1.64098
1894.80548 1.64121
1892.75704 1.64025
1890.70860 1.63968
1888.66017 1.63932
1886.61173 1.63829
1884.56329 1.63727
1882.51485 1.63689
1880.46641 1.63725
1878.41797 1.63756
1876.36954 1.63751
1874.32110 1.63778
1872.27266 1.63862
1870.22422 1.64058
1868.17578 1.64211
1866.12734 1.64050
1864.07891 1.63815
1862.03047 1.63699
1859.98203 1.63669
1857.93359 1.63653
1855.88515 1.63568
1853.83671 1.63396
1851.78828 1.63281
1849.73984 1.63362
1847.69140 1.63585
1845.64296 1.63754
1843.59452 1.63675
1841.54608 1.63466
1839.49765 1.63361
1837.44921 1.63362
1835.40077 1.63352
1833.35233 1.63324
1831.30389 1.63397
1829.25545 1.63515
1827.20702 1.63493
1825.15858 1.63370
1823.11014 1.63191
1821.06170 1.63038
1819.01326 1.62991
1816.96482 1.63025
1814.91639 1.63087
1812.86795 1.63164
1810.81951 1.63198
1808.77107 1.63108
1806.72263 1.62983
1804.67419 1.62991
1802.62575 1.63115
1800.57732 1.63176
1798.52888 1.63132
1796.48044 1.63129
1794.43200 1.63210
1792.38356 1.63250
1790.33512 1.63101
1788.28669 1.62900
1786.23825 1.62745
1784.18981 1.62678
1782.14137 1.62741
1780.09293 1.62758
1778.04449 1.62653
1775.99606 1.62704
1773.94762 1.63007
1771.89918 1.63178
1769.85074 1.62867
1767.80230 1.62475
1765.75386 1.62282
1763.70543 1.62259
1761.65699 1.62281
1759.60855 1.62278
1757.56011 1.62262
1755.51167 1.62244
1753.46323 1.62333
1751.41480 1.62616
1749.36636 1.62848
1747.31792 1.62729
1745.26948 1.62511
1743.22104 1.62383
1741.17260 1.62271
1739.12417 1.62144
1737.07573 1.62149
1735.02729 1.62319
1732.97885 1.62351
1730.93041 1.62085
1728.88197 1.61733
1726.83354 1.61462
1724.78510 1.61409
1722.73666 1.61493
1720.68822 1.61683
1718.63978 1.62152
1716.59134 1.62511
1714.54291 1.62116
1712.49447 1.61646
1710.44603 1.61397
1708.39759 1.61409
1706.34915 1.61659
1704.30071 1.61879
1702.25228 1.61998
1700.20384 1.62181
1698.15540 1.62209
1696.10696 1.61770
1694.05852 1.61184
1692.01008 1.61005
1689.96165 1.61181
1687.91321 1.61393
1685.86477 1.61509
1683.81633 1.61596
1681.76789 1.61402
1679.71945 1.61078
1677.67102 1.60884
1675.62258 1.60875
1673.57414 1.60946
1671.52570 1.61101
1669.47726 1.61187
1667.42882 1.60927
1665.38038 1.60737
1663.33195 1.60795
1661.28351 1.60787
1659.23507 1.60635
1657.18663 1.60652
1655.13819 1.60931
1653.08975 1.61301
1651.04132 1.61331
1648.99288 1.61347
1646.94444 1.61181
1644.89600 1.60605
1642.84756 1.60207
1640.79912 1.60132
1638.75069 1.60321
1636.70225 1.60480
1634.65381 1.60156
1632.60537 1.59822
1630.55693 1.59748
1628.50849 1.59828
1626.46006 1.59911
1624.41162 1.59927
1622.36318 1.59821
1620.31474 1.59672
1618.26630 1.59688
1616.21786 1.59646
1614.16943 1.59319
1612.12099 1.59099
1610.07255 1.59051
1608.02411 1.58982
1605.97567 1.58870
1603.92723 1.58782
1601.87880 1.58685
1599.83036 1.58589
1597.78192 1.58553
1595.73348 1.58523
1593.68504 1.58433
1591.63660 1.58346
1589.58817 1.58287
1587.53973 1.58201
1585.49129 1.58106
1583.44285 1.57995
1581.39441 1.57888
1579.34597 1.57961
1577.29754 1.58209
1575.24910 1.58190
1573.20066 1.58016
1571.15222 1.58070
1569.10378 1.58117
1567.05534 1.57910
1565.00691 1.57763
1562.95847 1.57789
1560.91003 1.57895
1558.86159 1.58078
1556.81315 1.58109
1554.76471 1.57932
1552.71628 1.57713
1550.66784 1.57526
1548.61940 1.57388
1546.57096 1.57469
1544.52252 1.57870
1542.47408 1.58343
1540.42565 1.58219
1538.37721 1.57497
1536.32877 1.57148
1534.28033 1.57044
1532.23189 1.56886
1530.18345 1.56768
1528.13501 1.56876
1526.08658 1.57065
1524.03814 1.57227
1521.98970 1.57260
1519.94126 1.56967
1517.89282 1.56713
1515.84438 1.56446
1513.79595 1.56145
1511.74751 1.56115
1509.69907 1.56449
1507.65063 1.56768
1505.60219 1.56166
1503.55375 1.55633
1501.50532 1.55475
1499.45688 1.55505
1497.40844 1.55498
1495.36000 1.55243
1493.31156 1.55089
1491.26312 1.55252
1489.21469 1.55376
1487.16625 1.54962
1485.11781 1.54499
1483.06937 1.54262
1481.02093 1.54166
1478.97249 1.54171
1476.92406 1.54328
1474.87562 1.54623
1472.82718 1.54719
1470.77874 1.54301
1468.73030 1.53960
1466.68186 1.53916
1464.63343 1.53887
1462.58499 1.53721
1460.53655 1.53762
1458.48811 1.54114
1456.43967 1.54164
1454.39123 1.53696
1452.34280 1.53344
1450.29436 1.53202
1448.24592 1.53139
1446.19748 1.52936
1444.14904 1.52702
1442.10060 1.52622
1440.05217 1.52699
1438.00373 1.52826
1435.95529 1.52816
1433.90685 1.52664
1431.85841 1.52555
1429.80997 1.52463
1427.76154 1.52340
1425.71310 1.52287
1423.66466 1.52307
1421.61622 1.52313
1419.56778 1.52317
1417.51934 1.52173
1415.47091 1.51867
1413.42247 1.51648
1411.37403 1.51566
1409.32559 1.51512
1407.27715 1.51471
1405.22871 1.51436
1403.18028 1.51375
1401.13184 1.51388
1399.08340 1.51458
1397.03496 1.51419
1394.98652 1.51198
1392.93808 1.50882
1390.88965 1.50707
1388.84121 1.50695
1386.79277 1.50604
1384.74433 1.50371
1382.69589 1.50204
1380.64745 1.50138
1378.59901 1.50114
1376.55058 1.50128
1374.50214 1.50108
1372.45370 1.49972
1370.40526 1.49843
1368.35682 1.49763
1366.30838 1.49718
1364.25995 1.49766
1362.21151 1.49784
1360.16307 1.49597
1358.11463 1.49400
1356.06619 1.49315
1354.01775 1.49231
1351.96932 1.49134
1349.92088 1.49044
1347.87244 1.48909
1345.82400 1.48800
1343.77556 1.48829
1341.72712 1.49025
1339.67869 1.49177
1337.63025 1.49012
1335.58181 1.48707
1333.53337 1.48454
1331.48493 1.48278
1329.43649 1.48159
1327.38806 1.48034
1325.33962 1.47924
1323.29118 1.47903
1321.24274 1.47953
1319.19430 1.47954
1317.14586 1.47815
1315.09743 1.47636
1313.04899 1.47499
1311.00055 1.47385
1308.95211 1.47303
1306.90367 1.47213
1304.85523 1.47085
1302.80680 1.46949
1300.75836 1.46844
1298.70992 1.46761
1296.66148 1.46661
1294.61304 1.46555
1292.56460 1.46457
1290.51617 1.46364
1288.46773 1.46286
1286.41929 1.46211
1284.37085 1.46113
1282.32241 1.45997
1280.27397 1.45885
1278.22554 1.45791
1276.17710 1.45704
1274.12866 1.45637
1272.08022 1.45589
1270.03178 1.45502
1267.98334 1.45379
1265.93491 1.45261
1263.88647 1.45174
1261.83803 1.45121
1259.78959 1.45053
1257.74115 1.44941
1255.69271 1.44809
1253.64428 1.44691
1251.59584 1.44603
1249.54740 1.44523
1247.49896 1.44432
1245.45052 1.44341
1243.40208 1.44249
1241.35364 1.44140
1239.30521 1.44019
1237.25677 1.43884
1235.20833 1.43744
1233.15989 1.43619
1231.11145 1.43498
1229.06301 1.43363
1227.01458 1.43228
1224.96614 1.43106
1222.91770 1.42996
1220.86926 1.42910
1218.82082 1.42845
1216.77238 1.42756
1214.72395 1.42634
1212.67551 1.42479
1210.62707 1.42321
1208.57863 1.42187
1206.53019 1.42050
1204.48175 1.41904
1202.43332 1.41764
1200.38488 1.41628
1198.33644 1.41507
1196.28800 1.41426
1194.23956 1.41358
1192.19112 1.41255
1190.14269 1.41122
1188.09425 1.40989
1186.04581 1.40859
1183.99737 1.40731
1181.94893 1.40602
1179.90049 1.40466
1177.85206 1.40317
1175.80362 1.40157
1173.75518 1.40017
1171.70674 1.39912
1169.65830 1.39819
1167.60986 1.39718
1165.56143 1.39622
1163.51299 1.39548
1161.46455 1.39478
1159.41611 1.39375
1157.36767 1.39231
1155.31923 1.39081
1153.27080 1.38935
1151.22236 1.38775
1149.17392 1.38623
1147.12548 1.38525
1145.07704 1.38453
1143.02860 1.38359
1140.98017 1.38250
1138.93173 1.38111
1136.88329 1.37940
1134.83485 1.37802
1132.78641 1.37714
1130.73797 1.37631
1128.68954 1.37533
1126.64110 1.37439
1124.59266 1.37373
1122.54422 1.37316
1120.49578 1.37229
1118.44734 1.37116
1116.39891 1.37001
1114.35047 1.36873
1112.30203 1.36744
1110.25359 1.36630
1108.20515 1.36521
1106.15671 1.36436
1104.10827 1.36358
1102.05984 1.36228
1100.01140 1.36076
1097.96296 1.35953
1095.91452 1.35853
1093.86608 1.35790
1091.81764 1.35753
1089.76921 1.35679
1087.72077 1.35556
1085.67233 1.35414
1083.62389 1.35285
1081.57545 1.35180
1079.52701 1.35103
1077.47858 1.35049
1075.43014 1.34991
1073.38170 1.34903
1071.33326 1.34779
1069.28482 1.34682
1067.23638 1.34637
1065.18795 1.34553
1063.13951 1.34458
1061.09107 1.34427
1059.04263 1.34354
1056.99419 1.34163
1054.94575 1.33913
1052.89732 1.33662
1050.84888 1.33465
1048.80044 1.33317
1046.75200 1.33156
1044.70356 1.32974
1042.65512 1.32780
1040.60669 1.32600
1038.55825 1.32511
1036.50981 1.32507
1034.46137 1.32548
1032.41293 1.32642
1030.36449 1.32763
1028.31606 1.32875
1026.26762 1.32996
1024.21918 1.33141
1022.17074 1.33269
1020.12230 1.33374
1018.07386 1.33475
1016.02543 1.33547
1013.97699 1.33607
1011.92855 1.33682
1009.88011 1.33737
1007.83167 1.33767
1005.78323 1.33810
1003.73480 1.33856
1001.68636 1.33901
999.63792 1.33981
997.58948 1.34102
995.54104 1.34216
993.49260 1.34286
991.44417 1.34334
989.39573 1.34416
987.34729 1.34566
985.29885 1.34733
983.25041 1.34850
981.20197 1.34931
979.15354 1.35012
977.10510 1.35113
975.05666 1.35209
973.00822 1.35239
970.95978 1.35239
968.91134 1.35258
966.86290 1.35233
964.81447 1.35137
962.76603 1.35038
960.71759 1.34966
958.66915 1.34894
956.62071 1.34809
954.57227 1.34674
952.52384 1.34477
950.47540 1.34308
948.42696 1.34208
946.37852 1.34117
944.33008 1.33994
942.28164 1.33864
940.23321 1.33744
938.18477 1.33644
936.13633 1.33551
934.08789 1.33420
932.03945 1.33258
929.99101 1.33127
927.94258 1.33029
925.89414 1.32931
923.84570 1.32826
921.79726 1.32736
919.74882 1.32669
917.70038 1.32600
915.65195 1.32553
913.60351 1.32570
911.55507 1.32570
909.50663 1.32488
907.45819 1.32428
905.40975 1.32456
903.36132 1.32501
901.31288 1.32547
899.26444 1.32612
897.21600 1.32653
895.16756 1.32692
893.11912 1.32789
891.07069 1.32924
889.02225 1.33065
886.97381 1.33178
884.92537 1.33218
882.87693 1.33208
880.82849 1.33253
878.78006 1.33369
876.73162 1.33488
874.68318 1.33596
872.63474 1.33633
870.58630 1.33577
868.53786 1.33524
866.48943 1.33482
864.44099 1.33415
862.39255 1.33395
860.34411 1.33460
858.29567 1.33485
856.24723 1.33413
854.19880 1.33294
852.15036 1.33164
850.10192 1.33081
848.05348 1.33028
846.00504 1.32900
843.95660 1.32725
841.90817 1.32585
839.85973 1.32462
837.81129 1.32367
835.76285 1.32288
833.71441 1.32143
831.66597 1.32007
829.61753 1.31983
827.56910 1.31969
825.52066 1.31895
823.47222 1.31851
821.42378 1.31832
819.37534 1.31771
817.32690 1.31616
815.27847 1.31419
813.23003 1.31344
811.18159 1.31366
809.13315 1.31409
807.08471 1.31476
805.03627 1.31549
802.98784 1.31639
800.93940 1.31736
798.89096 1.31807
796.84252 1.31879
794.79408 1.32012
792.74564 1.32167
790.69721 1.32251
788.64877 1.32261
786.60033 1.32265
784.55189 1.32340
782.50345 1.32469
780.45501 1.32601
778.40658 1.32692
776.35814 1.32714
774.30970 1.32687
772.26126 1.32618
770.21282 1.32497
768.16438 1.32307
766.11595 1.32134
764.06751 1.32059
762.01907 1.31993
759.97063 1.31861
757.92219 1.31756
755.87375 1.31724
753.82532 1.31644
751.77688 1.31466
749.72844 1.31318
747.68000 1.31324
745.63156 1.31364
743.58312 1.31269
741.53469 1.31015
739.48625 1.30682
737.43781 1.30393
735.38937 1.30188
733.34093 1.30062
731.29249 1.29978
729.24406 1.29889
727.19562 1.29715
725.14718 1.29414
723.09874 1.29122
721.05030 1.28963
719.00186 1.28947
716.95343 1.28933
714.90499 1.28779
712.85655 1.28558
710.80811 1.28387
708.75967 1.28287
706.71123 1.28216
704.66280 1.28178
702.61436 1.28244
700.56592 1.28286
698.51748 1.28223
696.46904 1.28211
694.42060 1.28209
692.37216 1.28065
690.32373 1.27809
688.27529 1.27554
686.22685 1.27425
684.17841 1.27388
682.12997 1.27349
680.08153 1.27461
678.03310 1.27742
675.98466 1.27919
673.93622 1.28047
671.88778 1.28248
669.83934 1.28348
667.79090 1.28421
665.74247 1.28592
663.69403 1.28688
661.64559 1.28698
659.59715 1.28430
657.54871 1.27688
655.50027 1.26776
653.45184 1.26247
651.40340 1.26053
649.35496 1.25554
647.30652 1.24611
645.25808 1.23552
643.20964 1.22444
641.16121 1.21347
639.11277 1.20343
637.06433 1.19187
635.01589 1.18022
632.96745 1.17205
630.91901 1.16533
628.87058 1.16050
626.82214 1.15783
624.77370 1.15346
622.72526 1.14685
620.67682 1.14014
618.62838 1.13293
616.57995 1.12276
614.53151 1.11136
612.48307 1.10156
610.43463 1.09375
608.38619 1.08887
606.33775 1.08419
604.28932 1.07717
602.24088 1.07002
600.19244 1.06387
598.14400 1.05742
