3996.50324 0.26712
3994.45480 0.26690
3992.40636 0.26676
3990.35792 0.26680
3988.30948 0.26717
3986.26104 0.26761
3984.21261 0.26775
3982.16417 0.26769
3980.11573 0.26769
3978.06729 0.26759
3976.01885 0.26717
3973.97041 0.26692
3971.92198 0.26710
3969.87354 0.26751
3967.82510 0.26804
3965.77666 0.26825
3963.72822 0.26773
3961.67978 0.26714
3959.63135 0.26728
3957.58291 0.26767
3955.53447 0.26790
3953.48603 0.26773
3951.43759 0.26672
3949.38915 0.26552
3947.34072 0.26569
3945.29228 0.26624
3943.24384 0.26588
3941.19540 0.26641
3939.14696 0.26803
3937.09852 0.26887
3935.05009 0.26807
3933.00165 0.26582
3930.95321 0.26473
3928.90477 0.26614
3926.85633 0.26682
3924.80789 0.26578
3922.75946 0.26584
3920.71102 0.26653
3918.66258 0.26587
3916.61414 0.26586
3914.56570 0.26795
3912.51726 0.26994
3910.46883 0.27052
3908.42039 0.26943
3906.37195 0.26579
3904.32351 0.26061
3902.27507 0.25844
3900.22663 0.25990
3898.17820 0.26326
3896.12976 0.26649
3894.08132 0.26683
3892.03288 0.26488
3889.98444 0.26530
3887.93600 0.26662
3885.88756 0.26505
3883.83913 0.26329
3881.79069 0.26321
3879.74225 0.26445
3877.69381 0.26695
3875.64537 0.26690
3873.59693 0.26389
3871.54850 0.26099
3869.50006 0.26020
3867.45162 0.26194
3865.40318 0.26221
3863.35474 0.26186
3861.30630 0.26455
3859.25787 0.26667
3857.20943 0.26555
3855.16099 0.26071
3853.11255 0.25477
3851.06411 0.25863
3849.01567 0.26532
3846.96724 0.26874
3844.91880 0.26802
3842.87036 0.26452
3840.82192 0.26034
3838.77348 0.25737
3836.72504 0.25868
3834.67661 0.26217
3832.62817 0.26481
3830.57973 0.26666
3828.53129 0.26739
3826.48285 0.26690
3824.43441 0.26602
3822.38598 0.26286
3820.33754 0.25940
3818.28910 0.26106
3816.24066 0.26378
3814.19222 0.26756
3812.14378 0.27131
3810.09535 0.27213
3808.04691 0.26924
3805.99847 0.26602
3803.95003 0.26458
3801.90159 0.26208
3799.85315 0.26227
3797.80472 0.26534
3795.75628 0.26873
3793.70784 0.27232
3791.65940 0.27441
3789.61096 0.27468
3787.56252 0.27366
3785.51409 0.27200
3783.46565 0.27178
3781.41721 0.27193
3779.36877 0.27109
3777.32033 0.27225
3775.27189 0.27442
3773.22346 0.27443
3771.17502 0.27179
3769.12658 0.26927
3767.07814 0.26928
3765.02970 0.27042
3762.98126 0.27151
3760.93283 0.27038
3758.88439 0.26753
3756.83595 0.26708
3754.78751 0.26690
3752.73907 0.26254
3750.69063 0.25580
3748.64219 0.25643
3746.59376 0.25983
3744.54532 0.26142
3742.49688 0.26310
3740.44844 0.26490
3738.40000 0.26398
3736.35156 0.25920
3734.30313 0.25709
3732.25469 0.26235
3730.20625 0.26789
3728.15781 0.26961
3726.10937 0.26813
3724.06093 0.26700
3722.01250 0.26817
3719.96406 0.27058
3717.91562 0.27283
3715.86718 0.27340
3713.81874 0.27064
3711.77030 0.26506
3709.72187 0.26509
3707.67343 0.27031
3705.62499 0.27376
3703.57655 0.27393
3701.52811 0.27293
3699.47967 0.27386
3697.43124 0.27511
3695.38280 0.27508
3693.33436 0.27332
3691.28592 0.26873
3689.23748 0.26509
3687.18904 0.26882
3685.14061 0.27396
3683.09217 0.27638
3681.04373 0.27553
3678.99529 0.27214
3676.94685 0.26690
3674.89841 0.26372
3672.84998 0.26569
3670.80154 0.26634
3668.75310 0.26858
3666.70466 0.27436
3664.65622 0.27829
3662.60778 0.27938
3660.55935 0.27897
3658.51091 0.27738
3656.46247 0.27491
3654.41403 0.27402
3652.36559 0.27225
3650.31715 0.26462
3648.26872 0.26008
3646.22028 0.26744
3644.17184 0.27405
3642.12340 0.27701
3640.07496 0.27815
3638.02652 0.27865
3635.97809 0.27828
3633.92965 0.27687
3631.88121 0.27449
3629.83277 0.27006
3627.78433 0.26884
3625.73589 0.27394
3623.68746 0.27723
3621.63902 0.27591
3619.59058 0.27162
3617.54214 0.27013
3615.49370 0.27097
3613.44526 0.27136
3611.39682 0.27245
3609.34839 0.27315
3607.29995 0.27425
3605.25151 0.27715
3603.20307 0.27848
3601.15463 0.27713
3599.10619 0.27593
3597.05776 0.27577
3595.00932 0.27586
3592.96088 0.27723
3590.91244 0.27821
3588.86400 0.27572
3586.81556 0.27343
3584.76713 0.27652
3582.71869 0.27989
3580.67025 0.28104
3578.62181 0.28116
3576.57337 0.28133
3574.52493 0.28182
3572.47650 0.28210
3570.42806 0.28046
3568.37962 0.27537
3566.33118 0.27163
3564.28274 0.27482
3562.23430 0.27899
3560.18587 0.28126
3558.13743 0.28271
3556.08899 0.28324
3554.04055 0.28222
3551.99211 0.28127
3549.94367 0.28150
3547.89524 0.28067
3545.84680 0.27912
3543.79836 0.28032
3541.74992 0.28326
3539.70148 0.28483
3537.65304 0.28458
3535.60461 0.28440
3533.55617 0.28493
3531.50773 0.28446
3529.45929 0.28265
3527.41085 0.28129
3525.36241 0.28106
3523.31398 0.28167
3521.26554 0.28336
3519.21710 0.28506
3517.16866 0.28593
3515.12022 0.28625
3513.07178 0.28585
3511.02335 0.28472
3508.97491 0.28427
3506.92647 0.28467
3504.87803 0.28398
3502.82959 0.28310
3500.78115 0.28428
3498.73272 0.28577
3496.68428 0.28613
3494.63584 0.28644
3492.58740 0.28698
3490.53896 0.28691
3488.49052 0.28639
3486.44209 0.28633
3484.39365 0.28626
3482.34521 0.28571
3480.29677 0.28589
3478.24833 0.28689
3476.19989 0.28735
3474.15146 0.28732
3472.10302 0.28748
3470.05458 0.28765
3468.00614 0.28760
3465.95770 0.28755
3463.90926 0.28743
3461.86082 0.28729
3459.81239 0.28756
3457.76395 0.28799
3455.71551 0.28821
3453.66707 0.28839
3451.61863 0.28841
3449.57019 0.28769
3447.52176 0.28652
3445.47332 0.28638
3443.42488 0.28712
3441.37644 0.28784
3439.32800 0.28845
3437.27956 0.28883
3435.23113 0.28894
3433.18269 0.28883
3431.13425 0.28873
3429.08581 0.28886
3427.03737 0.28906
3424.98893 0.28897
3422.94050 0.28832
3420.89206 0.28773
3418.84362 0.28807
3416.79518 0.28888
3414.74674 0.28932
3412.69830 0.28947
3410.64987 0.28962
3408.60143 0.28965
3406.55299 0.28952
3404.50455 0.28939
3402.45611 0.28938
3400.40767 0.28946
3398.35924 0.28937
3396.31080 0.28918
3394.26236 0.28908
3392.21392 0.28919
3390.16548 0.28964
3388.11704 0.28992
3386.06861 0.28971
3384.02017 0.28958
3381.97173 0.28984
3379.92329 0.29011
3377.87485 0.29017
3375.82641 0.29020
3373.77798 0.29034
3371.72954 0.29045
3369.68110 0.29032
3367.63266 0.29003
3365.58422 0.28991
3363.53578 0.29004
3361.48735 0.29026
3359.43891 0.29038
3357.39047 0.29041
3355.34203 0.29052
3353.29359 0.29076
3351.24515 0.29092
3349.19672 0.29094
3347.14828 0.29099
3345.09984 0.29111
3343.05140 0.29119
3341.00296 0.29117
3338.95452 0.29100
3336.90609 0.29074
3334.85765 0.29075
3332.80921 0.29107
3330.76077 0.29128
3328.71233 0.29120
3326.66389 0.29107
3324.61545 0.29113
3322.56702 0.29130
3320.51858 0.29139
3318.47014 0.29143
3316.42170 0.29146
3314.37326 0.29142
3312.32482 0.29130
3310.27639 0.29110
3308.22795 0.29112
3306.17951 0.29147
3304.13107 0.29176
3302.08263 0.29178
3300.03419 0.29171
3297.98576 0.29164
3295.93732 0.29157
3293.88888 0.29145
3291.84044 0.29134
3289.79200 0.29137
3287.74356 0.29146
3285.69513 0.29149
3283.64669 0.29146
3281.59825 0.29147
3279.54981 0.29149
3277.50137 0.29141
3275.45293 0.29131
3273.40450 0.29139
3271.35606 0.29164
3269.30762 0.29185
3267.25918 0.29189
3265.21074 0.29188
3263.16230 0.29192
3261.11387 0.29193
3259.06543 0.29186
3257.01699 0.29176
3254.96855 0.29177
3252.92011 0.29197
3250.87167 0.29225
3248.82324 0.29230
3246.77480 0.29203
3244.72636 0.29183
3242.67792 0.29209
3240.62948 0.29245
3238.58104 0.29257
3236.53261 0.29262
3234.48417 0.29272
3232.43573 0.29279
3230.38729 0.29280
3228.33885 0.29282
3226.29041 0.29298
3224.24198 0.29321
3222.19354 0.29321
3220.14510 0.29309
3218.09666 0.29317
3216.04822 0.29330
3213.99978 0.29341
3211.95135 0.29361
3209.90291 0.29378
3207.85447 0.29399
3205.80603 0.29426
3203.75759 0.29442
3201.70915 0.29444
3199.66072 0.29434
3197.61228 0.29433
3195.56384 0.29469
3193.51540 0.29519
3191.46696 0.29543
3189.41852 0.29541
3187.37008 0.29526
3185.32165 0.29521
3183.27321 0.29539
3181.22477 0.29553
3179.17633 0.29543
3177.12789 0.29546
3175.07945 0.29581
3173.03102 0.29612
3170.98258 0.29625
3168.93414 0.29632
3166.88570 0.29640
3164.83726 0.29653
3162.78882 0.29672
3160.74039 0.29692
3158.69195 0.29703
3156.64351 0.29710
3154.59507 0.29720
3152.54663 0.29730
3150.49819 0.29744
3148.44976 0.29764
3146.40132 0.29783
3144.35288 0.29794
3142.30444 0.29802
3140.25600 0.29817
3138.20756 0.29837
3136.15913 0.29844
3134.11069 0.29835
3132.06225 0.29842
3130.01381 0.29869
3127.96537 0.29880
3125.91693 0.29875
3123.86850 0.29871
3121.82006 0.29879
3119.77162 0.29895
3117.72318 0.29914
3115.67474 0.29943
3113.62630 0.29978
3111.57787 0.30004
3109.52943 0.30024
3107.48099 0.30040
3105.43255 0.30045
3103.38411 0.30032
3101.33567 0.30023
3099.28724 0.30041
3097.23880 0.30064
3095.19036 0.30079
3093.14192 0.30110
3091.09348 0.30148
3089.04504 0.30170
3086.99661 0.30184
3084.94817 0.30189
3082.89973 0.30175
3080.85129 0.30160
3078.80285 0.30168
3076.75441 0.30200
3074.70598 0.30236
3072.65754 0.30260
3070.60910 0.30265
3068.56066 0.30250
3066.51222 0.30232
3064.46378 0.30239
3062.41535 0.30269
3060.36691 0.30291
3058.31847 0.30292
3056.27003 0.30293
3054.22159 0.30318
3052.17315 0.30343
3050.12471 0.30341
3048.07628 0.30340
3046.02784 0.30364
3043.97940 0.30391
3041.93096 0.30404
3039.88252 0.30408
3037.83408 0.30403
3035.78565 0.30387
3033.73721 0.30368
3031.68877 0.30363
3029.64033 0.30389
3027.59189 0.30419
3025.54345 0.30435
3023.49502 0.30454
3021.44658 0.30472
3019.39814 0.30484
3017.34970 0.30486
3015.30126 0.30474
3013.25282 0.30457
3011.20439 0.30457
3009.15595 0.30481
3007.10751 0.30508
3005.05907 0.30517
3003.01063 0.30520
3000.96219 0.30535
2998.91376 0.30553
2996.86532 0.30561
2994.81688 0.30565
2992.76844 0.30576
2990.72000 0.30591
2988.67156 0.30594
2986.62313 0.30591
2984.57469 0.30600
2982.52625 0.30622
2980.47781 0.30638
2978.42937 0.30640
2976.38093 0.30640
2974.33250 0.30647
2972.28406 0.30660
2970.23562 0.30674
2968.18718 0.30681
2966.13874 0.30683
2964.09030 0.30684
2962.04187 0.30683
2959.99343 0.30685
2957.94499 0.30691
2955.89655 0.30693
2953.84811 0.30696
2951.79967 0.30711
2949.75124 0.30731
2947.70280 0.30747
2945.65436 0.30762
2943.60592 0.30770
2941.55748 0.30769
2939.50904 0.30764
2937.46061 0.30754
2935.41217 0.30750
2933.36373 0.30754
2931.31529 0.30757
2929.26685 0.30750
2927.21841 0.30733
2925.16998 0.30709
2923.12154 0.30689
2921.07310 0.30677
2919.02466 0.30669
2916.97622 0.30658
2914.92778 0.30649
2912.87934 0.30647
2910.83091 0.30652
2908.78247 0.30666
2906.73403 0.30681
2904.68559 0.30693
2902.63715 0.30706
2900.58871 0.30722
2898.54028 0.30734
2896.49184 0.30740
2894.44340 0.30745
2892.39496 0.30753
2890.34652 0.30766
2888.29808 0.30781
2886.24965 0.30799
2884.20121 0.30812
2882.15277 0.30820
2880.10433 0.30831
2878.05589 0.30847
2876.00745 0.30863
2873.95902 0.30876
2871.91058 0.30890
2869.86214 0.30903
2867.81370 0.30911
2865.76526 0.30918
2863.71682 0.30925
2861.66839 0.30929
2859.61995 0.30929
2857.57151 0.30919
2855.52307 0.30900
2853.47463 0.30878
2851.42619 0.30861
2849.37776 0.30854
2847.32932 0.30856
2845.28088 0.30865
2843.23244 0.30882
2841.18400 0.30906
2839.13556 0.30925
2837.08713 0.30939
2835.03869 0.30952
2832.99025 0.30962
2830.94181 0.30971
2828.89337 0.30984
2826.84493 0.30996
2824.79650 0.31003
2822.74806 0.31014
2820.69962 0.31034
2818.65118 0.31049
2816.60274 0.31056
2814.55430 0.31065
2812.50587 0.31081
2810.45743 0.31095
2808.40899 0.31100
2806.36055 0.31106
2804.31211 0.31117
2802.26367 0.31128
2800.21524 0.31140
2798.16680 0.31153
2796.11836 0.31162
2794.06992 0.31167
2792.02148 0.31174
2789.97304 0.31186
2787.92461 0.31198
2785.87617 0.31207
2783.82773 0.31218
2781.77929 0.31227
2779.73085 0.31228
2777.68241 0.31227
2775.63397 0.31233
2773.58554 0.31244
2771.53710 0.31254
2769.48866 0.31262
2767.44022 0.31274
2765.39178 0.31288
2763.34334 0.31298
2761.29491 0.31304
2759.24647 0.31311
2757.19803 0.31320
2755.14959 0.31325
2753.10115 0.31325
2751.05271 0.31332
2749.00428 0.31350
2746.95584 0.31366
2744.90740 0.31371
2742.85896 0.31376
2740.81052 0.31389
2738.76208 0.31401
2736.71365 0.31410
2734.66521 0.31421
2732.61677 0.31431
2730.56833 0.31436
2728.51989 0.31439
2726.47145 0.31452
2724.42302 0.31470
2722.37458 0.31480
2720.32614 0.31481
2718.27770 0.31484
2716.22926 0.31495
2714.18082 0.31508
2712.13239 0.31511
2710.08395 0.31511
2708.03551 0.31517
2705.98707 0.31524
2703.93863 0.31532
2701.89019 0.31543
2699.84176 0.31552
2697.79332 0.31561
2695.74488 0.31571
2693.69644 0.31576
2691.64800 0.31577
2689.59956 0.31588
2687.55113 0.31602
2685.50269 0.31608
2683.45425 0.31612
2681.40581 0.31623
2679.35737 0.31631
2677.30893 0.31632
2675.26050 0.31635
2673.21206 0.31647
2671.16362 0.31665
2669.11518 0.31678
2667.06674 0.31688
2665.01830 0.31701
2662.96987 0.31712
2660.92143 0.31717
2658.87299 0.31720
2656.82455 0.31729
2654.77611 0.31744
2652.72767 0.31758
2650.67924 0.31766
2648.63080 0.31773
2646.58236 0.31779
2644.53392 0.31784
2642.48548 0.31789
2640.43704 0.31797
2638.38860 0.31807
2636.34017 0.31816
2634.29173 0.31823
2632.24329 0.31828
2630.19485 0.31830
2628.14641 0.31836
2626.09797 0.31848
2624.04954 0.31857
2622.00110 0.31861
2619.95266 0.31867
2617.90422 0.31876
2615.85578 0.31885
2613.80734 0.31892
2611.75891 0.31900
2609.71047 0.31908
2607.66203 0.31917
2605.61359 0.31926
2603.56515 0.31937
2601.51671 0.31945
2599.46828 0.31951
2597.41984 0.31962
2595.37140 0.31975
2593.32296 0.31984
2591.27452 0.31985
2589.22608 0.31987
2587.17765 0.32001
2585.12921 0.32019
2583.08077 0.32028
2581.03233 0.32032
2578.98389 0.32040
2576.93545 0.32052
2574.88702 0.32063
2572.83858 0.32069
2570.79014 0.32071
2568.74170 0.32076
2566.69326 0.32090
2564.64482 0.32105
2562.59639 0.32113
2560.54795 0.32118
2558.49951 0.32121
2556.45107 0.32125
2554.40263 0.32128
2552.35419 0.32133
2550.30576 0.32142
2548.25732 0.32146
2546.20888 0.32148
2544.16044 0.32157
2542.11200 0.32168
2540.06356 0.32176
2538.01513 0.32185
2535.96669 0.32196
2533.91825 0.32207
2531.86981 0.32221
2529.82137 0.32236
2527.77293 0.32241
2525.72450 0.32242
2523.67606 0.32249
2521.62762 0.32255
2519.57918 0.32255
2517.53074 0.32259
2515.48230 0.32271
2513.43387 0.32283
2511.38543 0.32293
2509.33699 0.32308
2507.28855 0.32324
2505.24011 0.32330
2503.19167 0.32332
2501.14324 0.32338
2499.09480 0.32347
2497.04636 0.32357
2494.99792 0.32369
2492.94948 0.32381
2490.90104 0.32390
2488.85260 0.32391
2486.80417 0.32392
2484.75573 0.32397
2482.70729 0.32404
2480.65885 0.32409
2478.61041 0.32418
2476.56197 0.32430
2474.51354 0.32440
2472.46510 0.32447
2470.41666 0.32453
2468.36822 0.32456
2466.31978 0.32459
2464.27134 0.32466
2462.22291 0.32477
2460.17447 0.32487
2458.12603 0.32493
2456.07759 0.32499
2454.02915 0.32508
2451.98071 0.32517
2449.93228 0.32528
2447.88384 0.32539
2445.83540 0.32549
2443.78696 0.32555
2441.73852 0.32561
2439.69008 0.32570
2437.64165 0.32574
2435.59321 0.32570
2433.54477 0.32575
2431.49633 0.32590
2429.44789 0.32603
2427.39945 0.32612
2425.35102 0.32622
2423.30258 0.32631
2421.25414 0.32638
2419.20570 0.32649
2417.15726 0.32660
2415.10882 0.32662
2413.06039 0.32662
2411.01195 0.32669
2408.96351 0.32681
2406.91507 0.32690
2404.86663 0.32696
2402.81819 0.32700
2400.76976 0.32708
2398.72132 0.32716
2396.67288 0.32717
2394.62444 0.32718
2392.57600 0.32724
2390.52756 0.32730
2388.47913 0.32728
2386.43069 0.32708
2384.38225 0.32658
2382.33381 0.32572
2380.28537 0.32461
2378.23693 0.32343
2376.18850 0.32221
2374.14006 0.32088
2372.09162 0.31944
2370.04318 0.31792
2367.99474 0.31641
2365.94630 0.31508
2363.89787 0.31411
2361.84943 0.31356
2359.80099 0.31338
2357.75255 0.31360
2355.70411 0.31430
2353.65567 0.31547
2351.60723 0.31713
2349.55880 0.31892
2347.51036 0.31987
2345.46192 0.31924
2343.41348 0.31792
2341.36504 0.31743
2339.31660 0.31751
2337.26817 0.31773
2335.21973 0.31804
2333.17129 0.31831
2331.12285 0.31846
2329.07441 0.31875
2327.02597 0.31923
2324.97754 0.31968
2322.92910 0.32004
2320.88066 0.32060
2318.83222 0.32152
2316.78378 0.32258
2314.73534 0.32342
2312.68691 0.32389
2310.63847 0.32432
2308.59003 0.32498
2306.54159 0.32579
2304.49315 0.32660
2302.44471 0.32725
2300.39628 0.32774
2298.34784 0.32819
2296.29940 0.32862
2294.25096 0.32900
2292.20252 0.32942
2290.15408 0.32984
2288.10565 0.33021
2286.05721 0.33051
2284.00877 0.33076
2281.96033 0.33095
2279.91189 0.33107
2277.86345 0.33109
2275.81502 0.33104
2273.76658 0.33107
2271.71814 0.33118
2269.66970 0.33120
2267.62126 0.33119
2265.57282 0.33128
2263.52439 0.33143
2261.47595 0.33156
2259.42751 0.33165
2257.37907 0.33167
2255.33063 0.33172
2253.28219 0.33182
2251.23376 0.33194
2249.18532 0.33208
2247.13688 0.33222
2245.08844 0.33231
2243.04000 0.33237
2240.99156 0.33245
2238.94313 0.33256
2236.89469 0.33268
2234.84625 0.33281
2232.79781 0.33293
2230.74937 0.33304
2228.70093 0.33313
2226.65250 0.33321
2224.60406 0.33330
2222.55562 0.33339
2220.50718 0.33349
2218.45874 0.33358
2216.41030 0.33365
2214.36186 0.33367
2212.31343 0.33371
2210.26499 0.33383
2208.21655 0.33396
2206.16811 0.33403
2204.11967 0.33408
2202.07123 0.33415
2200.02280 0.33420
2197.97436 0.33423
2195.92592 0.33429
2193.87748 0.33439
2191.82904 0.33448
2189.78060 0.33456
2187.73217 0.33463
2185.68373 0.33469
2183.63529 0.33478
2181.58685 0.33488
2179.53841 0.33494
2177.48997 0.33495
2175.44154 0.33500
2173.39310 0.33508
2171.34466 0.33518
2169.29622 0.33535
2167.24778 0.33550
2165.19934 0.33557
2163.15091 0.33561
2161.10247 0.33568
2159.05403 0.33576
2157.00559 0.33588
2154.95715 0.33605
2152.90871 0.33615
2150.86028 0.33619
2148.81184 0.33628
2146.76340 0.33638
2144.71496 0.33645
2142.66652 0.33652
2140.61808 0.33659
2138.56965 0.33666
2136.52121 0.33670
2134.47277 0.33677
2132.42433 0.33690
2130.37589 0.33699
2128.32745 0.33701
2126.27902 0.33703
2124.23058 0.33708
2122.18214 0.33712
2120.13370 0.33717
2118.08526 0.33720
2116.03682 0.33716
2113.98839 0.33720
2111.93995 0.33740
2109.89151 0.33759
2107.84307 0.33770
2105.79463 0.33776
2103.74619 0.33780
2101.69776 0.33787
2099.64932 0.33796
2097.60088 0.33801
2095.55244 0.33812
2093.50400 0.33824
2091.45556 0.33822
2089.40713 0.33824
2087.35869 0.33847
2085.31025 0.33870
2083.26181 0.33882
2081.21337 0.33892
2079.16493 0.33897
2077.11649 0.33899
2075.06806 0.33902
2073.01962 0.33911
2070.97118 0.33924
2068.92274 0.33921
2066.87430 0.33884
2064.82586 0.33855
2062.77743 0.33884
2060.72899 0.33926
2058.68055 0.33948
2056.63211 0.33963
2054.58367 0.33971
2052.53523 0.33974
2050.48680 0.33983
2048.43836 0.33994
2046.38992 0.33994
2044.34148 0.33974
2042.29304 0.33948
2040.24460 0.33964
2038.19617 0.34015
2036.14773 0.34047
2034.09929 0.34063
2032.05085 0.34077
2030.00241 0.34085
2027.95397 0.34087
2025.90554 0.34087
2023.85710 0.34089
2021.80866 0.34082
2019.76022 0.34025
2017.71178 0.33960
2015.66334 0.33994
2013.61491 0.34091
2011.56647 0.34140
2009.51803 0.34141
2007.46959 0.34139
2005.42115 0.34151
2003.37271 0.34164
2001.32428 0.34168
1999.27584 0.34166
1997.22740 0.34166
1995.17896 0.34111
1993.13052 0.33983
1991.08208 0.33936
1989.03365 0.34019
1986.98521 0.34121
1984.93677 0.34199
1982.88833 0.34239
1980.83989 0.34254
1978.79145 0.34263
1976.74302 0.34271
1974.69458 0.34279
1972.64614 0.34284
1970.59770 0.34251
1968.54926 0.34144
1966.50082 0.34094
1964.45239 0.34193
1962.40395 0.34290
1960.35551 0.34322
1958.30707 0.34331
1956.25863 0.34319
1954.21019 0.34322
1952.16176 0.34354
1950.11332 0.34365
1948.06488 0.34319
1946.01644 0.34206
1943.96800 0.34053
1941.91956 0.34036
1939.87112 0.34223
1937.82269 0.34378
1935.77425 0.34414
1933.72581 0.34413
1931.67737 0.34423
1929.62893 0.34441
1927.58049 0.34435
1925.53206 0.34324
1923.48362 0.34136
1921.43518 0.34085
1919.38674 0.34117
1917.33830 0.34162
1915.28986 0.34320
1913.24143 0.34420
1911.19299 0.34341
1909.14455 0.34261
1907.09611 0.34340
1905.04767 0.34468
1902.99923 0.34532
1900.95080 0.34557
1898.90236 0.34543
1896.85392 0.34459
1894.80548 0.34396
1892.75704 0.34399
1890.70860 0.34331
1888.66017 0.34305
1886.61173 0.34427
1884.56329 0.34531
1882.51485 0.34588
1880.46641 0.34621
1878.41797 0.34632
1876.36954 0.34645
1874.32110 0.34627
1872.27266 0.34462
1870.22422 0.34047
1868.17578 0.33759
1866.12734 0.34052
1864.07891 0.34450
1862.03047 0.34608
1859.98203 0.34628
1857.93359 0.34658
1855.88515 0.34716
1853.83671 0.34752
1851.78828 0.34727
1849.73984 0.34588
1847.69140 0.34344
1845.64296 0.34067
1843.59452 0.34022
1841.54608 0.34338
1839.49765 0.34580
1837.44921 0.34614
1835.40077 0.34629
1833.35233 0.34585
1831.30389 0.34292
1829.25545 0.34039
1827.20702 0.34141
1825.15858 0.34297
1823.11014 0.34493
1821.06170 0.34716
1819.01326 0.34803
1816.96482 0.34805
1814.91639 0.34775
1812.86795 0.34619
1810.81951 0.34454
1808.77107 0.34519
1806.72263 0.34679
1804.67419 0.34687
1802.62575 0.34474
1800.57732 0.34260
1798.52888 0.34269
1796.48044 0.34299
1794.43200 0.34132
1792.38356 0.33915
1790.33512 0.34172
1788.28669 0.34615
1786.23825 0.34769
1784.18981 0.34704
1782.14137 0.34586
1780.09293 0.34517
1778.04449 0.34556
1775.99606 0.34460
1773.94762 0.34038
1771.89918 0.33674
1769.85074 0.33939
1767.80230 0.34418
1765.75386 0.34721
1763.70543 0.34699
1761.65699 0.34501
1759.60855 0.34480
1757.56011 0.34539
1755.51167 0.34611
1753.46323 0.34548
1751.41480 0.34049
1749.36636 0.33479
1747.31792 0.33520
1745.26948 0.33813
1743.22104 0.34002
1741.17260 0.34065
1739.12417 0.34097
1737.07573 0.34091
1735.02729 0.33750
1732.97885 0.33453
1730.93041 0.33881
1728.88197 0.34477
1726.83354 0.34861
1724.78510 0.34910
1722.73666 0.34792
1720.68822 0.34537
1718.63978 0.33780
1716.59134 0.33002
1714.54291 0.33482
1712.49447 0.34230
1710.44603 0.34567
1708.39759 0.34454
1706.34915 0.34034
1704.30071 0.33783
1702.25228 0.33722
1700.20384 0.33317
1698.15540 0.32953
1696.10696 0.33364
1694.05852 0.34153
1692.01008 0.34530
1689.96165 0.34415
1687.91321 0.34122
1685.86477 0.33689
1683.81633 0.33202
1681.76789 0.33564
1679.71945 0.34164
1677.67102 0.34474
1675.62258 0.34393
1673.57414 0.34184
1671.52570 0.33956
1669.47726 0.33877
1667.42882 0.34381
1665.38038 0.34754
1663.33195 0.34685
1661.28351 0.34704
1659.23507 0.34916
1657.18663 0.34831
1655.13819 0.34246
1653.08975 0.33418
1651.04132 0.33526
1648.99288 0.33541
1646.94444 0.33396
1644.89600 0.34054
1642.84756 0.34735
1640.79912 0.34901
1638.75069 0.34577
1636.70225 0.33971
1634.65381 0.34120
1632.60537 0.34807
1630.55693 0.35077
1628.50849 0.34953
1626.46006 0.34754
1624.41162 0.34564
1622.36318 0.34555
1620.31474 0.34750
1618.26630 0.34655
1616.21786 0.34498
1614.16943 0.34870
1612.12099 0.35182
1610.07255 0.35164
1608.02411 0.35112
1605.97567 0.35201
1603.92723 0.35264
1601.87880 0.35305
1599.83036 0.35400
1597.78192 0.35417
1595.73348 0.35327
1593.68504 0.35303
1591.63660 0.35368
1589.58817 0.35441
1587.53973 0.35512
1585.49129 0.35548
1583.44285 0.35530
1581.39441 0.35445
1579.34597 0.35166
1577.29754 0.34598
1575.24910 0.34401
1573.20066 0.34725
1571.15222 0.34717
1569.10378 0.34507
1567.05534 0.34630
1565.00691 0.34750
1562.95847 0.34673
1560.91003 0.34207
1558.86159 0.33055
1556.81315 0.33101
1554.76471 0.33808
1552.71628 0.34282
1550.66784 0.34492
1548.61940 0.34598
1546.57096 0.34407
1544.52252 0.33594
1542.47408 0.32458
1540.42565 0.32110
1538.37721 0.33246
1536.32877 0.33961
1534.28033 0.34038
1532.23189 0.34175
1530.18345 0.34432
1528.13501 0.34245
1526.08658 0.33739
1524.03814 0.33288
1521.98970 0.32927
1519.94126 0.33046
1517.89282 0.33349
1515.84438 0.33744
1513.79595 0.34181
1511.74751 0.34148
1509.69907 0.33466
1507.65063 0.32575
1505.60219 0.33349
1503.55375 0.34425
1501.50532 0.34766
1499.45688 0.34595
1497.40844 0.34369
1495.36000 0.34668
1493.31156 0.34923
1491.26312 0.34538
1489.21469 0.34010
1487.16625 0.34453
1485.11781 0.35156
1483.06937 0.35456
1481.02093 0.35483
1478.97249 0.35414
1476.92406 0.35080
1474.87562 0.34411
1472.82718 0.34075
1470.77874 0.34709
1468.73030 0.35294
1466.68186 0.35320
1464.63343 0.35148
1462.58499 0.35202
1460.53655 0.35002
1458.48811 0.34130
1456.43967 0.33708
1454.39123 0.34533
1452.34280 0.35176
1450.29436 0.35385
1448.24592 0.35360
1446.19748 0.35489
1444.14904 0.35730
1442.10060 0.35826
1440.05217 0.35711
1438.00373 0.35340
1435.95529 0.35042
1433.90685 0.35206
1431.85841 0.35345
1429.80997 0.35374
1427.76154 0.35492
1425.71310 0.35488
1423.66466 0.35334
1421.61622 0.35177
1419.56778 0.34864
1417.51934 0.34859
1415.47091 0.35351
1413.42247 0.35681
1411.37403 0.35759
1409.32559 0.35791
1407.27715 0.35735
1405.22871 0.35589
1403.18028 0.35580
1401.13184 0.35505
1399.08340 0.35168
1397.03496 0.34887
1394.98652 0.34972
1392.93808 0.35383
1390.88965 0.35668
1388.84121 0.35577
1386.79277 0.35472
1384.74433 0.35712
1382.69589 0.35940
1380.64745 0.35948
1378.59901 0.35839
1376.55058 0.35624
1374.50214 0.35423
1372.45370 0.35552
1370.40526 0.35779
1368.35682 0.35874
1366.30838 0.35873
1364.25995 0.35653
1362.21151 0.35460
1360.16307 0.35682
1358.11463 0.35956
1356.06619 0.36041
1354.01775 0.36077
1351.96932 0.36129
1349.92088 0.36150
1347.87244 0.36174
1345.82400 0.36206
1343.77556 0.36134
1341.72712 0.35816
1339.67869 0.35457
1337.63025 0.35560
1335.58181 0.35944
1333.53337 0.36187
1331.48493 0.36260
1329.43649 0.36277
1327.38806 0.36295
1325.33962 0.36301
1323.29118 0.36264
1321.24274 0.36149
1319.19430 0.36018
1317.14586 0.36007
1315.09743 0.36064
1313.04899 0.36127
1311.00055 0.36231
1308.95211 0.36316
1306.90367 0.36355
1304.85523 0.36391
1302.80680 0.36422
1300.75836 0.36434
1298.70992 0.36426
1296.66148 0.36419
1294.61304 0.36430
1292.56460 0.36432
1290.51617 0.36405
1288.46773 0.36385
1286.41929 0.36412
1284.37085 0.36461
1282.32241 0.36488
1280.27397 0.36496
1278.22554 0.36503
1276.17710 0.36504
1274.12866 0.36476
1272.08022 0.36431
1270.03178 0.36424
1267.98334 0.36460
1265.93491 0.36498
1263.88647 0.36512
1261.83803 0.36494
1259.78959 0.36485
1257.74115 0.36514
1255.69271 0.36544
1253.64428 0.36557
1251.59584 0.36567
1249.54740 0.36581
1247.49896 0.36588
1245.45052 0.36582
1243.40208 0.36581
1241.35364 0.36599
1239.30521 0.36617
1237.25677 0.36624
1235.20833 0.36623
1233.15989 0.36626
1231.11145 0.36635
1229.06301 0.36638
1227.01458 0.36630
1224.96614 0.36629
1222.91770 0.36646
1220.86926 0.36663
1218.82082 0.36668
1216.77238 0.36670
1214.72395 0.36668
1212.67551 0.36663
1210.62707 0.36673
1208.57863 0.36690
1206.53019 0.36701
1204.48175 0.36710
1202.43332 0.36716
1200.38488 0.36716
1198.33644 0.36716
1196.28800 0.36728
1194.23956 0.36744
1192.19112 0.36749
1190.14269 0.36742
1188.09425 0.36738
1186.04581 0.36750
1183.99737 0.36765
1181.94893 0.36773
1179.90049 0.36781
1177.85206 0.36790
1175.80362 0.36791
1173.75518 0.36795
1171.70674 0.36811
1169.65830 0.36826
1167.60986 0.36837
1165.56143 0.36847
1163.51299 0.36858
1161.46455 0.36872
1159.41611 0.36884
1157.36767 0.36890
1155.31923 0.36895
1153.27080 0.36905
1151.22236 0.36914
1149.17392 0.36915
1147.12548 0.36918
1145.07704 0.36929
1143.02860 0.36941
1140.98017 0.36945
1138.93173 0.36944
1136.88329 0.36943
1134.83485 0.36947
1132.78641 0.36956
1130.73797 0.36964
1128.68954 0.36967
1126.64110 0.36961
1124.59266 0.36951
1122.54422 0.36937
1120.49578 0.36915
1118.44734 0.36896
1116.39891 0.36888
1114.35047 0.36893
1112.30203 0.36911
1110.25359 0.36939
1108.20515 0.36973
1106.15671 0.37006
1104.10827 0.37035
1102.05984 0.37062
1100.01140 0.37080
1097.96296 0.37091
1095.91452 0.37105
1093.86608 0.37119
1091.81764 0.37123
1089.76921 0.37129
1087.72077 0.37143
1085.67233 0.37155
1083.62389 0.37165
1081.57545 0.37184
1079.52701 0.37209
1077.47858 0.37226
1075.43014 0.37240
1073.38170 0.37259
1071.33326 0.37281
1069.28482 0.37300
1067.23638 0.37320
1065.18795 0.37347
1063.13951 0.37378
1061.09107 0.37404
1059.04263 0.37431
1056.99419 0.37465
1054.94575 0.37497
1052.89732 0.37523
1050.84888 0.37541
1048.80044 0.37561
1046.75200 0.37582
1044.70356 0.37603
1042.65512 0.37631
1040.60669 0.37667
1038.55825 0.37699
1036.50981 0.37712
1034.46137 0.37707
1032.41293 0.37686
1030.36449 0.37654
1028.31606 0.37620
1026.26762 0.37596
1024.21918 0.37588
1022.17074 0.37595
1020.12230 0.37617
1018.07386 0.37651
1016.02543 0.37688
1013.97699 0.37724
1011.92855 0.37757
1009.88011 0.37776
1007.83167 0.37763
1005.78323 0.37721
1003.73480 0.37675
1001.68636 0.37645
999.63792 0.37633
997.58948 0.37636
995.54104 0.37656
993.49260 0.37680
991.44417 0.37699
989.39573 0.37719
987.34729 0.37745
985.29885 0.37778
983.25041 0.37814
981.20197 0.37843
979.15354 0.37865
977.10510 0.37880
975.05666 0.37897
973.00822 0.37929
970.95978 0.37964
968.91134 0.37984
966.86290 0.37994
964.81447 0.38013
962.76603 0.38044
960.71759 0.38067
958.66915 0.38079
956.62071 0.38091
954.57227 0.38117
952.52384 0.38153
950.47540 0.38177
948.42696 0.38189
946.37852 0.38201
944.33008 0.38221
942.28164 0.38245
940.23321 0.38270
938.18477 0.38293
936.13633 0.38310
934.08789 0.38330
932.03945 0.38353
929.99101 0.38366
927.94258 0.38377
925.89414 0.38397
923.84570 0.38422
921.79726 0.38445
919.74882 0.38462
917.70038 0.38476
915.65195 0.38487
913.60351 0.38496
911.55507 0.38495
909.50663 0.38483
907.45819 0.38477
905.40975 0.38487
903.36132 0.38499
901.31288 0.38513
899.26444 0.38537
897.21600 0.38562
895.16756 0.38589
893.11912 0.38617
891.07069 0.38632
889.02225 0.38640
886.97381 0.38656
884.92537 0.38678
882.87693 0.38692
880.82849 0.38699
878.78006 0.38711
876.73162 0.38729
874.68318 0.38747
872.63474 0.38770
870.58630 0.38796
868.53786 0.38817
866.48943 0.38831
864.44099 0.38842
862.39255 0.38856
860.34411 0.38879
858.29567 0.38905
856.24723 0.38924
854.19880 0.38934
852.15036 0.38942
850.10192 0.38961
848.05348 0.38997
846.00504 0.39034
843.95660 0.39053
841.90817 0.39067
839.85973 0.39091
837.81129 0.39116
835.76285 0.39135
833.71441 0.39153
831.66597 0.39173
829.61753 0.39202
827.56910 0.39234
825.52066 0.39262
823.47222 0.39286
821.42378 0.39304
819.37534 0.39317
817.32690 0.39337
815.27847 0.39367
813.23003 0.39402
811.18159 0.39434
809.13315 0.39463
807.08471 0.39490
805.03627 0.39518
802.98784 0.39535
800.93940 0.39535
798.89096 0.39552
796.84252 0.39598
794.79408 0.39639
792.74564 0.39661
790.69721 0.39679
788.64877 0.39706
786.60033 0.39739
784.55189 0.39769
782.50345 0.39794
780.45501 0.39811
778.40658 0.39833
776.35814 0.39867
774.30970 0.39901
772.26126 0.39940
770.21282 0.39983
768.16438 0.40033
766.11595 0.40084
764.06751 0.40114
762.01907 0.40139
759.97063 0.40173
757.92219 0.40210
755.87375 0.40248
753.82532 0.40274
751.77688 0.40295
749.72844 0.40335
747.68000 0.40390
745.63156 0.40437
743.58312 0.40475
741.53469 0.40530
739.48625 0.40605
737.43781 0.40674
735.38937 0.40731
733.34093 0.40784
731.29249 0.40836
729.24406 0.40912
727.19562 0.41016
725.14718 0.41098
723.09874 0.41125
721.05030 0.41140
719.00186 0.41198
716.95343 0.41272
714.90499 0.41323
712.85655 0.41388
710.80811 0.41466
708.75967 0.41510
706.71123 0.41530
704.66280 0.41577
702.61436 0.41652
700.56592 0.41702
698.51748 0.41711
696.46904 0.41737
694.42060 0.41811
692.37216 0.41873
690.32373 0.41873
688.27529 0.41856
686.22685 0.41887
684.17841 0.41973
682.12997 0.42110
680.08153 0.42308
678.03310 0.42542
675.98466 0.42741
673.93622 0.42850
671.88778 0.42836
669.83934 0.42710
667.79090 0.42708
665.74247 0.42993
663.69403 0.43261
661.64559 0.43463
659.59715 0.43567
657.54871 0.43561
655.50027 0.43641
653.45184 0.43907
651.40340 0.44207
649.35496 0.44437
647.30652 0.44720
645.25808 0.45142
643.20964 0.45559
641.16121 0.45838
639.11277 0.46012
637.06433 0.46201
635.01589 0.46520
632.96745 0.46975
630.91901 0.47439
628.87058 0.47762
626.82214 0.47920
624.77370 0.48119
622.72526 0.48463
620.67682 0.48813
618.62838 0.49135
616.57995 0.49457
614.53151 0.49775
612.48307 0.50139
610.43463 0.50554
608.38619 0.50911
606.33775 0.51313
604.28932 0.51937
602.24088 0.52551
600.19244 0.53048
598.14400 0.53691
