3996.50324 1.76523
3994.45480 1.76724
3992.40636 1.76713
3990.35792 1.76637
3988.30948 1.76569
3986.26104 1.76360
3984.21261 1.76208
3982.16417 1.76313
3980.11573 1.76449
3978.06729 1.76472
3976.01885 1.76564
3973.97041 1.76709
3971.92198 1.76707
3969.87354 1.76598
3967.82510 1.76432
3965.77666 1.76287
3963.72822 1.76330
3961.67978 1.76340
3959.63135 1.76172
3957.58291 1.76132
3955.53447 1.76321
3953.48603 1.76575
3951.43759 1.76742
3949.38915 1.76783
3947.34072 1.76820
3945.29228 1.76927
3943.24384 1.76916
3941.19540 1.76676
3939.14696 1.76393
3937.09852 1.76271
3935.05009 1.76353
3933.00165 1.76500
3930.95321 1.76588
3928.90477 1.76632
3926.85633 1.76797
3924.80789 1.76970
3922.75946 1.76851
3920.71102 1.76675
3918.66258 1.76770
3916.61414 1.76910
3914.56570 1.76671
3912.51726 1.76288
3910.46883 1.76199
3908.42039 1.76482
3906.37195 1.76931
3904.32351 1.77177
3902.27507 1.77050
3900.22663 1.76972
3898.17820 1.77032
3896.12976 1.77047
3894.08132 1.77011
3892.03288 1.76918
3889.98444 1.76895
3887.93600 1.77120
3885.88756 1.77387
3883.83913 1.77471
3881.79069 1.77233
3879.74225 1.76611
3877.69381 1.76412
3875.64537 1.76831
3873.59693 1.77411
3871.54850 1.77594
3869.50006 1.77284
3867.45162 1.77157
3865.40318 1.77221
3863.35474 1.77000
3861.30630 1.76709
3859.25787 1.76858
3857.20943 1.77457
3855.16099 1.78047
3853.11255 1.77751
3851.06411 1.77056
3849.01567 1.76779
3846.96724 1.76800
3844.91880 1.77107
3842.87036 1.77548
3840.82192 1.77881
3838.77348 1.77917
3836.72504 1.77581
3834.67661 1.77186
3832.62817 1.76931
3830.57973 1.76793
3828.53129 1.76732
3826.48285 1.76859
3824.43441 1.77198
3822.38598 1.77436
3820.33754 1.77517
3818.28910 1.77558
3816.24066 1.77191
3814.19222 1.76700
3812.14378 1.76553
3810.09535 1.76667
3808.04691 1.76880
3805.99847 1.76974
3803.95003 1.77158
3801.90159 1.77299
3799.85315 1.77209
3797.80472 1.77241
3795.75628 1.77080
3793.70784 1.76675
3791.65940 1.76436
3789.61096 1.76452
3787.56252 1.76557
3785.51409 1.76618
3783.46565 1.76693
3781.41721 1.76753
3779.36877 1.76582
3777.32033 1.76374
3775.27189 1.76427
3773.22346 1.76616
3771.17502 1.76695
3769.12658 1.76590
3767.07814 1.76658
3765.02970 1.76789
3762.98126 1.76790
3760.93283 1.76889
3758.88439 1.77063
3756.83595 1.77207
3754.78751 1.77463
3752.73907 1.77831
3750.69063 1.78220
3748.64219 1.78545
3746.59376 1.78441
3744.54532 1.77748
3742.49688 1.77538
3740.44844 1.77917
3738.40000 1.78246
3736.35156 1.78401
3734.30313 1.78344
3732.25469 1.77957
3730.20625 1.77632
3728.15781 1.77601
3726.10937 1.77576
3724.06093 1.77335
3722.01250 1.77105
3719.96406 1.76992
3717.91562 1.76891
3715.86718 1.76918
3713.81874 1.77220
3711.77030 1.77453
3709.72187 1.77200
3707.67343 1.77016
3705.62499 1.77172
3703.57655 1.77496
3701.52811 1.77563
3699.47967 1.77327
3697.43124 1.77162
3695.38280 1.77222
3693.33436 1.77564
3691.28592 1.77984
3689.23748 1.78085
3687.18904 1.77747
3685.14061 1.77234
3683.09217 1.76902
3681.04373 1.77070
3678.99529 1.77582
3676.94685 1.77913
3674.89841 1.77861
3672.84998 1.77850
3670.80154 1.77674
3668.75310 1.77282
3666.70466 1.77086
3664.65622 1.76909
3662.60778 1.76825
3660.55935 1.77011
3658.51091 1.77345
3656.46247 1.77636
3654.41403 1.77872
3652.36559 1.78308
3650.31715 1.79114
3648.26872 1.79138
3646.22028 1.78125
3644.17184 1.77612
3642.12340 1.77491
3640.07496 1.77467
3638.02652 1.77630
3635.97809 1.77908
3633.92965 1.78120
3631.88121 1.78343
3629.83277 1.78503
3627.78433 1.78370
3625.73589 1.78271
3623.68746 1.78375
3621.63902 1.78555
3619.59058 1.78596
3617.54214 1.78753
3615.49370 1.79104
3613.44526 1.79208
3611.39682 1.79137
3609.34839 1.79154
3607.29995 1.79124
3605.25151 1.78969
3603.20307 1.78924
3601.15463 1.79110
3599.10619 1.79260
3597.05776 1.79248
3595.00932 1.79213
3592.96088 1.79160
3590.91244 1.79230
3588.86400 1.79452
3586.81556 1.79596
3584.76713 1.79445
3582.71869 1.79061
3580.67025 1.78820
3578.62181 1.79043
3576.57337 1.79341
3574.52493 1.79310
3572.47650 1.79315
3570.42806 1.79724
3568.37962 1.80392
3566.33118 1.80521
3564.28274 1.79980
3562.23430 1.79612
3560.18587 1.79387
3558.13743 1.79196
3556.08899 1.79298
3554.04055 1.79665
3551.99211 1.79898
3549.94367 1.79952
3547.89524 1.80077
3545.84680 1.80219
3543.79836 1.80111
3541.74992 1.79819
3539.70148 1.79658
3537.65304 1.79671
3535.60461 1.79845
3533.55617 1.80148
3531.50773 1.80264
3529.45929 1.80058
3527.41085 1.79873
3525.36241 1.79969
3523.31398 1.80111
3521.26554 1.80054
3519.21710 1.79891
3517.16866 1.79803
3515.12022 1.79843
3513.07178 1.79925
3511.02335 1.80030
3508.97491 1.80050
3506.92647 1.79973
3504.87803 1.80104
3502.82959 1.80255
3500.78115 1.80149
3498.73272 1.80113
3496.68428 1.80192
3494.63584 1.80099
3492.58740 1.79876
3490.53896 1.79839
3488.49052 1.79934
3486.44209 1.79965
3484.39365 1.80076
3482.34521 1.80215
3480.29677 1.80159
3478.24833 1.80072
3476.19989 1.80195
3474.15146 1.80426
3472.10302 1.80483
3470.05458 1.80339
3468.00614 1.80165
3465.95770 1.79981
3463.90926 1.79933
3461.86082 1.80152
3459.81239 1.80345
3457.76395 1.80433
3455.71551 1.80537
3453.66707 1.80494
3451.61863 1.80361
3449.57019 1.80438
3447.52176 1.80675
3445.47332 1.80803
3443.42488 1.80769
3441.37644 1.80666
3439.32800 1.80527
3437.27956 1.80350
3435.23113 1.80222
3433.18269 1.80195
3431.13425 1.80245
3429.08581 1.80304
3427.03737 1.80277
3424.98893 1.80147
3422.94050 1.80019
3420.89206 1.80087
3418.84362 1.80231
3416.79518 1.80274
3414.74674 1.80386
3412.69830 1.80553
3410.64987 1.80545
3408.60143 1.80465
3406.55299 1.80544
3404.50455 1.80620
3402.45611 1.80666
3400.40767 1.80818
3398.35924 1.80907
3396.31080 1.80938
3394.26236 1.80978
3392.21392 1.80890
3390.16548 1.80798
3388.11704 1.80805
3386.06861 1.80740
3384.02017 1.80676
3381.97173 1.80617
3379.92329 1.80459
3377.87485 1.80435
3375.82641 1.80510
3373.77798 1.80483
3371.72954 1.80448
3369.68110 1.80415
3367.63266 1.80413
3365.58422 1.80565
3363.53578 1.80766
3361.48735 1.80860
3359.43891 1.80757
3357.39047 1.80628
3355.34203 1.80689
3353.29359 1.80765
3351.24515 1.80792
3349.19672 1.80852
3347.14828 1.80840
3345.09984 1.80775
3343.05140 1.80703
3341.00296 1.80596
3338.95452 1.80627
3336.90609 1.80802
3334.85765 1.80863
3332.80921 1.80784
3330.76077 1.80756
3328.71233 1.80888
3326.66389 1.81059
3324.61545 1.81142
3322.56702 1.81149
3320.51858 1.81067
3318.47014 1.80889
3316.42170 1.80716
3314.37326 1.80602
3312.32482 1.80635
3310.27639 1.80924
3308.22795 1.81216
3306.17951 1.81289
3304.13107 1.81279
3302.08263 1.81180
3300.03419 1.80975
3297.98576 1.80908
3295.93732 1.81062
3293.88888 1.81208
3291.84044 1.81209
3289.79200 1.81191
3287.74356 1.81160
3285.69513 1.81033
3283.64669 1.80942
3281.59825 1.81022
3279.54981 1.81188
3277.50137 1.81192
3275.45293 1.81080
3273.40450 1.81132
3271.35606 1.81216
3269.30762 1.81091
3267.25918 1.80974
3265.21074 1.81032
3263.16230 1.81157
3261.11387 1.81309
3259.06543 1.81346
3257.01699 1.81210
3254.96855 1.81115
3252.92011 1.81087
3250.87167 1.81046
3248.82324 1.81050
3246.77480 1.81049
3244.72636 1.81105
3242.67792 1.81334
3240.62948 1.81523
3238.58104 1.81570
3236.53261 1.81478
3234.48417 1.81321
3232.43573 1.81242
3230.38729 1.81188
3228.33885 1.81211
3226.29041 1.81352
3224.24198 1.81444
3222.19354 1.81347
3220.14510 1.81099
3218.09666 1.80958
3216.04822 1.81128
3213.99978 1.81416
3211.95135 1.81486
3209.90291 1.81355
3207.85447 1.81207
3205.80603 1.81147
3203.75759 1.81249
3201.70915 1.81367
3199.66072 1.81330
3197.61228 1.81194
3195.56384 1.81077
3193.51540 1.81061
3191.46696 1.81055
3189.41852 1.80962
3187.37008 1.80861
3185.32165 1.80833
3183.27321 1.80862
3181.22477 1.80902
3179.17633 1.80970
3177.12789 1.81045
3175.07945 1.81001
3173.03102 1.80863
3170.98258 1.80868
3168.93414 1.81088
3166.88570 1.81254
3164.83726 1.81161
3162.78882 1.81003
3160.74039 1.81022
3158.69195 1.81185
3156.64351 1.81288
3154.59507 1.81170
3152.54663 1.80975
3150.49819 1.80895
3148.44976 1.80852
3146.40132 1.80793
3144.35288 1.80777
3142.30444 1.80766
3140.25600 1.80701
3138.20756 1.80605
3136.15913 1.80550
3134.11069 1.80586
3132.06225 1.80704
3130.01381 1.80856
3127.96537 1.80935
3125.91693 1.80857
3123.86850 1.80735
3121.82006 1.80698
3119.77162 1.80684
3117.72318 1.80691
3115.67474 1.80765
3113.62630 1.80763
3111.57787 1.80610
3109.52943 1.80498
3107.48099 1.80587
3105.43255 1.80734
3103.38411 1.80786
3101.33567 1.80801
3099.28724 1.80801
3097.23880 1.80703
3095.19036 1.80584
3093.14192 1.80617
3091.09348 1.80671
3089.04504 1.80575
3086.99661 1.80473
3084.94817 1.80339
3082.89973 1.80130
3080.85129 1.80120
3078.80285 1.80360
3076.75441 1.80593
3074.70598 1.80607
3072.65754 1.80483
3070.60910 1.80464
3068.56066 1.80578
3066.51222 1.80623
3064.46378 1.80467
3062.41535 1.80317
3060.36691 1.80410
3058.31847 1.80571
3056.27003 1.80528
3054.22159 1.80376
3052.17315 1.80310
3050.12471 1.80341
3048.07628 1.80369
3046.02784 1.80247
3043.97940 1.80092
3041.93096 1.80143
3039.88252 1.80331
3037.83408 1.80482
3035.78565 1.80545
3033.73721 1.80495
3031.68877 1.80267
3029.64033 1.80003
3027.59189 1.79912
3025.54345 1.79914
3023.49502 1.79924
3021.44658 1.79973
3019.39814 1.80069
3017.34970 1.80216
3015.30126 1.80297
3013.25282 1.80231
3011.20439 1.80148
3009.15595 1.80095
3007.10751 1.80080
3005.05907 1.80208
3003.01063 1.80387
3000.96219 1.80472
2998.91376 1.80496
2996.86532 1.80438
2994.81688 1.80323
2992.76844 1.80313
2990.72000 1.80316
2988.67156 1.80185
2986.62313 1.80078
2984.57469 1.80088
2982.52625 1.80102
2980.47781 1.80088
2978.42937 1.80142
2976.38093 1.80272
2974.33250 1.80335
2972.28406 1.80317
2970.23562 1.80317
2968.18718 1.80297
2966.13874 1.80232
2964.09030 1.80162
2962.04187 1.80091
2959.99343 1.80061
2957.94499 1.80110
2955.89655 1.80216
2953.84811 1.80276
2951.79967 1.80242
2949.75124 1.80161
2947.70280 1.80017
2945.65436 1.79857
2943.60592 1.79863
2941.55748 1.80083
2939.50904 1.80287
2937.46061 1.80317
2935.41217 1.80267
2933.36373 1.80204
2931.31529 1.80096
2929.26685 1.79994
2927.21841 1.79987
2925.16998 1.80027
2923.12154 1.80031
2921.07310 1.80064
2919.02466 1.80172
2916.97622 1.80251
2914.92778 1.80206
2912.87934 1.80053
2910.83091 1.79977
2908.78247 1.80012
2906.73403 1.79948
2904.68559 1.79818
2902.63715 1.79771
2900.58871 1.79822
2898.54028 1.79896
2896.49184 1.79947
2894.44340 1.80010
2892.39496 1.80018
2890.34652 1.79940
2888.29808 1.79866
2886.24965 1.79802
2884.20121 1.79713
2882.15277 1.79638
2880.10433 1.79627
2878.05589 1.79636
2876.00745 1.79622
2873.95902 1.79655
2871.91058 1.79785
2869.86214 1.79885
2867.81370 1.79849
2865.76526 1.79757
2863.71682 1.79670
2861.66839 1.79617
2859.61995 1.79618
2857.57151 1.79657
2855.52307 1.79780
2853.47463 1.79889
2851.42619 1.79866
2849.37776 1.79789
2847.32932 1.79730
2845.28088 1.79756
2843.23244 1.79860
2841.18400 1.79835
2839.13556 1.79628
2837.08713 1.79477
2835.03869 1.79492
2832.99025 1.79527
2830.94181 1.79543
2828.89337 1.79610
2826.84493 1.79639
2824.79650 1.79612
2822.74806 1.79588
2820.69962 1.79552
2818.65118 1.79491
2816.60274 1.79423
2814.55430 1.79365
2812.50587 1.79329
2810.45743 1.79319
2808.40899 1.79288
2806.36055 1.79259
2804.31211 1.79262
2802.26367 1.79284
2800.21524 1.79405
2798.16680 1.79504
2796.11836 1.79397
2794.06992 1.79187
2792.02148 1.79039
2789.97304 1.79049
2787.92461 1.79178
2785.87617 1.79237
2783.82773 1.79243
2781.77929 1.79325
2779.73085 1.79360
2777.68241 1.79288
2775.63397 1.79267
2773.58554 1.79344
2771.53710 1.79379
2769.48866 1.79312
2767.44022 1.79282
2765.39178 1.79342
2763.34334 1.79374
2761.29491 1.79344
2759.24647 1.79316
2757.19803 1.79280
2755.14959 1.79247
2753.10115 1.79290
2751.05271 1.79329
2749.00428 1.79280
2746.95584 1.79236
2744.90740 1.79238
2742.85896 1.79205
2740.81052 1.79169
2738.76208 1.79186
2736.71365 1.79134
2734.66521 1.79017
2732.61677 1.78956
2730.56833 1.78955
2728.51989 1.78995
2726.47145 1.79024
2724.42302 1.78994
2722.37458 1.78947
2720.32614 1.78945
2718.27770 1.78970
2716.22926 1.78963
2714.18082 1.78951
2712.13239 1.78931
2710.08395 1.78883
2708.03551 1.78908
2705.98707 1.79009
2703.93863 1.79015
2701.89019 1.78924
2699.84176 1.78841
2697.79332 1.78723
2695.74488 1.78627
2693.69644 1.78733
2691.64800 1.78952
2689.59956 1.79020
2687.55113 1.78919
2685.50269 1.78816
2683.45425 1.78788
2681.40581 1.78800
2679.35737 1.78832
2677.30893 1.78905
2675.26050 1.78966
2673.21206 1.78936
2671.16362 1.78882
2669.11518 1.78899
2667.06674 1.78896
2665.01830 1.78786
2662.96987 1.78667
2660.92143 1.78661
2658.87299 1.78692
2656.82455 1.78651
2654.77611 1.78607
2652.72767 1.78589
2650.67924 1.78546
2648.63080 1.78474
2646.58236 1.78450
2644.53392 1.78549
2642.48548 1.78691
2640.43704 1.78725
2638.38860 1.78640
2636.34017 1.78580
2634.29173 1.78609
2632.24329 1.78618
2630.19485 1.78551
2628.14641 1.78438
2626.09797 1.78388
2624.04954 1.78521
2622.00110 1.78701
2619.95266 1.78695
2617.90422 1.78587
2615.85578 1.78567
2613.80734 1.78573
2611.75891 1.78527
2609.71047 1.78487
2607.66203 1.78479
2605.61359 1.78522
2603.56515 1.78597
2601.51671 1.78559
2599.46828 1.78380
2597.41984 1.78273
2595.37140 1.78351
2593.32296 1.78474
2591.27452 1.78436
2589.22608 1.78256
2587.17765 1.78178
2585.12921 1.78238
2583.08077 1.78283
2581.03233 1.78242
2578.98389 1.78153
2576.93545 1.78135
2574.88702 1.78170
2572.83858 1.78134
2570.79014 1.78070
2568.74170 1.78074
2566.69326 1.78075
2564.64482 1.77961
2562.59639 1.77833
2560.54795 1.77840
2558.49951 1.77944
2556.45107 1.78019
2554.40263 1.78034
2552.35419 1.78070
2550.30576 1.78121
2548.25732 1.78104
2546.20888 1.78011
2544.16044 1.77961
2542.11200 1.77995
2540.06356 1.77996
2538.01513 1.77985
2535.96669 1.78044
2533.91825 1.78039
2531.86981 1.77896
2529.82137 1.77783
2527.77293 1.77724
2525.72450 1.77627
2523.67606 1.77551
2521.62762 1.77555
2519.57918 1.77608
2517.53074 1.77637
2515.48230 1.77572
2513.43387 1.77505
2511.38543 1.77543
2509.33699 1.77618
2507.28855 1.77647
2505.24011 1.77630
2503.19167 1.77585
2501.14324 1.77569
2499.09480 1.77640
2497.04636 1.77763
2494.99792 1.77791
2492.94948 1.77669
2490.90104 1.77564
2488.85260 1.77552
2486.80417 1.77539
2484.75573 1.77510
2482.70729 1.77479
2480.65885 1.77416
2478.61041 1.77307
2476.56197 1.77240
2474.51354 1.77345
2472.46510 1.77553
2470.41666 1.77643
2468.36822 1.77533
2466.31978 1.77359
2464.27134 1.77263
2462.22291 1.77273
2460.17447 1.77362
2458.12603 1.77453
2456.07759 1.77482
2454.02915 1.77444
2451.98071 1.77335
2449.93228 1.77236
2447.88384 1.77271
2445.83540 1.77403
2443.78696 1.77458
2441.73852 1.77392
2439.69008 1.77390
2437.64165 1.77465
2435.59321 1.77415
2433.54477 1.77224
2431.49633 1.77033
2429.44789 1.76911
2427.39945 1.76866
2425.35102 1.76935
2423.30258 1.77079
2421.25414 1.77130
2419.20570 1.77082
2417.15726 1.77053
2415.10882 1.77017
2413.06039 1.76928
2411.01195 1.76864
2408.96351 1.76909
2406.91507 1.76991
2404.86663 1.76946
2402.81819 1.76830
2400.76976 1.76799
2398.72132 1.76820
2396.67288 1.76826
2394.62444 1.76807
2392.57600 1.76792
2390.52756 1.76808
2388.47913 1.76855
2386.43069 1.76947
2384.38225 1.77064
2382.33381 1.77170
2380.28537 1.77261
2378.23693 1.77387
2376.18850 1.77542
2374.14006 1.77593
2372.09162 1.77554
2370.04318 1.77450
2367.99474 1.77222
2365.94630 1.77012
2363.89787 1.76897
2361.84943 1.76915
2359.80099 1.77141
2357.75255 1.77319
2355.70411 1.77471
2353.65567 1.77606
2351.60723 1.77503
2349.55880 1.77330
2347.51036 1.77185
2345.46192 1.77146
2343.41348 1.77333
2341.36504 1.77541
2339.31660 1.77786
2337.26817 1.77906
2335.21973 1.77456
2333.17129 1.76994
2331.12285 1.77131
2329.07441 1.77314
2327.02597 1.77263
2324.97754 1.77225
2322.92910 1.77147
2320.88066 1.77021
2318.83222 1.76881
2316.78378 1.76858
2314.73534 1.77026
2312.68691 1.77090
2310.63847 1.76939
2308.59003 1.76780
2306.54159 1.76683
2304.49315 1.76645
2302.44471 1.76643
2300.39628 1.76650
2298.34784 1.76682
2296.29940 1.76638
2294.25096 1.76465
2292.20252 1.76326
2290.15408 1.76277
2288.10565 1.76261
2286.05721 1.76282
2284.00877 1.76289
2281.96033 1.76227
2279.91189 1.76178
2277.86345 1.76248
2275.81502 1.76389
2273.76658 1.76446
2271.71814 1.76379
2269.66970 1.76324
2267.62126 1.76281
2265.57282 1.76176
2263.52439 1.76089
2261.47595 1.76070
2259.42751 1.76136
2257.37907 1.76224
2255.33063 1.76242
2253.28219 1.76181
2251.23376 1.76040
2249.18532 1.75906
2247.13688 1.75906
2245.08844 1.76024
2243.04000 1.76117
2240.99156 1.76119
2238.94313 1.76075
2236.89469 1.76015
2234.84625 1.75965
2232.79781 1.75937
2230.74937 1.75878
2228.70093 1.75778
2226.65250 1.75722
2224.60406 1.75727
2222.55562 1.75692
2220.50718 1.75616
2218.45874 1.75541
2216.41030 1.75437
2214.36186 1.75426
2212.31343 1.75520
2210.26499 1.75574
2208.21655 1.75550
2206.16811 1.75498
2204.11967 1.75505
2202.07123 1.75498
2200.02280 1.75396
2197.97436 1.75306
2195.92592 1.75246
2193.87748 1.75188
2191.82904 1.75234
2189.78060 1.75333
2187.73217 1.75364
2185.68373 1.75377
2183.63529 1.75336
2181.58685 1.75256
2179.53841 1.75288
2177.48997 1.75385
2175.44154 1.75400
2173.39310 1.75295
2171.34466 1.75118
2169.29622 1.74999
2167.24778 1.75020
2165.19934 1.75100
2163.15091 1.75097
2161.10247 1.75012
2159.05403 1.74948
2157.00559 1.74879
2154.95715 1.74783
2152.90871 1.74767
2150.86028 1.74802
2148.81184 1.74787
2146.76340 1.74777
2144.71496 1.74813
2142.66652 1.74798
2140.61808 1.74693
2138.56965 1.74615
2136.52121 1.74615
2134.47277 1.74615
2132.42433 1.74601
2130.37589 1.74654
2128.32745 1.74733
2126.27902 1.74689
2124.23058 1.74610
2122.18214 1.74606
2120.13370 1.74575
2118.08526 1.74545
2116.03682 1.74631
2113.98839 1.74722
2111.93995 1.74724
2109.89151 1.74725
2107.84307 1.74740
2105.79463 1.74706
2103.74619 1.74616
2101.69776 1.74528
2099.64932 1.74508
2097.60088 1.74500
2095.55244 1.74406
2093.50400 1.74292
2091.45556 1.74263
2089.40713 1.74246
2087.35869 1.74122
2085.31025 1.74005
2083.26181 1.74030
2081.21337 1.74127
2079.16493 1.74212
2077.11649 1.74254
2075.06806 1.74253
2073.01962 1.74252
2070.97118 1.74276
2068.92274 1.74323
2066.87430 1.74377
2064.82586 1.74424
2062.77743 1.74457
2060.72899 1.74495
2058.68055 1.74506
2056.63211 1.74432
2054.58367 1.74371
2052.53523 1.74424
2050.48680 1.74502
2048.43836 1.74510
2046.38992 1.74530
2044.34148 1.74562
2042.29304 1.74501
2040.24460 1.74481
2038.19617 1.74573
2036.14773 1.74599
2034.09929 1.74559
2032.05085 1.74541
2030.00241 1.74509
2027.95397 1.74513
2025.90554 1.74569
2023.85710 1.74565
2021.80866 1.74569
2019.76022 1.74659
2017.71178 1.74686
2015.66334 1.74585
2013.61491 1.74550
2011.56647 1.74655
2009.51803 1.74781
2007.46959 1.74832
2005.42115 1.74771
2003.37271 1.74687
2001.32428 1.74677
1999.27584 1.74712
1997.22740 1.74725
1995.17896 1.74773
1993.13052 1.74936
1991.08208 1.75029
1989.03365 1.74930
1986.98521 1.74815
1984.93677 1.74806
1982.88833 1.74882
1980.83989 1.74959
1978.79145 1.74970
1976.74302 1.74896
1974.69458 1.74824
1972.64614 1.74784
1970.59770 1.74786
1968.54926 1.74883
1966.50082 1.74965
1964.45239 1.74948
1962.40395 1.74930
1960.35551 1.74949
1958.30707 1.74986
1956.25863 1.75008
1954.21019 1.74968
1952.16176 1.74932
1950.11332 1.74994
1948.06488 1.75089
1946.01644 1.75195
1943.96800 1.75308
1941.91956 1.75273
1939.87112 1.75119
1937.82269 1.75063
1935.77425 1.75136
1933.72581 1.75185
1931.67737 1.75113
1929.62893 1.75064
1927.58049 1.75217
1925.53206 1.75462
1923.48362 1.75624
1921.43518 1.75683
1919.38674 1.75636
1917.33830 1.75480
1915.28986 1.75325
1913.24143 1.75305
1911.19299 1.75394
1909.14455 1.75402
1907.09611 1.75307
1905.04767 1.75250
1902.99923 1.75233
1900.95080 1.75236
1898.90236 1.75275
1896.85392 1.75358
1894.80548 1.75458
1892.75704 1.75544
1890.70860 1.75583
1888.66017 1.75491
1886.61173 1.75330
1884.56329 1.75254
1882.51485 1.75246
1880.46641 1.75223
1878.41797 1.75241
1876.36954 1.75306
1874.32110 1.75367
1872.27266 1.75526
1870.22422 1.75856
1868.17578 1.76136
1866.12734 1.75994
1864.07891 1.75662
1862.03047 1.75510
1859.98203 1.75523
1857.93359 1.75496
1855.88515 1.75431
1853.83671 1.75419
1851.78828 1.75463
1849.73984 1.75580
1847.69140 1.75808
1845.64296 1.76089
1843.59452 1.76204
1841.54608 1.76007
1839.49765 1.75722
1837.44921 1.75528
1835.40077 1.75453
1833.35233 1.75553
1831.30389 1.75874
1829.25545 1.76178
1827.20702 1.76216
1825.15858 1.76149
1823.11014 1.76036
1821.06170 1.75860
1819.01326 1.75731
1816.96482 1.75712
1814.91639 1.75770
1812.86795 1.75896
1810.81951 1.76008
1808.77107 1.75984
1806.72263 1.75903
1804.67419 1.75913
1802.62575 1.76058
1800.57732 1.76220
1798.52888 1.76257
1796.48044 1.76256
1794.43200 1.76319
1792.38356 1.76378
1790.33512 1.76231
1788.28669 1.75982
1786.23825 1.75863
1784.18981 1.75972
1782.14137 1.76172
1780.09293 1.76177
1778.04449 1.76019
1775.99606 1.76058
1773.94762 1.76420
1771.89918 1.76733
1769.85074 1.76569
1767.80230 1.76255
1765.75386 1.76088
1763.70543 1.76094
1761.65699 1.76139
1759.60855 1.76069
1757.56011 1.75917
1755.51167 1.75833
1753.46323 1.75903
1751.41480 1.76231
1749.36636 1.76731
1747.31792 1.76839
1745.26948 1.76599
1743.22104 1.76321
1741.17260 1.76119
1739.12417 1.76111
1737.07573 1.76237
1735.02729 1.76284
1732.97885 1.76221
1730.93041 1.76041
1728.88197 1.75739
1726.83354 1.75499
1724.78510 1.75441
1722.73666 1.75579
1720.68822 1.75918
1718.63978 1.76548
1716.59134 1.77030
1714.54291 1.76630
1712.49447 1.76077
1710.44603 1.75773
1708.39759 1.75722
1706.34915 1.75887
1704.30071 1.76211
1702.25228 1.76506
1700.20384 1.76798
1698.15540 1.76934
1696.10696 1.76553
1694.05852 1.76125
1692.01008 1.76033
1689.96165 1.76146
1687.91321 1.76371
1685.86477 1.76636
1683.81633 1.76879
1681.76789 1.76811
1679.71945 1.76522
1677.67102 1.76267
1675.62258 1.76325
1673.57414 1.76684
1671.52570 1.76948
1669.47726 1.76876
1667.42882 1.76535
1665.38038 1.76345
1663.33195 1.76345
1661.28351 1.76290
1659.23507 1.76200
1657.18663 1.76333
1655.13819 1.76690
1653.08975 1.76986
1651.04132 1.77028
1648.99288 1.77193
1646.94444 1.77184
1644.89600 1.76624
1642.84756 1.76224
1640.79912 1.76216
1638.75069 1.76398
1636.70225 1.76420
1634.65381 1.76133
1632.60537 1.75882
1630.55693 1.75748
1628.50849 1.75787
1626.46006 1.75995
1624.41162 1.76184
1622.36318 1.76170
1620.31474 1.76065
1618.26630 1.76087
1616.21786 1.76126
1614.16943 1.75924
1612.12099 1.75749
1610.07255 1.75768
1608.02411 1.75701
1605.97567 1.75475
1603.92723 1.75362
1601.87880 1.75308
1599.83036 1.75196
1597.78192 1.75145
1595.73348 1.75211
1593.68504 1.75297
1591.63660 1.75310
1589.58817 1.75229
1587.53973 1.75150
1585.49129 1.75180
1583.44285 1.75260
1581.39441 1.75338
1579.34597 1.75540
1577.29754 1.75899
1575.24910 1.75987
1573.20066 1.75745
1571.15222 1.75679
1569.10378 1.75782
1567.05534 1.75673
1565.00691 1.75540
1562.95847 1.75649
1560.91003 1.75909
1558.86159 1.76393
1556.81315 1.76633
1554.76471 1.76344
1552.71628 1.75986
1550.66784 1.75736
1548.61940 1.75576
1546.57096 1.75684
1544.52252 1.76195
1542.47408 1.76891
1540.42565 1.76903
1538.37721 1.76137
1536.32877 1.75786
1534.28033 1.75680
1532.23189 1.75560
1530.18345 1.75530
1528.13501 1.75811
1526.08658 1.76292
1524.03814 1.76518
1521.98970 1.76402
1519.94126 1.76167
1517.89282 1.75914
1515.84438 1.75613
1513.79595 1.75451
1511.74751 1.75572
1509.69907 1.75981
1507.65063 1.76402
1505.60219 1.76008
1503.55375 1.75484
1501.50532 1.75268
1499.45688 1.75347
1497.40844 1.75516
1495.36000 1.75387
1493.31156 1.75246
1491.26312 1.75381
1489.21469 1.75564
1487.16625 1.75301
1485.11781 1.74940
1483.06937 1.74801
1481.02093 1.74808
1478.97249 1.74813
1476.92406 1.74898
1474.87562 1.75237
1472.82718 1.75477
1470.77874 1.75097
1468.73030 1.74728
1466.68186 1.74674
1464.63343 1.74798
1462.58499 1.74889
1460.53655 1.75062
1458.48811 1.75462
1456.43967 1.75490
1454.39123 1.74924
1452.34280 1.74556
1450.29436 1.74473
1448.24592 1.74509
1446.19748 1.74457
1444.14904 1.74333
1442.10060 1.74247
1440.05217 1.74268
1438.00373 1.74399
1435.95529 1.74499
1433.90685 1.74445
1431.85841 1.74367
1429.80997 1.74311
1427.76154 1.74321
1425.71310 1.74486
1423.66466 1.74630
1421.61622 1.74559
1419.56778 1.74530
1417.51934 1.74650
1415.47091 1.74596
1413.42247 1.74414
1411.37403 1.74217
1409.32559 1.74086
1407.27715 1.74189
1405.22871 1.74420
1403.18028 1.74410
1401.13184 1.74252
1399.08340 1.74193
1397.03496 1.74169
1394.98652 1.73987
1392.93808 1.73633
1390.88965 1.73414
1388.84121 1.73472
1386.79277 1.73553
1384.74433 1.73482
1382.69589 1.73429
1380.64745 1.73433
1378.59901 1.73493
1376.55058 1.73686
1374.50214 1.73913
1372.45370 1.73938
1370.40526 1.73855
1368.35682 1.73774
1366.30838 1.73751
1364.25995 1.73911
1362.21151 1.74094
1360.16307 1.73993
1358.11463 1.73829
1356.06619 1.73826
1354.01775 1.73869
1351.96932 1.73807
1349.92088 1.73686
1347.87244 1.73662
1345.82400 1.73744
1343.77556 1.73830
1341.72712 1.73985
1339.67869 1.74253
1337.63025 1.74347
1335.58181 1.74128
1333.53337 1.73846
1331.48493 1.73734
1329.43649 1.73769
1327.38806 1.73804
1325.33962 1.73825
1323.29118 1.73864
1321.24274 1.73951
1319.19430 1.74066
1317.14586 1.74135
1315.09743 1.74101
1313.04899 1.73947
1311.00055 1.73798
1308.95211 1.73798
1306.90367 1.73873
1304.85523 1.73880
1302.80680 1.73842
1300.75836 1.73810
1298.70992 1.73804
1296.66148 1.73796
1294.61304 1.73737
1292.56460 1.73724
1290.51617 1.73803
1288.46773 1.73917
1286.41929 1.74036
1284.37085 1.74107
1282.32241 1.74074
1280.27397 1.73973
1278.22554 1.73913
1276.17710 1.73970
1274.12866 1.74142
1272.08022 1.74365
1270.03178 1.74526
1267.98334 1.74528
1265.93491 1.74450
1263.88647 1.74456
1261.83803 1.74559
1259.78959 1.74669
1257.74115 1.74677
1255.69271 1.74581
1253.64428 1.74575
1251.59584 1.74696
1249.54740 1.74763
1247.49896 1.74742
1245.45052 1.74711
1243.40208 1.74712
1241.35364 1.74758
1239.30521 1.74793
1237.25677 1.74741
1235.20833 1.74702
1233.15989 1.74766
1231.11145 1.74845
1229.06301 1.74916
1227.01458 1.74976
1224.96614 1.74994
1222.91770 1.75008
1220.86926 1.74974
1218.82082 1.74909
1216.77238 1.74986
1214.72395 1.75176
1212.67551 1.75293
1210.62707 1.75281
1208.57863 1.75216
1206.53019 1.75168
1204.48175 1.75191
1202.43332 1.75257
1200.38488 1.75274
1198.33644 1.75243
1196.28800 1.75260
1194.23956 1.75371
1192.19112 1.75487
1190.14269 1.75554
1188.09425 1.75599
1186.04581 1.75583
1183.99737 1.75529
1181.94893 1.75578
1179.90049 1.75686
1177.85206 1.75679
1175.80362 1.75602
1173.75518 1.75604
1171.70674 1.75695
1169.65830 1.75790
1167.60986 1.75838
1165.56143 1.75903
1163.51299 1.76074
1161.46455 1.76257
1159.41611 1.76364
1157.36767 1.76446
1155.31923 1.76491
1153.27080 1.76559
1151.22236 1.76727
1149.17392 1.76831
1147.12548 1.76817
1145.07704 1.76829
1143.02860 1.76849
1140.98017 1.76826
1138.93173 1.76787
1136.88329 1.76763
1134.83485 1.76774
1132.78641 1.76783
1130.73797 1.76764
1128.68954 1.76769
1126.64110 1.76848
1124.59266 1.77004
1122.54422 1.77257
1120.49578 1.77484
1118.44734 1.77598
1116.39891 1.77750
1114.35047 1.77910
1112.30203 1.77914
1110.25359 1.77826
1108.20515 1.77814
1106.15671 1.77879
1104.10827 1.77955
1102.05984 1.78051
1100.01140 1.78121
1097.96296 1.78115
1095.91452 1.78135
1093.86608 1.78231
1091.81764 1.78278
1089.76921 1.78228
1087.72077 1.78165
1085.67233 1.78187
1083.62389 1.78334
1081.57545 1.78458
1079.52701 1.78461
1077.47858 1.78468
1075.43014 1.78467
1073.38170 1.78415
1071.33326 1.78432
1069.28482 1.78582
1067.23638 1.78763
1065.18795 1.78887
1063.13951 1.79003
1061.09107 1.79033
1059.04263 1.78980
1056.99419 1.79071
1054.94575 1.79236
1052.89732 1.79297
1050.84888 1.79355
1048.80044 1.79481
1046.75200 1.79494
1044.70356 1.79354
1042.65512 1.79239
1040.60669 1.79208
1038.55825 1.79232
1036.50981 1.79272
1034.46137 1.79343
1032.41293 1.79474
1030.36449 1.79634
1028.31606 1.79852
1026.26762 1.80067
1024.21918 1.80190
1022.17074 1.80271
1020.12230 1.80323
1018.07386 1.80313
1016.02543 1.80232
1013.97699 1.80112
1011.92855 1.80043
1009.88011 1.80039
1007.83167 1.80054
1005.78323 1.80109
1003.73480 1.80249
1001.68636 1.80516
999.63792 1.80811
997.58948 1.80974
995.54104 1.80947
993.49260 1.80803
991.44417 1.80717
989.39573 1.80706
987.34729 1.80725
985.29885 1.80758
983.25041 1.80755
981.20197 1.80727
979.15354 1.80713
977.10510 1.80795
975.05666 1.80949
973.00822 1.81014
970.95978 1.80965
968.91134 1.80923
966.86290 1.80924
964.81447 1.80911
962.76603 1.80900
960.71759 1.80946
958.66915 1.81048
956.62071 1.81176
954.57227 1.81233
952.52384 1.81172
950.47540 1.81066
948.42696 1.80986
946.37852 1.81014
944.33008 1.81127
942.28164 1.81201
940.23321 1.81165
938.18477 1.81118
936.13633 1.81184
934.08789 1.81230
932.03945 1.81216
929.99101 1.81253
927.94258 1.81285
925.89414 1.81287
923.84570 1.81225
921.79726 1.81006
919.74882 1.80852
917.70038 1.80882
915.65195 1.80899
913.60351 1.80901
911.55507 1.80926
909.50663 1.80935
907.45819 1.80968
905.40975 1.81087
903.36132 1.81214
901.31288 1.81092
899.26444 1.80758
897.21600 1.80596
895.16756 1.80728
893.11912 1.80866
891.07069 1.80809
889.02225 1.80671
886.97381 1.80633
884.92537 1.80696
882.87693 1.80710
880.82849 1.80690
878.78006 1.80718
876.73162 1.80752
874.68318 1.80814
872.63474 1.81016
870.58630 1.81211
868.53786 1.81120
866.48943 1.80866
864.44099 1.80797
862.39255 1.81029
860.34411 1.81227
858.29567 1.81142
856.24723 1.81072
854.19880 1.81091
852.15036 1.80975
850.10192 1.80838
848.05348 1.80795
846.00504 1.80816
843.95660 1.81019
841.90817 1.81303
839.85973 1.81409
837.81129 1.81278
835.76285 1.81009
833.71441 1.80931
831.66597 1.81125
829.61753 1.81247
827.56910 1.81161
825.52066 1.81058
823.47222 1.80937
821.42378 1.80706
819.37534 1.80674
817.32690 1.80800
815.27847 1.80711
813.23003 1.80523
811.18159 1.80421
809.13315 1.80450
807.08471 1.80495
805.03627 1.80354
802.98784 1.80121
800.93940 1.80039
798.89096 1.80010
796.84252 1.79704
794.79408 1.79361
792.74564 1.79421
790.69721 1.79635
788.64877 1.79665
786.60033 1.79591
784.55189 1.79499
782.50345 1.79401
780.45501 1.79440
778.40658 1.79710
776.35814 1.80021
774.30970 1.80161
772.26126 1.80097
770.21282 1.79962
768.16438 1.79928
766.11595 1.80019
764.06751 1.80197
762.01907 1.80180
759.97063 1.79711
757.92219 1.79272
755.87375 1.79372
753.82532 1.79607
751.77688 1.79514
749.72844 1.79512
747.68000 1.79731
745.63156 1.79665
743.58312 1.79368
741.53469 1.79179
739.48625 1.79002
737.43781 1.78792
735.38937 1.78762
733.34093 1.78869
731.29249 1.79059
729.24406 1.79219
727.19562 1.79117
725.14718 1.78950
723.09874 1.78927
721.05030 1.78981
719.00186 1.78977
716.95343 1.78830
714.90499 1.78576
712.85655 1.78501
710.80811 1.78567
708.75967 1.78475
706.71123 1.78425
704.66280 1.78312
702.61436 1.77954
700.56592 1.77564
698.51748 1.77352
696.46904 1.77566
694.42060 1.77793
692.37216 1.77219
690.32373 1.76273
688.27529 1.75882
686.22685 1.75848
684.17841 1.75928
682.12997 1.76207
680.08153 1.75950
678.03310 1.75153
675.98466 1.75115
673.93622 1.75880
671.88778 1.76228
669.83934 1.76123
667.79090 1.76131
665.74247 1.75870
663.69403 1.75514
661.64559 1.74903
659.59715 1.74005
657.54871 1.73736
655.50027 1.74394
653.45184 1.74971
651.40340 1.74557
649.35496 1.73618
647.30652 1.72940
645.25808 1.73231
643.20964 1.74023
641.16121 1.73936
639.11277 1.72982
637.06433 1.71997
635.01589 1.71124
632.96745 1.70754
630.91901 1.71166
628.87058 1.70526
626.82214 1.68190
624.77370 1.66685
622.72526 1.67897
620.67682 1.69923
618.62838 1.69114
616.57995 1.66742
614.53151 1.66398
612.48307 1.67276
610.43463 1.67510
608.38619 1.67530
606.33775 1.66265
604.28932 1.64000
602.24088 1.63487
600.19244 1.64191
598.14400 1.64168
