3996.50324 1.71410
3994.45480 1.71445
3992.40636 1.71413
3990.35792 1.71400
3988.30948 1.71424
3986.26104 1.71477
3984.21261 1.71555
3982.16417 1.71595
3980.11573 1.71538
3978.06729 1.71468
3976.01885 1.71474
3973.97041 1.71462
3971.92198 1.71374
3969.87354 1.71275
3967.82510 1.71322
3965.77666 1.71542
3963.72822 1.71743
3961.67978 1.71807
3959.63135 1.71749
3957.58291 1.71654
3955.53447 1.71566
3953.48603 1.71461
3951.43759 1.71380
3949.38915 1.71368
3947.34072 1.71352
3945.29228 1.71413
3943.24384 1.71511
3941.19540 1.71407
3939.14696 1.71308
3937.09852 1.71374
3935.05009 1.71377
3933.00165 1.71344
3930.95321 1.71477
3928.90477 1.71611
3926.85633 1.71695
3924.80789 1.71754
3922.75946 1.71691
3920.71102 1.71596
3918.66258 1.71518
3916.61414 1.71376
3914.56570 1.71311
3912.51726 1.71342
3910.46883 1.71342
3908.42039 1.71507
3906.37195 1.71827
3904.32351 1.71950
3902.27507 1.71775
3900.22663 1.71545
3898.17820 1.71489
3896.12976 1.71524
3894.08132 1.71522
3892.03288 1.71523
3889.98444 1.71667
3887.93600 1.71888
3885.88756 1.72026
3883.83913 1.72087
3881.79069 1.71894
3879.74225 1.71627
3877.69381 1.71841
3875.64537 1.72096
3873.59693 1.72068
3871.54850 1.71994
3869.50006 1.71905
3867.45162 1.71991
3865.40318 1.72204
3863.35474 1.72136
3861.30630 1.71910
3859.25787 1.71898
3857.20943 1.72097
3855.16099 1.72205
3853.11255 1.71922
3851.06411 1.71728
3849.01567 1.71644
3846.96724 1.71594
3844.91880 1.71648
3842.87036 1.71838
3840.82192 1.72187
3838.77348 1.72353
3836.72504 1.71889
3834.67661 1.71360
3832.62817 1.71239
3830.57973 1.71350
3828.53129 1.71485
3826.48285 1.71667
3824.43441 1.71977
3822.38598 1.72209
3820.33754 1.72052
3818.28910 1.71785
3816.24066 1.71494
3814.19222 1.71301
3812.14378 1.71344
3810.09535 1.71466
3808.04691 1.71481
3805.99847 1.71486
3803.95003 1.71604
3801.90159 1.71590
3799.85315 1.71689
3797.80472 1.71806
3795.75628 1.71725
3793.70784 1.71622
3791.65940 1.71497
3789.61096 1.71489
3787.56252 1.71655
3785.51409 1.71663
3783.46565 1.71467
3781.41721 1.71325
3779.36877 1.71288
3777.32033 1.71291
3775.27189 1.71264
3773.22346 1.71336
3771.17502 1.71508
3769.12658 1.71644
3767.07814 1.71712
3765.02970 1.71636
3762.98126 1.71517
3760.93283 1.71460
3758.88439 1.71454
3756.83595 1.71520
3754.78751 1.71578
3752.73907 1.71589
3750.69063 1.71679
3748.64219 1.71977
3746.59376 1.72072
3744.54532 1.71610
3742.49688 1.71346
3740.44844 1.71550
3738.40000 1.71778
3736.35156 1.72003
3734.30313 1.72036
3732.25469 1.71774
3730.20625 1.71564
3728.15781 1.71487
3726.10937 1.71494
3724.06093 1.71493
3722.01250 1.71395
3719.96406 1.71300
3717.91562 1.71349
3715.86718 1.71514
3713.81874 1.71650
3711.77030 1.71620
3709.72187 1.71547
3707.67343 1.71526
3705.62499 1.71575
3703.57655 1.71680
3701.52811 1.71739
3699.47967 1.71786
3697.43124 1.71836
3695.38280 1.71900
3693.33436 1.72006
3691.28592 1.71980
3689.23748 1.71777
3687.18904 1.71687
3685.14061 1.71559
3683.09217 1.71432
3681.04373 1.71530
3678.99529 1.71788
3676.94685 1.71845
3674.89841 1.71579
3672.84998 1.71445
3670.80154 1.71236
3668.75310 1.71188
3666.70466 1.71563
3664.65622 1.71776
3662.60778 1.71611
3660.55935 1.71343
3658.51091 1.71247
3656.46247 1.71391
3654.41403 1.71801
3652.36559 1.72230
3650.31715 1.72350
3648.26872 1.72029
3646.22028 1.71790
3644.17184 1.71694
3642.12340 1.71681
3640.07496 1.71650
3638.02652 1.71564
3635.97809 1.71563
3633.92965 1.71713
3631.88121 1.71928
3629.83277 1.71856
3627.78433 1.71509
3625.73589 1.71561
3623.68746 1.71828
3621.63902 1.72050
3619.59058 1.72044
3617.54214 1.71981
3615.49370 1.72067
3613.44526 1.72216
3611.39682 1.72299
3609.34839 1.72116
3607.29995 1.71849
3605.25151 1.71873
3603.20307 1.72101
3601.15463 1.72238
3599.10619 1.72120
3597.05776 1.72040
3595.00932 1.72165
3592.96088 1.72193
3590.91244 1.72180
3588.86400 1.72327
3586.81556 1.72352
3584.76713 1.72142
3582.71869 1.72005
3580.67025 1.71964
3578.62181 1.71953
3576.57337 1.71962
3574.52493 1.71971
3572.47650 1.72004
3570.42806 1.72093
3568.37962 1.72162
3566.33118 1.72237
3564.28274 1.72392
3562.23430 1.72430
3560.18587 1.72247
3558.13743 1.72031
3556.08899 1.72050
3554.04055 1.72137
3551.99211 1.72072
3549.94367 1.72115
3547.89524 1.72252
3545.84680 1.72210
3543.79836 1.72101
3541.74992 1.72148
3539.70148 1.72295
3537.65304 1.72310
3535.60461 1.72187
3533.55617 1.72160
3531.50773 1.72271
3529.45929 1.72369
3527.41085 1.72384
3525.36241 1.72508
3523.31398 1.72705
3521.26554 1.72616
3519.21710 1.72304
3517.16866 1.72108
3515.12022 1.72067
3513.07178 1.72090
3511.02335 1.72163
3508.97491 1.72195
3506.92647 1.72281
3504.87803 1.72483
3502.82959 1.72504
3500.78115 1.72394
3498.73272 1.72407
3496.68428 1.72434
3494.63584 1.72429
3492.58740 1.72461
3490.53896 1.72462
3488.49052 1.72327
3486.44209 1.72218
3484.39365 1.72321
3482.34521 1.72475
3480.29677 1.72536
3478.24833 1.72592
3476.19989 1.72628
3474.15146 1.72531
3472.10302 1.72420
3470.05458 1.72490
3468.00614 1.72587
3465.95770 1.72492
3463.90926 1.72336
3461.86082 1.72293
3459.81239 1.72409
3457.76395 1.72627
3455.71551 1.72689
3453.66707 1.72514
3451.61863 1.72372
3449.57019 1.72439
3447.52176 1.72584
3445.47332 1.72620
3443.42488 1.72576
3441.37644 1.72500
3439.32800 1.72356
3437.27956 1.72263
3435.23113 1.72348
3433.18269 1.72532
3431.13425 1.72710
3429.08581 1.72716
3427.03737 1.72539
3424.98893 1.72440
3422.94050 1.72420
3420.89206 1.72394
3418.84362 1.72394
3416.79518 1.72280
3414.74674 1.72105
3412.69830 1.72156
3410.64987 1.72388
3408.60143 1.72497
3406.55299 1.72397
3404.50455 1.72304
3402.45611 1.72404
3400.40767 1.72534
3398.35924 1.72592
3396.31080 1.72703
3394.26236 1.72783
3392.21392 1.72687
3390.16548 1.72511
3388.11704 1.72431
3386.06861 1.72425
3384.02017 1.72410
3381.97173 1.72460
3379.92329 1.72544
3377.87485 1.72568
3375.82641 1.72558
3373.77798 1.72553
3371.72954 1.72606
3369.68110 1.72624
3367.63266 1.72528
3365.58422 1.72457
3363.53578 1.72460
3361.48735 1.72576
3359.43891 1.72764
3357.39047 1.72809
3355.34203 1.72737
3353.29359 1.72643
3351.24515 1.72505
3349.19672 1.72478
3347.14828 1.72624
3345.09984 1.72656
3343.05140 1.72476
3341.00296 1.72356
3338.95452 1.72449
3336.90609 1.72589
3334.85765 1.72589
3332.80921 1.72498
3330.76077 1.72460
3328.71233 1.72534
3326.66389 1.72630
3324.61545 1.72601
3322.56702 1.72574
3320.51858 1.72672
3318.47014 1.72685
3316.42170 1.72550
3314.37326 1.72477
3312.32482 1.72496
3310.27639 1.72537
3308.22795 1.72540
3306.17951 1.72454
3304.13107 1.72417
3302.08263 1.72544
3300.03419 1.72691
3297.98576 1.72712
3295.93732 1.72677
3293.88888 1.72738
3291.84044 1.72877
3289.79200 1.72959
3287.74356 1.72933
3285.69513 1.72810
3283.64669 1.72708
3281.59825 1.72717
3279.54981 1.72737
3277.50137 1.72752
3275.45293 1.72811
3273.40450 1.72895
3271.35606 1.73010
3269.30762 1.73012
3267.25918 1.72825
3265.21074 1.72664
3263.16230 1.72623
3261.11387 1.72624
3259.06543 1.72644
3257.01699 1.72695
3254.96855 1.72764
3252.92011 1.72852
3250.87167 1.72900
3248.82324 1.72860
3246.77480 1.72789
3244.72636 1.72761
3242.67792 1.72861
3240.62948 1.72982
3238.58104 1.72980
3236.53261 1.72889
3234.48417 1.72752
3232.43573 1.72644
3230.38729 1.72620
3228.33885 1.72673
3226.29041 1.72722
3224.24198 1.72691
3222.19354 1.72676
3220.14510 1.72761
3218.09666 1.72864
3216.04822 1.72943
3213.99978 1.72980
3211.95135 1.72927
3209.90291 1.72855
3207.85447 1.72795
3205.80603 1.72688
3203.75759 1.72629
3201.70915 1.72669
3199.66072 1.72685
3197.61228 1.72686
3195.56384 1.72756
3193.51540 1.72810
3191.46696 1.72761
3189.41852 1.72725
3187.37008 1.72814
3185.32165 1.72903
3183.27321 1.72879
3181.22477 1.72745
3179.17633 1.72564
3177.12789 1.72508
3175.07945 1.72579
3173.03102 1.72632
3170.98258 1.72677
3168.93414 1.72688
3166.88570 1.72655
3164.83726 1.72698
3162.78882 1.72771
3160.74039 1.72822
3158.69195 1.72897
3156.64351 1.72944
3154.59507 1.72920
3152.54663 1.72836
3150.49819 1.72730
3148.44976 1.72661
3146.40132 1.72688
3144.35288 1.72800
3142.30444 1.72869
3140.25600 1.72836
3138.20756 1.72804
3136.15913 1.72795
3134.11069 1.72737
3132.06225 1.72695
3130.01381 1.72786
3127.96537 1.72894
3125.91693 1.72854
3123.86850 1.72710
3121.82006 1.72565
3119.77162 1.72517
3117.72318 1.72506
3115.67474 1.72416
3113.62630 1.72375
3111.57787 1.72482
3109.52943 1.72631
3107.48099 1.72675
3105.43255 1.72637
3103.38411 1.72616
3101.33567 1.72561
3099.28724 1.72477
3097.23880 1.72454
3095.19036 1.72520
3093.14192 1.72581
3091.09348 1.72475
3089.04504 1.72292
3086.99661 1.72273
3084.94817 1.72381
3082.89973 1.72451
3080.85129 1.72483
3078.80285 1.72508
3076.75441 1.72502
3074.70598 1.72454
3072.65754 1.72383
3070.60910 1.72306
3068.56066 1.72283
3066.51222 1.72371
3064.46378 1.72489
3062.41535 1.72544
3060.36691 1.72507
3058.31847 1.72425
3056.27003 1.72411
3054.22159 1.72420
3052.17315 1.72328
3050.12471 1.72227
3048.07628 1.72237
3046.02784 1.72254
3043.97940 1.72239
3041.93096 1.72251
3039.88252 1.72278
3037.83408 1.72305
3035.78565 1.72306
3033.73721 1.72298
3031.68877 1.72252
3029.64033 1.72133
3027.59189 1.72020
3025.54345 1.71964
3023.49502 1.72010
3021.44658 1.72169
3019.39814 1.72314
3017.34970 1.72331
3015.30126 1.72248
3013.25282 1.72152
3011.20439 1.72148
3009.15595 1.72258
3007.10751 1.72323
3005.05907 1.72248
3003.01063 1.72144
3000.96219 1.72168
2998.91376 1.72288
2996.86532 1.72376
2994.81688 1.72386
2992.76844 1.72329
2990.72000 1.72267
2988.67156 1.72201
2986.62313 1.72087
2984.57469 1.72011
2982.52625 1.72074
2980.47781 1.72230
2978.42937 1.72377
2976.38093 1.72438
2974.33250 1.72415
2972.28406 1.72379
2970.23562 1.72339
2968.18718 1.72277
2966.13874 1.72239
2964.09030 1.72223
2962.04187 1.72207
2959.99343 1.72224
2957.94499 1.72220
2955.89655 1.72122
2953.84811 1.72048
2951.79967 1.72084
2949.75124 1.72077
2947.70280 1.71958
2945.65436 1.71886
2943.60592 1.71914
2941.55748 1.71956
2939.50904 1.71996
2937.46061 1.72025
2935.41217 1.72063
2933.36373 1.72143
2931.31529 1.72202
2929.26685 1.72205
2927.21841 1.72189
2925.16998 1.72226
2923.12154 1.72296
2921.07310 1.72276
2919.02466 1.72214
2916.97622 1.72185
2914.92778 1.72139
2912.87934 1.72135
2910.83091 1.72198
2908.78247 1.72251
2906.73403 1.72297
2904.68559 1.72305
2902.63715 1.72264
2900.58871 1.72250
2898.54028 1.72251
2896.49184 1.72172
2894.44340 1.72064
2892.39496 1.72101
2890.34652 1.72267
2888.29808 1.72368
2886.24965 1.72343
2884.20121 1.72260
2882.15277 1.72113
2880.10433 1.71961
2878.05589 1.71939
2876.00745 1.72048
2873.95902 1.72182
2871.91058 1.72211
2869.86214 1.72119
2867.81370 1.72050
2865.76526 1.72061
2863.71682 1.72044
2861.66839 1.71964
2859.61995 1.71974
2857.57151 1.72104
2855.52307 1.72196
2853.47463 1.72215
2851.42619 1.72221
2849.37776 1.72194
2847.32932 1.72104
2845.28088 1.72041
2843.23244 1.72077
2841.18400 1.72118
2839.13556 1.72074
2837.08713 1.72048
2835.03869 1.72110
2832.99025 1.72137
2830.94181 1.72121
2828.89337 1.72163
2826.84493 1.72207
2824.79650 1.72211
2822.74806 1.72214
2820.69962 1.72203
2818.65118 1.72161
2816.60274 1.72126
2814.55430 1.72128
2812.50587 1.72119
2810.45743 1.72060
2808.40899 1.72021
2806.36055 1.72026
2804.31211 1.71989
2802.26367 1.71923
2800.21524 1.71903
2798.16680 1.71938
2796.11836 1.71978
2794.06992 1.71995
2792.02148 1.72012
2789.97304 1.72002
2787.92461 1.72015
2785.87617 1.72120
2783.82773 1.72163
2781.77929 1.72053
2779.73085 1.71909
2777.68241 1.71761
2775.63397 1.71664
2773.58554 1.71765
2771.53710 1.71955
2769.48866 1.72042
2767.44022 1.72014
2765.39178 1.71975
2763.34334 1.71984
2761.29491 1.72047
2759.24647 1.72126
2757.19803 1.72091
2755.14959 1.71984
2753.10115 1.71951
2751.05271 1.71950
2749.00428 1.71909
2746.95584 1.71894
2744.90740 1.71947
2742.85896 1.71999
2740.81052 1.72013
2738.76208 1.72028
2736.71365 1.72024
2734.66521 1.71972
2732.61677 1.71915
2730.56833 1.71804
2728.51989 1.71721
2726.47145 1.71825
2724.42302 1.71964
2722.37458 1.71975
2720.32614 1.71953
2718.27770 1.72008
2716.22926 1.72078
2714.18082 1.72051
2712.13239 1.71947
2710.08395 1.71878
2708.03551 1.71861
2705.98707 1.71822
2703.93863 1.71745
2701.89019 1.71712
2699.84176 1.71778
2697.79332 1.71882
2695.74488 1.71935
2693.69644 1.71922
2691.64800 1.71943
2689.59956 1.72020
2687.55113 1.71994
2685.50269 1.71874
2683.45425 1.71821
2681.40581 1.71764
2679.35737 1.71711
2677.30893 1.71846
2675.26050 1.72075
2673.21206 1.72125
2671.16362 1.71948
2669.11518 1.71748
2667.06674 1.71688
2665.01830 1.71741
2662.96987 1.71763
2660.92143 1.71747
2658.87299 1.71803
2656.82455 1.71883
2654.77611 1.71825
2652.72767 1.71677
2650.67924 1.71634
2648.63080 1.71651
2646.58236 1.71605
2644.53392 1.71531
2642.48548 1.71484
2640.43704 1.71523
2638.38860 1.71640
2636.34017 1.71727
2634.29173 1.71794
2632.24329 1.71871
2630.19485 1.71847
2628.14641 1.71785
2626.09797 1.71867
2624.04954 1.71966
2622.00110 1.71896
2619.95266 1.71768
2617.90422 1.71704
2615.85578 1.71702
2613.80734 1.71729
2611.75891 1.71735
2609.71047 1.71771
2607.66203 1.71813
2605.61359 1.71810
2603.56515 1.71801
2601.51671 1.71760
2599.46828 1.71728
2597.41984 1.71712
2595.37140 1.71648
2593.32296 1.71597
2591.27452 1.71571
2589.22608 1.71546
2587.17765 1.71605
2585.12921 1.71738
2583.08077 1.71807
2581.03233 1.71774
2578.98389 1.71709
2576.93545 1.71639
2574.88702 1.71594
2572.83858 1.71594
2570.79014 1.71575
2568.74170 1.71526
2566.69326 1.71515
2564.64482 1.71571
2562.59639 1.71634
2560.54795 1.71623
2558.49951 1.71579
2556.45107 1.71556
2554.40263 1.71568
2552.35419 1.71565
2550.30576 1.71506
2548.25732 1.71496
2546.20888 1.71541
2544.16044 1.71543
2542.11200 1.71519
2540.06356 1.71543
2538.01513 1.71557
2535.96669 1.71520
2533.91825 1.71532
2531.86981 1.71577
2529.82137 1.71565
2527.77293 1.71481
2525.72450 1.71424
2523.67606 1.71501
2521.62762 1.71609
2519.57918 1.71637
2517.53074 1.71631
2515.48230 1.71615
2513.43387 1.71564
2511.38543 1.71490
2509.33699 1.71403
2507.28855 1.71331
2505.24011 1.71358
2503.19167 1.71457
2501.14324 1.71477
2499.09480 1.71367
2497.04636 1.71236
2494.99792 1.71177
2492.94948 1.71159
2490.90104 1.71165
2488.85260 1.71240
2486.80417 1.71332
2484.75573 1.71307
2482.70729 1.71175
2480.65885 1.71132
2478.61041 1.71250
2476.56197 1.71349
2474.51354 1.71299
2472.46510 1.71255
2470.41666 1.71310
2468.36822 1.71335
2466.31978 1.71352
2464.27134 1.71450
2462.22291 1.71515
2460.17447 1.71447
2458.12603 1.71366
2456.07759 1.71304
2454.02915 1.71229
2451.98071 1.71212
2449.93228 1.71240
2447.88384 1.71267
2445.83540 1.71241
2443.78696 1.71154
2441.73852 1.71119
2439.69008 1.71147
2437.64165 1.71156
2435.59321 1.71108
2433.54477 1.71026
2431.49633 1.70973
2429.44789 1.70926
2427.39945 1.70889
2425.35102 1.70887
2423.30258 1.70875
2421.25414 1.70909
2419.20570 1.70974
2417.15726 1.70955
2415.10882 1.70887
2413.06039 1.70865
2411.01195 1.70896
2408.96351 1.70892
2406.91507 1.70836
2404.86663 1.70838
2402.81819 1.70905
2400.76976 1.70951
2398.72132 1.70978
2396.67288 1.71016
2394.62444 1.71047
2392.57600 1.71035
2390.52756 1.71011
2388.47913 1.71016
2386.43069 1.71034
2384.38225 1.71038
2382.33381 1.71016
2380.28537 1.71003
2378.23693 1.70967
2376.18850 1.70776
2374.14006 1.70391
2372.09162 1.70127
2370.04318 1.70133
2367.99474 1.69970
2365.94630 1.69583
2363.89787 1.69409
2361.84943 1.69575
2359.80099 1.69819
2357.75255 1.69770
2355.70411 1.69597
2353.65567 1.69727
2351.60723 1.70058
2349.55880 1.70283
2347.51036 1.70279
2345.46192 1.70106
2343.41348 1.69909
2341.36504 1.69680
2339.31660 1.69530
2337.26817 1.69638
2335.21973 1.69785
2333.17129 1.69771
2331.12285 1.69832
2329.07441 1.70075
2327.02597 1.70275
2324.97754 1.70284
2322.92910 1.70195
2320.88066 1.70201
2318.83222 1.70310
2316.78378 1.70477
2314.73534 1.70647
2312.68691 1.70728
2310.63847 1.70723
2308.59003 1.70692
2306.54159 1.70703
2304.49315 1.70760
2302.44471 1.70761
2300.39628 1.70704
2298.34784 1.70651
2296.29940 1.70580
2294.25096 1.70499
2292.20252 1.70487
2290.15408 1.70540
2288.10565 1.70566
2286.05721 1.70550
2284.00877 1.70493
2281.96033 1.70420
2279.91189 1.70403
2277.86345 1.70427
2275.81502 1.70411
2273.76658 1.70377
2271.71814 1.70410
2269.66970 1.70456
2267.62126 1.70445
2265.57282 1.70415
2263.52439 1.70398
2261.47595 1.70371
2259.42751 1.70372
2257.37907 1.70448
2255.33063 1.70536
2253.28219 1.70614
2251.23376 1.70670
2249.18532 1.70632
2247.13688 1.70519
2245.08844 1.70441
2243.04000 1.70395
2240.99156 1.70333
2238.94313 1.70337
2236.89469 1.70396
2234.84625 1.70431
2232.79781 1.70446
2230.74937 1.70374
2228.70093 1.70252
2226.65250 1.70195
2224.60406 1.70196
2222.55562 1.70231
2220.50718 1.70241
2218.45874 1.70166
2216.41030 1.70077
2214.36186 1.70057
2212.31343 1.70040
2210.26499 1.69965
2208.21655 1.69910
2206.16811 1.69931
2204.11967 1.69984
2202.07123 1.70003
2200.02280 1.70008
2197.97436 1.70028
2195.92592 1.70008
2193.87748 1.69983
2191.82904 1.70007
2189.78060 1.70006
2187.73217 1.70009
2185.68373 1.70041
2183.63529 1.70018
2181.58685 1.69968
2179.53841 1.69945
2177.48997 1.69963
2175.44154 1.70016
2173.39310 1.70042
2171.34466 1.70030
2169.29622 1.70008
2167.24778 1.69954
2165.19934 1.69935
2163.15091 1.69991
2161.10247 1.69988
2159.05403 1.69898
2157.00559 1.69801
2154.95715 1.69754
2152.90871 1.69796
2150.86028 1.69816
2148.81184 1.69692
2146.76340 1.69534
2144.71496 1.69481
2142.66652 1.69493
2140.61808 1.69508
2138.56965 1.69536
2136.52121 1.69611
2134.47277 1.69697
2132.42433 1.69691
2130.37589 1.69599
2128.32745 1.69562
2126.27902 1.69615
2124.23058 1.69602
2122.18214 1.69480
2120.13370 1.69417
2118.08526 1.69476
2116.03682 1.69584
2113.98839 1.69619
2111.93995 1.69497
2109.89151 1.69386
2107.84307 1.69422
2105.79463 1.69448
2103.74619 1.69395
2101.69776 1.69429
2099.64932 1.69583
2097.60088 1.69692
2095.55244 1.69685
2093.50400 1.69627
2091.45556 1.69556
2089.40713 1.69478
2087.35869 1.69406
2085.31025 1.69375
2083.26181 1.69421
2081.21337 1.69443
2079.16493 1.69373
2077.11649 1.69303
2075.06806 1.69233
2073.01962 1.69201
2070.97118 1.69297
2068.92274 1.69410
2066.87430 1.69401
2064.82586 1.69306
2062.77743 1.69257
2060.72899 1.69298
2058.68055 1.69322
2056.63211 1.69323
2054.58367 1.69385
2052.53523 1.69421
2050.48680 1.69333
2048.43836 1.69246
2046.38992 1.69310
2044.34148 1.69439
2042.29304 1.69446
2040.24460 1.69332
2038.19617 1.69255
2036.14773 1.69255
2034.09929 1.69213
2032.05085 1.69141
2030.00241 1.69131
2027.95397 1.69160
2025.90554 1.69212
2023.85710 1.69263
2021.80866 1.69279
2019.76022 1.69300
2017.71178 1.69296
2015.66334 1.69241
2013.61491 1.69211
2011.56647 1.69193
2009.51803 1.69175
2007.46959 1.69148
2005.42115 1.69089
2003.37271 1.69067
2001.32428 1.69129
1999.27584 1.69185
1997.22740 1.69187
1995.17896 1.69266
1993.13052 1.69357
1991.08208 1.69237
1989.03365 1.69069
1986.98521 1.69036
1984.93677 1.69072
1982.88833 1.69104
1980.83989 1.69106
1978.79145 1.69129
1976.74302 1.69172
1974.69458 1.69144
1972.64614 1.69105
1970.59770 1.69129
1968.54926 1.69117
1966.50082 1.69054
1964.45239 1.68992
1962.40395 1.68951
1960.35551 1.68993
1958.30707 1.69036
1956.25863 1.68998
1954.21019 1.68982
1952.16176 1.68963
1950.11332 1.68878
1948.06488 1.68836
1946.01644 1.68904
1943.96800 1.68998
1941.91956 1.68982
1939.87112 1.68916
1937.82269 1.68905
1935.77425 1.68903
1933.72581 1.68898
1931.67737 1.68877
1929.62893 1.68868
1927.58049 1.68878
1925.53206 1.68856
1923.48362 1.68829
1921.43518 1.68811
1919.38674 1.68783
1917.33830 1.68768
1915.28986 1.68783
1913.24143 1.68819
1911.19299 1.68857
1909.14455 1.68851
1907.09611 1.68802
1905.04767 1.68729
1902.99923 1.68634
1900.95080 1.68591
1898.90236 1.68672
1896.85392 1.68812
1894.80548 1.68852
1892.75704 1.68819
1890.70860 1.68825
1888.66017 1.68820
1886.61173 1.68765
1884.56329 1.68684
1882.51485 1.68639
1880.46641 1.68680
1878.41797 1.68700
1876.36954 1.68630
1874.32110 1.68572
1872.27266 1.68644
1870.22422 1.68841
1868.17578 1.68959
1866.12734 1.68895
1864.07891 1.68779
1862.03047 1.68650
1859.98203 1.68540
1857.93359 1.68513
1855.88515 1.68508
1853.83671 1.68458
1851.78828 1.68436
1849.73984 1.68480
1847.69140 1.68570
1845.64296 1.68648
1843.59452 1.68638
1841.54608 1.68538
1839.49765 1.68367
1837.44921 1.68203
1835.40077 1.68170
1833.35233 1.68309
1831.30389 1.68529
1829.25545 1.68649
1827.20702 1.68602
1825.15858 1.68492
1823.11014 1.68383
1821.06170 1.68278
1819.01326 1.68199
1816.96482 1.68212
1814.91639 1.68330
1812.86795 1.68491
1810.81951 1.68581
1808.77107 1.68540
1806.72263 1.68441
1804.67419 1.68393
1802.62575 1.68445
1800.57732 1.68498
1798.52888 1.68486
1796.48044 1.68517
1794.43200 1.68629
1792.38356 1.68716
1790.33512 1.68599
1788.28669 1.68388
1786.23825 1.68251
1784.18981 1.68220
1782.14137 1.68258
1780.09293 1.68285
1778.04449 1.68261
1775.99606 1.68240
1773.94762 1.68283
1771.89918 1.68400
1769.85074 1.68426
1767.80230 1.68319
1765.75386 1.68240
1763.70543 1.68230
1761.65699 1.68238
1759.60855 1.68231
1757.56011 1.68161
1755.51167 1.68077
1753.46323 1.68063
1751.41480 1.68136
1749.36636 1.68324
1747.31792 1.68439
1745.26948 1.68392
1743.22104 1.68303
1741.17260 1.68223
1739.12417 1.68213
1737.07573 1.68300
1735.02729 1.68442
1732.97885 1.68610
1730.93041 1.68495
1728.88197 1.68168
1726.83354 1.67939
1724.78510 1.67855
1722.73666 1.67877
1720.68822 1.67984
1718.63978 1.68186
1716.59134 1.68411
1714.54291 1.68307
1712.49447 1.68143
1710.44603 1.68138
1708.39759 1.68207
1706.34915 1.68290
1704.30071 1.68364
1702.25228 1.68302
1700.20384 1.68246
1698.15540 1.68425
1696.10696 1.68417
1694.05852 1.68232
1692.01008 1.68049
1689.96165 1.67938
1687.91321 1.68045
1685.86477 1.68184
1683.81633 1.68303
1681.76789 1.68431
1679.71945 1.68320
1677.67102 1.68075
1675.62258 1.67960
1673.57414 1.68130
1671.52570 1.68340
1669.47726 1.68423
1667.42882 1.68368
1665.38038 1.68293
1663.33195 1.68223
1661.28351 1.68135
1659.23507 1.68167
1657.18663 1.68318
1655.13819 1.68357
1653.08975 1.68278
1651.04132 1.68470
1648.99288 1.68559
1646.94444 1.68524
1644.89600 1.68461
1642.84756 1.68332
1640.79912 1.68257
1638.75069 1.68341
1636.70225 1.68416
1634.65381 1.68278
1632.60537 1.68146
1630.55693 1.68053
1628.50849 1.68009
1626.46006 1.68120
1624.41162 1.68298
1622.36318 1.68366
1620.31474 1.68359
1618.26630 1.68308
1616.21786 1.68160
1614.16943 1.68023
1612.12099 1.67935
1610.07255 1.67907
1608.02411 1.67933
1605.97567 1.67941
1603.92723 1.67905
1601.87880 1.67840
1599.83036 1.67767
1597.78192 1.67723
1595.73348 1.67758
1593.68504 1.67836
1591.63660 1.67868
1589.58817 1.67863
1587.53973 1.67832
1585.49129 1.67789
1583.44285 1.67782
1581.39441 1.67826
1579.34597 1.67935
1577.29754 1.68035
1575.24910 1.67972
1573.20066 1.67868
1571.15222 1.67803
1569.10378 1.67812
1567.05534 1.67822
1565.00691 1.67774
1562.95847 1.67798
1560.91003 1.67815
1558.86159 1.67966
1556.81315 1.68541
1554.76471 1.68668
1552.71628 1.68521
1550.66784 1.68336
1548.61940 1.68155
1546.57096 1.68117
1544.52252 1.68295
1542.47408 1.68521
1540.42565 1.68469
1538.37721 1.68357
1536.32877 1.68260
1534.28033 1.68072
1532.23189 1.67998
1530.18345 1.68099
1528.13501 1.68253
1526.08658 1.68474
1524.03814 1.68635
1521.98970 1.68654
1519.94126 1.68569
1517.89282 1.68378
1515.84438 1.68172
1513.79595 1.68044
1511.74751 1.68001
1509.69907 1.68077
1507.65063 1.68195
1505.60219 1.68239
1503.55375 1.68196
1501.50532 1.68149
1499.45688 1.68164
1497.40844 1.68180
1495.36000 1.68099
1493.31156 1.68027
1491.26312 1.68126
1489.21469 1.68296
1487.16625 1.68058
1485.11781 1.67712
1483.06937 1.67623
1481.02093 1.67712
1478.97249 1.67753
1476.92406 1.67749
1474.87562 1.67839
1472.82718 1.67879
1470.77874 1.67731
1468.73030 1.67656
1466.68186 1.67652
1464.63343 1.67572
1462.58499 1.67485
1460.53655 1.67515
1458.48811 1.67654
1456.43967 1.67794
1454.39123 1.67705
1452.34280 1.67572
1450.29436 1.67511
1448.24592 1.67498
1446.19748 1.67481
1444.14904 1.67481
1442.10060 1.67529
1440.05217 1.67576
1438.00373 1.67602
1435.95529 1.67652
1433.90685 1.67620
1431.85841 1.67511
1429.80997 1.67478
1427.76154 1.67557
1425.71310 1.67628
1423.66466 1.67591
1421.61622 1.67515
1419.56778 1.67629
1417.51934 1.67854
1415.47091 1.67814
1413.42247 1.67660
1411.37403 1.67611
1409.32559 1.67630
1407.27715 1.67668
1405.22871 1.67735
1403.18028 1.67750
1401.13184 1.67686
1399.08340 1.67576
1397.03496 1.67416
1394.98652 1.67083
1392.93808 1.66705
1390.88965 1.66568
1388.84121 1.66635
1386.79277 1.66711
1384.74433 1.66641
1382.69589 1.66534
1380.64745 1.66523
1378.59901 1.66573
1376.55058 1.66625
1374.50214 1.66665
1372.45370 1.66656
1370.40526 1.66647
1368.35682 1.66665
1366.30838 1.66695
1364.25995 1.66816
1362.21151 1.66978
1360.16307 1.66928
1358.11463 1.66747
1356.06619 1.66648
1354.01775 1.66634
1351.96932 1.66597
1349.92088 1.66532
1347.87244 1.66509
1345.82400 1.66528
1343.77556 1.66595
1341.72712 1.66732
1339.67869 1.66911
1337.63025 1.66996
1335.58181 1.66888
1333.53337 1.66723
1331.48493 1.66680
1329.43649 1.66713
1327.38806 1.66680
1325.33962 1.66630
1323.29118 1.66643
1321.24274 1.66643
1319.19430 1.66591
1317.14586 1.66589
1315.09743 1.66617
1313.04899 1.66590
1311.00055 1.66574
1308.95211 1.66580
1306.90367 1.66591
1304.85523 1.66654
1302.80680 1.66721
1300.75836 1.66727
1298.70992 1.66706
1296.66148 1.66710
1294.61304 1.66725
1292.56460 1.66700
1290.51617 1.66657
1288.46773 1.66650
1286.41929 1.66643
1284.37085 1.66631
1282.32241 1.66673
1280.27397 1.66735
1278.22554 1.66737
1276.17710 1.66710
1274.12866 1.66709
1272.08022 1.66704
1270.03178 1.66677
1267.98334 1.66666
1265.93491 1.66686
1263.88647 1.66742
1261.83803 1.66808
1259.78959 1.66810
1257.74115 1.66733
1255.69271 1.66651
1253.64428 1.66612
1251.59584 1.66618
1249.54740 1.66675
1247.49896 1.66725
1245.45052 1.66691
1243.40208 1.66612
1241.35364 1.66556
1239.30521 1.66514
1237.25677 1.66470
1235.20833 1.66459
1233.15989 1.66466
1231.11145 1.66444
1229.06301 1.66405
1227.01458 1.66387
1224.96614 1.66408
1222.91770 1.66437
1220.86926 1.66432
1218.82082 1.66396
1216.77238 1.66357
1214.72395 1.66399
1212.67551 1.66495
1210.62707 1.66495
1208.57863 1.66407
1206.53019 1.66334
1204.48175 1.66303
1202.43332 1.66285
1200.38488 1.66297
1198.33644 1.66359
1196.28800 1.66384
1194.23956 1.66346
1192.19112 1.66329
1190.14269 1.66334
1188.09425 1.66293
1186.04581 1.66207
1183.99737 1.66118
1181.94893 1.66049
1179.90049 1.65990
1177.85206 1.65917
1175.80362 1.65828
1173.75518 1.65767
1171.70674 1.65785
1169.65830 1.65871
1167.60986 1.66002
1165.56143 1.66151
1163.51299 1.66277
1161.46455 1.66364
1159.41611 1.66414
1157.36767 1.66418
1155.31923 1.66368
1153.27080 1.66302
1151.22236 1.66282
1149.17392 1.66297
1147.12548 1.66288
1145.07704 1.66273
1143.02860 1.66229
1140.98017 1.66111
1138.93173 1.65981
1136.88329 1.65882
1134.83485 1.65857
1132.78641 1.65870
1130.73797 1.65805
1128.68954 1.65718
1126.64110 1.65727
1124.59266 1.65805
1122.54422 1.65892
1120.49578 1.65977
1118.44734 1.66048
1116.39891 1.66099
1114.35047 1.66172
1112.30203 1.66245
1110.25359 1.66259
1108.20515 1.66246
1106.15671 1.66225
1104.10827 1.66165
1102.05984 1.66072
1100.01140 1.66031
1097.96296 1.66064
1095.91452 1.66101
1093.86608 1.66088
1091.81764 1.66011
1089.76921 1.65891
1087.72077 1.65735
1085.67233 1.65590
1083.62389 1.65552
1081.57545 1.65612
1079.52701 1.65625
1077.47858 1.65525
1075.43014 1.65424
1073.38170 1.65375
1071.33326 1.65342
1069.28482 1.65361
1067.23638 1.65469
1065.18795 1.65600
1063.13951 1.65723
1061.09107 1.65818
1059.04263 1.65860
1056.99419 1.65922
1054.94575 1.65997
1052.89732 1.66033
1050.84888 1.66014
1048.80044 1.65927
1046.75200 1.65856
1044.70356 1.65831
1042.65512 1.65785
1040.60669 1.65741
1038.55825 1.65753
1036.50981 1.65793
1034.46137 1.65775
1032.41293 1.65722
1030.36449 1.65801
1028.31606 1.66008
1026.26762 1.66132
1024.21918 1.66127
1022.17074 1.66120
1020.12230 1.66134
1018.07386 1.66149
1016.02543 1.66179
1013.97699 1.66180
1011.92855 1.66122
1009.88011 1.66071
1007.83167 1.66055
1005.78323 1.66082
1003.73480 1.66202
1001.68636 1.66349
999.63792 1.66412
997.58948 1.66392
995.54104 1.66343
993.49260 1.66301
991.44417 1.66266
989.39573 1.66240
987.34729 1.66211
985.29885 1.66177
983.25041 1.66194
981.20197 1.66244
979.15354 1.66295
977.10510 1.66374
975.05666 1.66355
973.00822 1.66174
970.95978 1.66057
968.91134 1.66061
966.86290 1.66067
964.81447 1.66111
962.76603 1.66187
960.71759 1.66214
958.66915 1.66195
956.62071 1.66136
954.57227 1.66085
952.52384 1.66109
950.47540 1.66175
948.42696 1.66200
946.37852 1.66139
944.33008 1.66101
942.28164 1.66192
940.23321 1.66309
938.18477 1.66308
936.13633 1.66154
934.08789 1.65954
932.03945 1.65859
929.99101 1.65927
927.94258 1.66041
925.89414 1.66111
923.84570 1.66210
921.79726 1.66245
919.74882 1.66140
917.70038 1.66099
915.65195 1.66188
913.60351 1.66208
911.55507 1.66089
909.50663 1.65922
907.45819 1.65826
905.40975 1.65919
903.36132 1.66027
901.31288 1.65910
899.26444 1.65760
897.21600 1.65762
895.16756 1.65787
893.11912 1.65740
891.07069 1.65673
889.02225 1.65687
886.97381 1.65788
884.92537 1.65815
882.87693 1.65741
880.82849 1.65722
878.78006 1.65843
876.73162 1.66002
874.68318 1.66070
872.63474 1.65970
870.58630 1.65749
868.53786 1.65654
866.48943 1.65682
864.44099 1.65664
862.39255 1.65669
860.34411 1.65739
858.29567 1.65733
856.24723 1.65624
854.19880 1.65550
852.15036 1.65558
850.10192 1.65637
848.05348 1.65663
846.00504 1.65599
843.95660 1.65557
841.90817 1.65493
839.85973 1.65442
837.81129 1.65528
835.76285 1.65602
833.71441 1.65517
831.66597 1.65405
829.61753 1.65391
827.56910 1.65398
825.52066 1.65310
823.47222 1.65227
821.42378 1.65293
819.37534 1.65468
817.32690 1.65597
815.27847 1.65501
813.23003 1.65161
811.18159 1.64858
809.13315 1.64755
807.08471 1.64710
805.03627 1.64782
802.98784 1.64862
800.93940 1.64722
798.89096 1.64674
796.84252 1.64843
794.79408 1.64876
792.74564 1.64695
790.69721 1.64465
788.64877 1.64312
786.60033 1.64164
784.55189 1.63837
782.50345 1.63545
780.45501 1.63500
778.40658 1.63567
776.35814 1.63614
774.30970 1.63590
772.26126 1.63462
770.21282 1.63387
768.16438 1.63600
766.11595 1.63931
764.06751 1.64037
762.01907 1.63934
759.97063 1.63894
757.92219 1.63893
755.87375 1.63734
753.82532 1.63522
751.77688 1.63351
749.72844 1.63276
747.68000 1.63369
745.63156 1.63381
743.58312 1.63088
741.53469 1.62739
739.48625 1.62674
737.43781 1.62792
735.38937 1.62742
733.34093 1.62557
731.29249 1.62469
729.24406 1.62459
727.19562 1.62312
725.14718 1.62028
723.09874 1.61956
721.05030 1.62162
719.00186 1.62292
716.95343 1.62105
714.90499 1.61783
712.85655 1.61599
710.80811 1.61360
708.75967 1.60979
706.71123 1.60920
704.66280 1.61174
702.61436 1.61277
700.56592 1.61293
698.51748 1.61289
696.46904 1.61012
694.42060 1.60588
692.37216 1.60336
690.32373 1.60327
688.27529 1.60335
686.22685 1.60162
684.17841 1.60041
682.12997 1.60137
680.08153 1.60383
678.03310 1.60810
675.98466 1.60943
673.93622 1.60451
671.88778 1.59890
669.83934 1.59338
667.79090 1.58802
665.74247 1.58927
663.69403 1.59282
661.64559 1.59483
659.59715 1.59414
657.54871 1.59131
655.50027 1.58606
653.45184 1.57797
651.40340 1.57187
649.35496 1.56917
647.30652 1.56654
645.25808 1.56485
643.20964 1.56327
641.16121 1.55915
639.11277 1.55217
637.06433 1.54829
635.01589 1.55170
632.96745 1.55252
630.91901 1.54605
628.87058 1.53908
626.82214 1.53248
624.77370 1.52792
622.72526 1.52983
620.67682 1.53228
618.62838 1.53472
616.57995 1.54362
614.53151 1.54401
612.48307 1.52239
610.43463 1.49603
608.38619 1.48274
606.33775 1.48332
604.28932 1.48610
602.24088 1.47759
600.19244 1.46144
598.14400 1.45247
