3996.50324 2.21021
3994.45480 2.21081
3992.40636 2.21221
3990.35792 2.21073
3988.30948 2.20635
3986.26104 2.20256
3984.21261 2.20259
3982.16417 2.20592
3980.11573 2.20920
3978.06729 2.21110
3976.01885 2.20982
3973.97041 2.20932
3971.92198 2.21205
3969.87354 2.21058
3967.82510 2.20579
3965.77666 2.20459
3963.72822 2.20725
3961.67978 2.21066
3959.63135 2.21259
3957.58291 2.21430
3955.53447 2.21566
3953.48603 2.21370
3951.43759 2.21083
3949.38915 2.21174
3947.34072 2.21352
3945.29228 2.21211
3943.24384 2.21028
3941.19540 2.20904
3939.14696 2.20632
3937.09852 2.20478
3935.05009 2.20955
3933.00165 2.21923
3930.95321 2.22428
3928.90477 2.21872
3926.85633 2.20857
3924.80789 2.20143
3922.75946 2.19966
3920.71102 2.20207
3918.66258 2.20644
3916.61414 2.20963
3914.56570 2.20939
3912.51726 2.20782
3910.46883 2.20736
3908.42039 2.20769
3906.37195 2.21232
3904.32351 2.21943
3902.27507 2.21878
3900.22663 2.21817
3898.17820 2.22109
3896.12976 2.21957
3894.08132 2.21706
3892.03288 2.21684
3889.98444 2.21341
3887.93600 2.21139
3885.88756 2.21648
3883.83913 2.21956
3881.79069 2.21968
3879.74225 2.21782
3877.69381 2.20715
3875.64537 2.19981
3873.59693 2.20481
3871.54850 2.21568
3869.50006 2.22384
3867.45162 2.22444
3865.40318 2.22782
3863.35474 2.23462
3861.30630 2.22879
3859.25787 2.21871
3857.20943 2.21494
3855.16099 2.21559
3853.11255 2.22567
3851.06411 2.23550
3849.01567 2.22968
3846.96724 2.22064
3844.91880 2.21802
3842.87036 2.22118
3840.82192 2.22349
3838.77348 2.22618
3836.72504 2.23109
3834.67661 2.22635
3832.62817 2.21514
3830.57973 2.20966
3828.53129 2.21326
3826.48285 2.22006
3824.43441 2.21864
3822.38598 2.21639
3820.33754 2.22247
3818.28910 2.21521
3816.24066 2.20178
3814.19222 2.19983
3812.14378 2.20234
3810.09535 2.20410
3808.04691 2.20894
3805.99847 2.21362
3803.95003 2.21441
3801.90159 2.22127
3799.85315 2.22389
3797.80472 2.21608
3795.75628 2.21161
3793.70784 2.20994
3791.65940 2.20739
3789.61096 2.20591
3787.56252 2.20675
3785.51409 2.20754
3783.46565 2.20686
3781.41721 2.21021
3779.36877 2.21787
3777.32033 2.21724
3775.27189 2.21093
3773.22346 2.20835
3771.17502 2.20891
3769.12658 2.20986
3767.07814 2.20908
3765.02970 2.20753
3762.98126 2.20561
3760.93283 2.20568
3758.88439 2.21293
3756.83595 2.22089
3754.78751 2.22657
3752.73907 2.23499
3750.69063 2.23671
3748.64219 2.22788
3746.59376 2.22065
3744.54532 2.21552
3742.49688 2.21317
3740.44844 2.21051
3738.40000 2.21149
3736.35156 2.22387
3734.30313 2.24043
3732.25469 2.24108
3730.20625 2.23350
3728.15781 2.22903
3726.10937 2.22762
3724.06093 2.22523
3722.01250 2.22149
3719.96406 2.21706
3717.91562 2.21280
3715.86718 2.21163
3713.81874 2.21514
3711.77030 2.21852
3709.72187 2.21073
3707.67343 2.20124
3705.62499 2.19733
3703.57655 2.19774
3701.52811 2.20173
3699.47967 2.20344
3697.43124 2.20339
3695.38280 2.20471
3693.33436 2.20529
3691.28592 2.21158
3689.23748 2.22912
3687.18904 2.23132
3685.14061 2.21785
3683.09217 2.20350
3681.04373 2.19510
3678.99529 2.19787
3676.94685 2.20820
3674.89841 2.21654
3672.84998 2.21797
3670.80154 2.22101
3668.75310 2.21763
3666.70466 2.20528
3664.65622 2.19714
3662.60778 2.19426
3660.55935 2.19550
3658.51091 2.20019
3656.46247 2.20355
3654.41403 2.20197
3652.36559 2.20498
3650.31715 2.21947
3648.26872 2.22565
3646.22028 2.21552
3644.17184 2.20762
3642.12340 2.20348
3640.07496 2.20419
3638.02652 2.20776
3635.97809 2.20884
3633.92965 2.20851
3631.88121 2.20970
3629.83277 2.21443
3627.78433 2.22343
3625.73589 2.22488
3623.68746 2.22152
3621.63902 2.21709
3619.59058 2.21077
3617.54214 2.20851
3615.49370 2.21493
3613.44526 2.22337
3611.39682 2.22560
3609.34839 2.22302
3607.29995 2.21901
3605.25151 2.21430
3603.20307 2.21161
3601.15463 2.21233
3599.10619 2.21341
3597.05776 2.21425
3595.00932 2.21661
3592.96088 2.21443
3590.91244 2.20736
3588.86400 2.20743
3586.81556 2.21716
3584.76713 2.21815
3582.71869 2.21227
3580.67025 2.20957
3578.62181 2.21143
3576.57337 2.21436
3574.52493 2.21582
3572.47650 2.21579
3570.42806 2.21468
3568.37962 2.21766
3566.33118 2.22544
3564.28274 2.22138
3562.23430 2.21185
3560.18587 2.20943
3558.13743 2.21197
3556.08899 2.21338
3554.04055 2.21197
3551.99211 2.20936
3549.94367 2.20959
3547.89524 2.21364
3545.84680 2.21755
3543.79836 2.21941
3541.74992 2.21920
3539.70148 2.21670
3537.65304 2.21402
3535.60461 2.21010
3533.55617 2.20618
3531.50773 2.20604
3529.45929 2.20786
3527.41085 2.20889
3525.36241 2.21118
3523.31398 2.21419
3521.26554 2.21406
3519.21710 2.21439
3517.16866 2.21675
3515.12022 2.21492
3513.07178 2.20950
3511.02335 2.20582
3508.97491 2.20288
3506.92647 2.20256
3504.87803 2.20797
3502.82959 2.21327
3500.78115 2.21500
3498.73272 2.21631
3496.68428 2.21461
3494.63584 2.20972
3492.58740 2.20759
3490.53896 2.20845
3488.49052 2.20897
3486.44209 2.20745
3484.39365 2.20559
3482.34521 2.20687
3480.29677 2.21090
3478.24833 2.21122
3476.19989 2.20477
3474.15146 2.19816
3472.10302 2.19827
3470.05458 2.20396
3468.00614 2.20842
3465.95770 2.20888
3463.90926 2.20728
3461.86082 2.20483
3459.81239 2.20321
3457.76395 2.20378
3455.71551 2.20583
3453.66707 2.20744
3451.61863 2.20991
3449.57019 2.21321
3447.52176 2.21524
3445.47332 2.21354
3443.42488 2.20788
3441.37644 2.20571
3439.32800 2.20808
3437.27956 2.20986
3435.23113 2.21348
3433.18269 2.21755
3431.13425 2.21566
3429.08581 2.21234
3427.03737 2.21479
3424.98893 2.21953
3422.94050 2.21836
3420.89206 2.21293
3418.84362 2.21182
3416.79518 2.21268
3414.74674 2.21130
3412.69830 2.21040
3410.64987 2.21112
3408.60143 2.21220
3406.55299 2.21119
3404.50455 2.20912
3402.45611 2.21070
3400.40767 2.21418
3398.35924 2.21568
3396.31080 2.21574
3394.26236 2.21390
3392.21392 2.21163
3390.16548 2.21016
3388.11704 2.20857
3386.06861 2.21079
3384.02017 2.21666
3381.97173 2.21874
3379.92329 2.21663
3377.87485 2.21563
3375.82641 2.21687
3373.77798 2.21830
3371.72954 2.21889
3369.68110 2.21812
3367.63266 2.21548
3365.58422 2.21158
3363.53578 2.20883
3361.48735 2.21029
3359.43891 2.21499
3357.39047 2.21543
3355.34203 2.20967
3353.29359 2.20851
3351.24515 2.21322
3349.19672 2.21545
3347.14828 2.21764
3345.09984 2.22296
3343.05140 2.22609
3341.00296 2.22296
3338.95452 2.21808
3336.90609 2.21725
3334.85765 2.21815
3332.80921 2.21679
3330.76077 2.21543
3328.71233 2.21782
3326.66389 2.22239
3324.61545 2.22446
3322.56702 2.22434
3320.51858 2.22458
3318.47014 2.22066
3316.42170 2.21296
3314.37326 2.21087
3312.32482 2.21459
3310.27639 2.21503
3308.22795 2.21147
3306.17951 2.21269
3304.13107 2.21776
3302.08263 2.21795
3300.03419 2.21436
3297.98576 2.21207
3295.93732 2.21079
3293.88888 2.21185
3291.84044 2.21370
3289.79200 2.21230
3287.74356 2.21256
3285.69513 2.21502
3283.64669 2.21392
3281.59825 2.21099
3279.54981 2.21134
3277.50137 2.21330
3275.45293 2.21218
3273.40450 2.21061
3271.35606 2.21123
3269.30762 2.21247
3267.25918 2.21402
3265.21074 2.21645
3263.16230 2.21977
3261.11387 2.22135
3259.06543 2.21983
3257.01699 2.21709
3254.96855 2.21435
3252.92011 2.21351
3250.87167 2.21561
3248.82324 2.21742
3246.77480 2.21750
3244.72636 2.21620
3242.67792 2.21257
3240.62948 2.21156
3238.58104 2.21479
3236.53261 2.21618
3234.48417 2.21597
3232.43573 2.21481
3230.38729 2.21239
3228.33885 2.21217
3226.29041 2.21229
3224.24198 2.21072
3222.19354 2.21207
3220.14510 2.21809
3218.09666 2.22219
3216.04822 2.22094
3213.99978 2.21917
3211.95135 2.21781
3209.90291 2.21545
3207.85447 2.21472
3205.80603 2.21435
3203.75759 2.21295
3201.70915 2.21488
3199.66072 2.21833
3197.61228 2.21557
3195.56384 2.20980
3193.51540 2.20943
3191.46696 2.21018
3189.41852 2.20706
3187.37008 2.20463
3185.32165 2.20435
3183.27321 2.20596
3181.22477 2.20977
3179.17633 2.21191
3177.12789 2.21031
3175.07945 2.20810
3173.03102 2.20771
3170.98258 2.20818
3168.93414 2.20775
3166.88570 2.20530
3164.83726 2.20243
3162.78882 2.20320
3160.74039 2.20780
3158.69195 2.21114
3156.64351 2.21171
3154.59507 2.21209
3152.54663 2.21089
3150.49819 2.20877
3148.44976 2.20844
3146.40132 2.20822
3144.35288 2.20945
3142.30444 2.21288
3140.25600 2.21321
3138.20756 2.20953
3136.15913 2.20631
3134.11069 2.20489
3132.06225 2.20409
3130.01381 2.20447
3127.96537 2.20641
3125.91693 2.20696
3123.86850 2.20465
3121.82006 2.20184
3119.77162 2.20081
3117.72318 2.20376
3115.67474 2.20811
3113.62630 2.20869
3111.57787 2.20824
3109.52943 2.20990
3107.48099 2.21010
3105.43255 2.20724
3103.38411 2.20420
3101.33567 2.20062
3099.28724 2.19545
3097.23880 2.19158
3095.19036 2.19163
3093.14192 2.19492
3091.09348 2.19834
3089.04504 2.19998
3086.99661 2.20036
3084.94817 2.20040
3082.89973 2.19943
3080.85129 2.19773
3078.80285 2.19714
3076.75441 2.19668
3074.70598 2.19567
3072.65754 2.19490
3070.60910 2.19348
3068.56066 2.19278
3066.51222 2.19410
3064.46378 2.19472
3062.41535 2.19544
3060.36691 2.19649
3058.31847 2.19355
3056.27003 2.18904
3054.22159 2.18738
3052.17315 2.18755
3050.12471 2.18973
3048.07628 2.19482
3046.02784 2.19891
3043.97940 2.19744
3041.93096 2.19350
3039.88252 2.19252
3037.83408 2.19410
3035.78565 2.19406
3033.73721 2.19225
3031.68877 2.19194
3029.64033 2.19103
3027.59189 2.18810
3025.54345 2.18612
3023.49502 2.18617
3021.44658 2.18755
3019.39814 2.18860
3017.34970 2.18808
3015.30126 2.18771
3013.25282 2.18879
3011.20439 2.18919
3009.15595 2.18852
3007.10751 2.18739
3005.05907 2.18493
3003.01063 2.18207
3000.96219 2.18090
2998.91376 2.18104
2996.86532 2.18152
2994.81688 2.18245
2992.76844 2.18372
2990.72000 2.18599
2988.67156 2.18768
2986.62313 2.18616
2984.57469 2.18214
2982.52625 2.17740
2980.47781 2.17406
2978.42937 2.17351
2976.38093 2.17520
2974.33250 2.17734
2972.28406 2.17759
2970.23562 2.17716
2968.18718 2.17890
2966.13874 2.18001
2964.09030 2.17840
2962.04187 2.17746
2959.99343 2.17962
2957.94499 2.18238
2955.89655 2.18125
2953.84811 2.17804
2951.79967 2.17541
2949.75124 2.17374
2947.70280 2.17459
2945.65436 2.17496
2943.60592 2.17245
2941.55748 2.17101
2939.50904 2.17291
2937.46061 2.17544
2935.41217 2.17779
2933.36373 2.18087
2931.31529 2.18114
2929.26685 2.17849
2927.21841 2.17678
2925.16998 2.17570
2923.12154 2.17523
2921.07310 2.17573
2919.02466 2.17514
2916.97622 2.17137
2914.92778 2.16684
2912.87934 2.16802
2910.83091 2.17315
2908.78247 2.17575
2906.73403 2.17702
2904.68559 2.17819
2902.63715 2.17747
2900.58871 2.17532
2898.54028 2.17242
2896.49184 2.17106
2894.44340 2.17229
2892.39496 2.17212
2890.34652 2.17083
2888.29808 2.17005
2886.24965 2.16834
2884.20121 2.16736
2882.15277 2.16721
2880.10433 2.16637
2878.05589 2.16600
2876.00745 2.16744
2873.95902 2.16895
2871.91058 2.16852
2869.86214 2.16813
2867.81370 2.16741
2865.76526 2.16517
2863.71682 2.16457
2861.66839 2.16572
2859.61995 2.16583
2857.57151 2.16710
2855.52307 2.17086
2853.47463 2.17401
2851.42619 2.17519
2849.37776 2.17384
2847.32932 2.17024
2845.28088 2.16768
2843.23244 2.16830
2841.18400 2.16948
2839.13556 2.16747
2837.08713 2.16249
2835.03869 2.15902
2832.99025 2.16028
2830.94181 2.16232
2828.89337 2.16137
2826.84493 2.15979
2824.79650 2.15857
2822.74806 2.15710
2820.69962 2.15801
2818.65118 2.16121
2816.60274 2.16139
2814.55430 2.15925
2812.50587 2.16003
2810.45743 2.16206
2808.40899 2.16246
2806.36055 2.16297
2804.31211 2.16349
2802.26367 2.16211
2800.21524 2.16023
2798.16680 2.15908
2796.11836 2.15739
2794.06992 2.15529
2792.02148 2.15399
2789.97304 2.15469
2787.92461 2.15726
2785.87617 2.15926
2783.82773 2.16030
2781.77929 2.16096
2779.73085 2.15940
2777.68241 2.15664
2775.63397 2.15602
2773.58554 2.15588
2771.53710 2.15369
2769.48866 2.15201
2767.44022 2.15177
2765.39178 2.15061
2763.34334 2.14897
2761.29491 2.14851
2759.24647 2.15011
2757.19803 2.15257
2755.14959 2.15225
2753.10115 2.14941
2751.05271 2.14742
2749.00428 2.14814
2746.95584 2.15117
2744.90740 2.15419
2742.85896 2.15450
2740.81052 2.15104
2738.76208 2.14686
2736.71365 2.14504
2734.66521 2.14522
2732.61677 2.14817
2730.56833 2.15277
2728.51989 2.15316
2726.47145 2.14991
2724.42302 2.14868
2722.37458 2.14891
2720.32614 2.14844
2718.27770 2.14745
2716.22926 2.14618
2714.18082 2.14565
2712.13239 2.14713
2710.08395 2.14925
2708.03551 2.14882
2705.98707 2.14654
2703.93863 2.14407
2701.89019 2.14166
2699.84176 2.13974
2697.79332 2.13883
2695.74488 2.13998
2693.69644 2.14244
2691.64800 2.14422
2689.59956 2.14460
2687.55113 2.14350
2685.50269 2.14183
2683.45425 2.14137
2681.40581 2.14218
2679.35737 2.14188
2677.30893 2.14108
2675.26050 2.14252
2673.21206 2.14493
2671.16362 2.14585
2669.11518 2.14543
2667.06674 2.14506
2665.01830 2.14473
2662.96987 2.14387
2660.92143 2.14310
2658.87299 2.14274
2656.82455 2.14236
2654.77611 2.14038
2652.72767 2.13696
2650.67924 2.13508
2648.63080 2.13608
2646.58236 2.13807
2644.53392 2.13883
2642.48548 2.13844
2640.43704 2.13846
2638.38860 2.14051
2636.34017 2.14271
2634.29173 2.14259
2632.24329 2.14112
2630.19485 2.13930
2628.14641 2.13827
2626.09797 2.13870
2624.04954 2.13773
2622.00110 2.13446
2619.95266 2.13307
2617.90422 2.13525
2615.85578 2.13825
2613.80734 2.13902
2611.75891 2.13837
2609.71047 2.13857
2607.66203 2.13787
2605.61359 2.13629
2603.56515 2.13670
2601.51671 2.13804
2599.46828 2.13810
2597.41984 2.13662
2595.37140 2.13518
2593.32296 2.13558
2591.27452 2.13684
2589.22608 2.13852
2587.17765 2.13990
2585.12921 2.13802
2583.08077 2.13390
2581.03233 2.13279
2578.98389 2.13537
2576.93545 2.13711
2574.88702 2.13690
2572.83858 2.13593
2570.79014 2.13534
2568.74170 2.13611
2566.69326 2.13609
2564.64482 2.13491
2562.59639 2.13460
2560.54795 2.13497
2558.49951 2.13595
2556.45107 2.13702
2554.40263 2.13595
2552.35419 2.13349
2550.30576 2.13280
2548.25732 2.13410
2546.20888 2.13441
2544.16044 2.13320
2542.11200 2.13243
2540.06356 2.13178
2538.01513 2.13170
2535.96669 2.13276
2533.91825 2.13187
2531.86981 2.12923
2529.82137 2.12874
2527.77293 2.13044
2525.72450 2.13126
2523.67606 2.12944
2521.62762 2.12706
2519.57918 2.12727
2517.53074 2.12893
2515.48230 2.12910
2513.43387 2.12964
2511.38543 2.13169
2509.33699 2.13139
2507.28855 2.12928
2505.24011 2.12888
2503.19167 2.12916
2501.14324 2.12972
2499.09480 2.13164
2497.04636 2.13130
2494.99792 2.12670
2492.94948 2.12297
2490.90104 2.12375
2488.85260 2.12628
2486.80417 2.12749
2484.75573 2.12825
2482.70729 2.12954
2480.65885 2.13034
2478.61041 2.12993
2476.56197 2.12959
2474.51354 2.13044
2472.46510 2.13098
2470.41666 2.13017
2468.36822 2.12933
2466.31978 2.12887
2464.27134 2.12822
2462.22291 2.12839
2460.17447 2.12949
2458.12603 2.12998
2456.07759 2.12877
2454.02915 2.12642
2451.98071 2.12454
2449.93228 2.12350
2447.88384 2.12246
2445.83540 2.12094
2443.78696 2.12081
2441.73852 2.12345
2439.69008 2.12588
2437.64165 2.12621
2435.59321 2.12713
2433.54477 2.12828
2431.49633 2.12657
2429.44789 2.12488
2427.39945 2.12706
2425.35102 2.12938
2423.30258 2.12755
2421.25414 2.12434
2419.20570 2.12369
2417.15726 2.12595
2415.10882 2.12921
2413.06039 2.13157
2411.01195 2.13181
2408.96351 2.12999
2406.91507 2.12794
2404.86663 2.12732
2402.81819 2.12853
2400.76976 2.12955
2398.72132 2.12842
2396.67288 2.12600
2394.62444 2.12423
2392.57600 2.12357
2390.52756 2.12331
2388.47913 2.12449
2386.43069 2.12647
2384.38225 2.12678
2382.33381 2.12609
2380.28537 2.12687
2378.23693 2.12996
2376.18850 2.13377
2374.14006 2.13688
2372.09162 2.13677
2370.04318 2.12928
2367.99474 2.12006
2365.94630 2.11887
2363.89787 2.12776
2361.84943 2.14270
2359.80099 2.15092
2357.75255 2.14954
2355.70411 2.14630
2353.65567 2.14142
2351.60723 2.13723
2349.55880 2.13701
2347.51036 2.13707
2345.46192 2.13557
2343.41348 2.13603
2341.36504 2.13568
2339.31660 2.13402
2337.26817 2.13594
2335.21973 2.14045
2333.17129 2.14255
2331.12285 2.14265
2329.07441 2.14502
2327.02597 2.14496
2324.97754 2.13983
2322.92910 2.13468
2320.88066 2.13174
2318.83222 2.12901
2316.78378 2.12864
2314.73534 2.13243
2312.68691 2.13519
2310.63847 2.13415
2308.59003 2.13193
2306.54159 2.13072
2304.49315 2.13144
2302.44471 2.13224
2300.39628 2.13002
2298.34784 2.12671
2296.29940 2.12621
2294.25096 2.12764
2292.20252 2.12769
2290.15408 2.12654
2288.10565 2.12657
2286.05721 2.12728
2284.00877 2.12679
2281.96033 2.12601
2279.91189 2.12720
2277.86345 2.12916
2275.81502 2.12989
2273.76658 2.12977
2271.71814 2.12896
2269.66970 2.12937
2267.62126 2.13130
2265.57282 2.13116
2263.52439 2.13016
2261.47595 2.13060
2259.42751 2.13073
2257.37907 2.13033
2255.33063 2.13053
2253.28219 2.13197
2251.23376 2.13444
2249.18532 2.13481
2247.13688 2.13202
2245.08844 2.12936
2243.04000 2.12787
2240.99156 2.12659
2238.94313 2.12642
2236.89469 2.12724
2234.84625 2.12709
2232.79781 2.12740
2230.74937 2.12946
2228.70093 2.13153
2226.65250 2.13239
2224.60406 2.13203
2222.55562 2.13232
2220.50718 2.13199
2218.45874 2.12853
2216.41030 2.12512
2214.36186 2.12580
2212.31343 2.12944
2210.26499 2.13217
2208.21655 2.13314
2206.16811 2.13317
2204.11967 2.13270
2202.07123 2.13302
2200.02280 2.13369
2197.97436 2.13337
2195.92592 2.13514
2193.87748 2.13879
2191.82904 2.13832
2189.78060 2.13482
2187.73217 2.13406
2185.68373 2.13517
2183.63529 2.13456
2181.58685 2.13271
2179.53841 2.13132
2177.48997 2.13048
2175.44154 2.12925
2173.39310 2.12837
2171.34466 2.12897
2169.29622 2.13047
2167.24778 2.13184
2165.19934 2.13309
2163.15091 2.13351
2161.10247 2.13312
2159.05403 2.13483
2157.00559 2.13724
2154.95715 2.13798
2152.90871 2.13788
2150.86028 2.13690
2148.81184 2.13574
2146.76340 2.13494
2144.71496 2.13542
2142.66652 2.13805
2140.61808 2.14044
2138.56965 2.14027
2136.52121 2.13820
2134.47277 2.13580
2132.42433 2.13479
2130.37589 2.13540
2128.32745 2.13640
2126.27902 2.13760
2124.23058 2.13931
2122.18214 2.14033
2120.13370 2.14001
2118.08526 2.13988
2116.03682 2.13917
2113.98839 2.13745
2111.93995 2.13672
2109.89151 2.13671
2107.84307 2.13746
2105.79463 2.14008
2103.74619 2.14182
2101.69776 2.13994
2099.64932 2.13763
2097.60088 2.13810
2095.55244 2.13942
2093.50400 2.13972
2091.45556 2.14030
2089.40713 2.14150
2087.35869 2.14196
2085.31025 2.14067
2083.26181 2.13928
2081.21337 2.14042
2079.16493 2.14276
2077.11649 2.14401
2075.06806 2.14487
2073.01962 2.14622
2070.97118 2.14633
2068.92274 2.14552
2066.87430 2.14611
2064.82586 2.14714
2062.77743 2.14624
2060.72899 2.14440
2058.68055 2.14353
2056.63211 2.14369
2054.58367 2.14521
2052.53523 2.14605
2050.48680 2.14404
2048.43836 2.14145
2046.38992 2.14052
2044.34148 2.14122
2042.29304 2.14308
2040.24460 2.14516
2038.19617 2.14629
2036.14773 2.14671
2034.09929 2.14670
2032.05085 2.14615
2030.00241 2.14622
2027.95397 2.14825
2025.90554 2.15053
2023.85710 2.15114
2021.80866 2.15156
2019.76022 2.15299
2017.71178 2.15437
2015.66334 2.15478
2013.61491 2.15491
2011.56647 2.15518
2009.51803 2.15475
2007.46959 2.15334
2005.42115 2.15241
2003.37271 2.15246
2001.32428 2.15297
1999.27584 2.15253
1997.22740 2.14974
1995.17896 2.14874
1993.13052 2.15259
1991.08208 2.15765
1989.03365 2.15929
1986.98521 2.15654
1984.93677 2.15198
1982.88833 2.14834
1980.83989 2.14737
1978.79145 2.15001
1976.74302 2.15329
1974.69458 2.15475
1972.64614 2.15650
1970.59770 2.15974
1968.54926 2.16283
1966.50082 2.16382
1964.45239 2.16223
1962.40395 2.16039
1960.35551 2.15966
1958.30707 2.15816
1956.25863 2.15706
1954.21019 2.15820
1952.16176 2.15940
1950.11332 2.16021
1948.06488 2.16107
1946.01644 2.16194
1943.96800 2.16386
1941.91956 2.16543
1939.87112 2.16379
1937.82269 2.16118
1935.77425 2.15999
1933.72581 2.16049
1931.67737 2.16241
1929.62893 2.16341
1927.58049 2.16368
1925.53206 2.16584
1923.48362 2.16787
1921.43518 2.16670
1919.38674 2.16621
1917.33830 2.16800
1915.28986 2.16725
1913.24143 2.16585
1911.19299 2.16631
1909.14455 2.16530
1907.09611 2.16410
1905.04767 2.16464
1902.99923 2.16340
1900.95080 2.16072
1898.90236 2.16113
1896.85392 2.16436
1894.80548 2.16495
1892.75704 2.16415
1890.70860 2.16844
1888.66017 2.17322
1886.61173 2.17083
1884.56329 2.16628
1882.51485 2.16410
1880.46641 2.16503
1878.41797 2.16794
1876.36954 2.16958
1874.32110 2.16933
1872.27266 2.16979
1870.22422 2.17472
1868.17578 2.17936
1866.12734 2.17460
1864.07891 2.16940
1862.03047 2.16947
1859.98203 2.16982
1857.93359 2.16744
1855.88515 2.16522
1853.83671 2.16533
1851.78828 2.16717
1849.73984 2.17027
1847.69140 2.17534
1845.64296 2.18246
1843.59452 2.18619
1841.54608 2.18113
1839.49765 2.17623
1837.44921 2.17613
1835.40077 2.17634
1833.35233 2.17511
1831.30389 2.17575
1829.25545 2.17766
1827.20702 2.17612
1825.15858 2.17390
1823.11014 2.17267
1821.06170 2.17117
1819.01326 2.17128
1816.96482 2.17271
1814.91639 2.17451
1812.86795 2.17872
1810.81951 2.18313
1808.77107 2.18293
1806.72263 2.18154
1804.67419 2.18165
1802.62575 2.18283
1800.57732 2.18481
1798.52888 2.18519
1796.48044 2.18364
1794.43200 2.18319
1792.38356 2.18668
1790.33512 2.18690
1788.28669 2.18269
1786.23825 2.18117
1784.18981 2.18086
1782.14137 2.18061
1780.09293 2.18274
1778.04449 2.18420
1775.99606 2.18434
1773.94762 2.18651
1771.89918 2.18905
1769.85074 2.18628
1767.80230 2.18150
1765.75386 2.17908
1763.70543 2.18082
1761.65699 2.18509
1759.60855 2.18661
1757.56011 2.18723
1755.51167 2.18664
1753.46323 2.18525
1751.41480 2.19171
1749.36636 2.20286
1747.31792 2.20257
1745.26948 2.19606
1743.22104 2.19187
1741.17260 2.19159
1739.12417 2.19338
1737.07573 2.19633
1735.02729 2.20354
1732.97885 2.20737
1730.93041 2.20058
1728.88197 2.19361
1726.83354 2.19009
1724.78510 2.19092
1722.73666 2.19186
1720.68822 2.19181
1718.63978 2.19920
1716.59134 2.21078
1714.54291 2.20710
1712.49447 2.19755
1710.44603 2.19052
1708.39759 2.18933
1706.34915 2.19635
1704.30071 2.20389
1702.25228 2.20454
1700.20384 2.20546
1698.15540 2.20946
1696.10696 2.20897
1694.05852 2.20077
1692.01008 2.19335
1689.96165 2.19254
1687.91321 2.19659
1685.86477 2.20415
1683.81633 2.21442
1681.76789 2.21200
1679.71945 2.20387
1677.67102 2.19861
1675.62258 2.19846
1673.57414 2.20011
1671.52570 2.20381
1669.47726 2.21245
1667.42882 2.21045
1665.38038 2.20235
1663.33195 2.20214
1661.28351 2.20369
1659.23507 2.19868
1657.18663 2.19464
1655.13819 2.19723
1653.08975 2.21092
1651.04132 2.21364
1648.99288 2.20979
1646.94444 2.21260
1644.89600 2.21136
1642.84756 2.20482
1640.79912 2.20164
1638.75069 2.20203
1636.70225 2.20594
1634.65381 2.20818
1632.60537 2.20296
1630.55693 2.19960
1628.50849 2.20164
1626.46006 2.20387
1624.41162 2.20310
1622.36318 2.20133
1620.31474 2.19942
1618.26630 2.20129
1616.21786 2.20728
1614.16943 2.20615
1612.12099 2.20211
1610.07255 2.20155
1608.02411 2.20146
1605.97567 2.19974
1603.92723 2.19919
1601.87880 2.19979
1599.83036 2.19966
1597.78192 2.19994
1595.73348 2.20224
1593.68504 2.20505
1591.63660 2.20639
1589.58817 2.20602
1587.53973 2.20436
1585.49129 2.20363
1583.44285 2.20387
1581.39441 2.20321
1579.34597 2.20546
1577.29754 2.21433
1575.24910 2.21787
1573.20066 2.21257
1571.15222 2.21428
1569.10378 2.21983
1567.05534 2.21643
1565.00691 2.21352
1562.95847 2.21551
1560.91003 2.21984
1558.86159 2.23140
1556.81315 2.23383
1554.76471 2.22494
1552.71628 2.21602
1550.66784 2.21294
1548.61940 2.21486
1546.57096 2.21807
1544.52252 2.22795
1542.47408 2.24717
1540.42565 2.25550
1538.37721 2.23833
1536.32877 2.22794
1534.28033 2.22671
1532.23189 2.22592
1530.18345 2.22375
1528.13501 2.22639
1526.08658 2.23130
1524.03814 2.23349
1521.98970 2.24028
1519.94126 2.24661
1517.89282 2.24460
1515.84438 2.23888
1513.79595 2.23191
1511.74751 2.22950
1509.69907 2.23555
1507.65063 2.25016
1505.60219 2.24861
1503.55375 2.23449
1501.50532 2.22671
1499.45688 2.22506
1497.40844 2.22479
1495.36000 2.22039
1493.31156 2.21719
1491.26312 2.22167
1489.21469 2.22969
1487.16625 2.22599
1485.11781 2.21770
1483.06937 2.21389
1481.02093 2.21371
1478.97249 2.21514
1476.92406 2.21961
1474.87562 2.22628
1472.82718 2.22971
1470.77874 2.22625
1468.73030 2.22137
1466.68186 2.21953
1464.63343 2.22061
1462.58499 2.22185
1460.53655 2.22385
1458.48811 2.23149
1456.43967 2.23995
1454.39123 2.23383
1452.34280 2.22549
1450.29436 2.22274
1448.24592 2.22559
1446.19748 2.22489
1444.14904 2.21872
1442.10060 2.21568
1440.05217 2.21912
1438.00373 2.22653
1435.95529 2.23053
1433.90685 2.22716
1431.85841 2.22420
1429.80997 2.22355
1427.76154 2.22289
1425.71310 2.22418
1423.66466 2.22837
1421.61622 2.23101
1419.56778 2.23378
1417.51934 2.23577
1415.47091 2.23048
1413.42247 2.22398
1411.37403 2.22163
1409.32559 2.22186
1407.27715 2.22278
1405.22871 2.22521
1403.18028 2.22624
1401.13184 2.22622
1399.08340 2.22784
1397.03496 2.22821
1394.98652 2.22656
1392.93808 2.22450
1390.88965 2.22361
1388.84121 2.22584
1386.79277 2.22731
1384.74433 2.22369
1382.69589 2.22061
1380.64745 2.22107
1378.59901 2.22295
1376.55058 2.22571
1374.50214 2.22832
1372.45370 2.22598
1370.40526 2.22218
1368.35682 2.22229
1366.30838 2.22407
1364.25995 2.22646
1362.21151 2.22771
1360.16307 2.22436
1358.11463 2.22071
1356.06619 2.21924
1354.01775 2.21831
1351.96932 2.21828
1349.92088 2.22015
1347.87244 2.22081
1345.82400 2.21856
1343.77556 2.21605
1341.72712 2.21826
1339.67869 2.22550
1337.63025 2.22693
1335.58181 2.22069
1333.53337 2.21579
1331.48493 2.21577
1329.43649 2.21785
1327.38806 2.22032
1325.33962 2.22303
1323.29118 2.22299
1321.24274 2.22134
1319.19430 2.22159
1317.14586 2.22278
1315.09743 2.22296
1313.04899 2.22131
1311.00055 2.21901
1308.95211 2.21773
1306.90367 2.21673
1304.85523 2.21545
1302.80680 2.21464
1300.75836 2.21483
1298.70992 2.21544
1296.66148 2.21474
1294.61304 2.21439
1292.56460 2.21692
1290.51617 2.21970
1288.46773 2.21902
1286.41929 2.21478
1284.37085 2.21224
1282.32241 2.21472
1280.27397 2.21769
1278.22554 2.21709
1276.17710 2.21391
1274.12866 2.21233
1272.08022 2.21455
1270.03178 2.21561
1267.98334 2.21294
1265.93491 2.21068
1263.88647 2.21012
1261.83803 2.21088
1259.78959 2.21333
1257.74115 2.21602
1255.69271 2.21666
1253.64428 2.21458
1251.59584 2.21256
1249.54740 2.21337
1247.49896 2.21515
1245.45052 2.21350
1243.40208 2.20989
1241.35364 2.20898
1239.30521 2.21013
1237.25677 2.21260
1235.20833 2.21623
1233.15989 2.21734
1231.11145 2.21509
1229.06301 2.21265
1227.01458 2.21147
1224.96614 2.21094
1222.91770 2.21062
1220.86926 2.21119
1218.82082 2.21241
1216.77238 2.21380
1214.72395 2.21500
1212.67551 2.21540
1210.62707 2.21551
1208.57863 2.21530
1206.53019 2.21454
1204.48175 2.21301
1202.43332 2.21213
1200.38488 2.21323
1198.33644 2.21529
1196.28800 2.21819
1194.23956 2.22031
1192.19112 2.22073
1190.14269 2.22172
1188.09425 2.22306
1186.04581 2.22344
1183.99737 2.22237
1181.94893 2.22093
1179.90049 2.22106
1177.85206 2.22121
1175.80362 2.21962
1173.75518 2.21782
1171.70674 2.21826
1169.65830 2.22046
1167.60986 2.22064
1165.56143 2.21765
1163.51299 2.21405
1161.46455 2.21365
1159.41611 2.21664
1157.36767 2.21812
1155.31923 2.21816
1153.27080 2.22011
1151.22236 2.22145
1149.17392 2.21992
1147.12548 2.21823
1145.07704 2.21837
1143.02860 2.21885
1140.98017 2.21959
1138.93173 2.22114
1136.88329 2.22037
1134.83485 2.21801
1132.78641 2.21767
1130.73797 2.21850
1128.68954 2.21915
1126.64110 2.22004
1124.59266 2.22127
1122.54422 2.22200
1120.49578 2.22201
1118.44734 2.22161
1116.39891 2.22148
1114.35047 2.22275
1112.30203 2.22472
1110.25359 2.22519
1108.20515 2.22425
1106.15671 2.22266
1104.10827 2.22081
1102.05984 2.21981
1100.01140 2.21891
1097.96296 2.21972
1095.91452 2.22323
1093.86608 2.22492
1091.81764 2.22446
1089.76921 2.22458
1087.72077 2.22510
1085.67233 2.22599
1083.62389 2.22501
1081.57545 2.22222
1079.52701 2.22149
1077.47858 2.22086
1075.43014 2.21907
1073.38170 2.22019
1071.33326 2.22330
1069.28482 2.22309
1067.23638 2.22083
1065.18795 2.21999
1063.13951 2.21847
1061.09107 2.21717
1059.04263 2.21843
1056.99419 2.21978
1054.94575 2.22113
1052.89732 2.22290
1050.84888 2.22331
1048.80044 2.22209
1046.75200 2.22065
1044.70356 2.22106
1042.65512 2.22230
1040.60669 2.22368
1038.55825 2.22607
1036.50981 2.22732
1034.46137 2.22621
1032.41293 2.22347
1030.36449 2.22095
1028.31606 2.22141
1026.26762 2.22398
1024.21918 2.22542
1022.17074 2.22563
1020.12230 2.22579
1018.07386 2.22388
1016.02543 2.21992
1013.97699 2.21961
1011.92855 2.22313
1009.88011 2.22435
1007.83167 2.22170
1005.78323 2.21866
1003.73480 2.21963
1001.68636 2.22445
999.63792 2.22844
997.58948 2.22839
995.54104 2.22726
993.49260 2.22853
991.44417 2.22872
989.39573 2.22690
987.34729 2.22641
985.29885 2.22650
983.25041 2.22575
981.20197 2.22720
979.15354 2.23058
977.10510 2.22919
975.05666 2.22289
973.00822 2.21937
970.95978 2.22174
968.91134 2.22612
966.86290 2.22774
964.81447 2.22574
962.76603 2.22223
960.71759 2.21903
958.66915 2.21856
956.62071 2.21997
954.57227 2.21950
952.52384 2.21799
950.47540 2.21884
948.42696 2.22158
946.37852 2.22361
944.33008 2.22449
942.28164 2.22231
940.23321 2.21693
938.18477 2.21401
936.13633 2.21693
934.08789 2.22185
932.03945 2.22244
929.99101 2.21897
927.94258 2.21658
925.89414 2.21676
923.84570 2.21653
921.79726 2.21673
919.74882 2.21977
917.70038 2.21976
915.65195 2.21309
913.60351 2.20680
911.55507 2.20704
909.50663 2.21140
907.45819 2.21384
905.40975 2.21344
903.36132 2.21430
901.31288 2.21869
899.26444 2.22261
897.21600 2.21990
895.16756 2.21388
893.11912 2.21250
891.07069 2.21499
889.02225 2.21799
886.97381 2.21925
884.92537 2.21591
882.87693 2.21324
880.82849 2.21734
878.78006 2.21968
876.73162 2.21416
874.68318 2.21333
872.63474 2.22146
870.58630 2.22598
868.53786 2.22283
866.48943 2.21769
864.44099 2.21554
862.39255 2.21932
860.34411 2.22438
858.29567 2.22331
856.24723 2.21876
854.19880 2.21560
852.15036 2.21110
850.10192 2.20707
848.05348 2.20814
846.00504 2.21195
843.95660 2.21613
841.90817 2.21836
839.85973 2.21707
837.81129 2.21624
835.76285 2.21810
833.71441 2.21678
831.66597 2.21113
829.61753 2.20975
827.56910 2.21225
825.52066 2.20934
823.47222 2.20241
821.42378 2.20204
819.37534 2.20792
817.32690 2.21317
815.27847 2.21878
813.23003 2.22151
811.18159 2.21626
809.13315 2.20998
807.08471 2.20881
805.03627 2.21229
802.98784 2.21584
800.93940 2.21440
798.89096 2.21566
796.84252 2.22225
794.79408 2.22224
792.74564 2.21685
790.69721 2.21070
788.64877 2.19956
786.60033 2.19208
784.55189 2.20029
782.50345 2.21275
780.45501 2.21434
778.40658 2.21297
776.35814 2.21417
774.30970 2.21097
772.26126 2.20233
770.21282 2.19716
768.16438 2.20105
766.11595 2.20378
764.06751 2.19649
762.01907 2.19016
759.97063 2.19365
757.92219 2.19552
755.87375 2.18912
753.82532 2.18659
751.77688 2.19088
749.72844 2.19182
747.68000 2.18632
745.63156 2.18079
743.58312 2.18070
741.53469 2.18272
739.48625 2.18095
737.43781 2.17600
735.38937 2.16978
733.34093 2.16630
731.29249 2.16981
729.24406 2.17668
727.19562 2.17981
725.14718 2.17537
723.09874 2.16819
721.05030 2.16492
719.00186 2.16119
716.95343 2.15325
714.90499 2.14652
712.85655 2.14106
710.80811 2.13767
708.75967 2.14310
706.71123 2.15348
704.66280 2.16111
702.61436 2.16587
700.56592 2.16260
698.51748 2.15383
696.46904 2.15292
694.42060 2.15407
692.37216 2.15365
690.32373 2.15749
688.27529 2.15519
686.22685 2.14632
684.17841 2.14486
682.12997 2.15061
680.08153 2.14776
678.03310 2.13041
675.98466 2.11640
673.93622 2.11827
671.88778 2.12994
669.83934 2.15233
667.79090 2.16962
665.74247 2.13709
663.69403 2.09449
661.64559 2.06898
659.59715 2.06562
657.54871 2.06950
655.50027 2.05352
653.45184 2.01908
651.40340 2.00224
649.35496 2.00983
647.30652 2.00833
645.25808 1.98410
643.20964 1.95820
641.16121 1.94848
639.11277 1.95227
637.06433 1.96226
635.01589 1.97960
632.96745 1.99711
630.91901 2.00458
628.87058 2.00175
626.82214 1.98515
624.77370 1.96321
622.72526 1.94875
620.67682 1.92784
618.62838 1.90200
616.57995 1.90266
614.53151 1.91842
612.48307 1.90603
610.43463 1.88082
608.38619 1.88100
606.33775 1.88778
604.28932 1.86758
602.24088 1.84817
600.19244 1.84234
598.14400 1.82569
