3996.50324 1.47861
3994.45480 1.47816
3992.40636 1.47769
3990.35792 1.47679
3988.30948 1.47562
3986.26104 1.47498
3984.21261 1.47525
3982.16417 1.47547
3980.11573 1.47514
3978.06729 1.47496
3976.01885 1.47514
3973.97041 1.47536
3971.92198 1.47511
3969.87354 1.47502
3967.82510 1.47570
3965.77666 1.47634
3963.72822 1.47640
3961.67978 1.47533
3959.63135 1.47361
3957.58291 1.47290
3955.53447 1.47331
3953.48603 1.47474
3951.43759 1.47687
3949.38915 1.47783
3947.34072 1.47734
3945.29228 1.47711
3943.24384 1.47718
3941.19540 1.47675
3939.14696 1.47544
3937.09852 1.47385
3935.05009 1.47403
3933.00165 1.47623
3930.95321 1.47774
3928.90477 1.47730
3926.85633 1.47681
3924.80789 1.47661
3922.75946 1.47567
3920.71102 1.47566
3918.66258 1.47733
3916.61414 1.47751
3914.56570 1.47486
3912.51726 1.47241
3910.46883 1.47196
3908.42039 1.47336
3906.37195 1.47648
3904.32351 1.48046
3902.27507 1.48240
3900.22663 1.48137
3898.17820 1.47915
3896.12976 1.47752
3894.08132 1.47725
3892.03288 1.47765
3889.98444 1.47716
3887.93600 1.47672
3885.88756 1.47747
3883.83913 1.47881
3881.79069 1.47920
3879.74225 1.47690
3877.69381 1.47419
3875.64537 1.47483
3873.59693 1.47875
3871.54850 1.48197
3869.50006 1.48084
3867.45162 1.47819
3865.40318 1.47843
3863.35474 1.47919
3861.30630 1.47707
3859.25787 1.47523
3857.20943 1.47629
3855.16099 1.48038
3853.11255 1.48379
3851.06411 1.48023
3849.01567 1.47611
3846.96724 1.47440
3844.91880 1.47508
3842.87036 1.47746
3840.82192 1.48064
3838.77348 1.48303
3836.72504 1.48237
3834.67661 1.47994
3832.62817 1.47733
3830.57973 1.47531
3828.53129 1.47458
3826.48285 1.47494
3824.43441 1.47631
3822.38598 1.47936
3820.33754 1.48183
3818.28910 1.48014
3816.24066 1.47615
3814.19222 1.47204
3812.14378 1.47027
3810.09535 1.47127
3808.04691 1.47423
3805.99847 1.47618
3803.95003 1.47650
3801.90159 1.47680
3799.85315 1.47624
3797.80472 1.47426
3795.75628 1.47088
3793.70784 1.46857
3791.65940 1.46838
3789.61096 1.46854
3787.56252 1.46876
3785.51409 1.46977
3783.46565 1.47090
3781.41721 1.47198
3779.36877 1.47213
3777.32033 1.47006
3775.27189 1.46824
3773.22346 1.46840
3771.17502 1.47047
3769.12658 1.47277
3767.07814 1.47303
3765.02970 1.47232
3762.98126 1.47216
3760.93283 1.47338
3758.88439 1.47514
3756.83595 1.47549
3754.78751 1.47646
3752.73907 1.48042
3750.69063 1.48504
3748.64219 1.48490
3746.59376 1.48304
3744.54532 1.48154
3742.49688 1.48097
3740.44844 1.48079
3738.40000 1.48172
3736.35156 1.48493
3734.30313 1.48646
3732.25469 1.48247
3730.20625 1.47737
3728.15781 1.47526
3726.10937 1.47709
3724.06093 1.47956
3722.01250 1.47922
3719.96406 1.47666
3717.91562 1.47381
3715.86718 1.47296
3713.81874 1.47539
3711.77030 1.47941
3709.72187 1.47901
3707.67343 1.47584
3705.62499 1.47450
3703.57655 1.47499
3701.52811 1.47518
3699.47967 1.47417
3697.43124 1.47371
3695.38280 1.47434
3693.33436 1.47643
3691.28592 1.48062
3689.23748 1.48264
3687.18904 1.47923
3685.14061 1.47614
3683.09217 1.47512
3681.04373 1.47642
3678.99529 1.48005
3676.94685 1.48459
3674.89841 1.48605
3672.84998 1.48484
3670.80154 1.48473
3668.75310 1.48336
3666.70466 1.48077
3664.65622 1.47945
3662.60778 1.48004
3660.55935 1.48175
3658.51091 1.48345
3656.46247 1.48525
3654.41403 1.48711
3652.36559 1.49010
3650.31715 1.49647
3648.26872 1.50043
3646.22028 1.49643
3644.17184 1.49297
3642.12340 1.49209
3640.07496 1.49236
3638.02652 1.49338
3635.97809 1.49577
3633.92965 1.49874
3631.88121 1.50116
3629.83277 1.50353
3627.78433 1.50394
3625.73589 1.50228
3623.68746 1.50274
3621.63902 1.50615
3619.59058 1.51033
3617.54214 1.51224
3615.49370 1.51385
3613.44526 1.51578
3611.39682 1.51577
3609.34839 1.51476
3607.29995 1.51313
3605.25151 1.51198
3603.20307 1.51389
3601.15463 1.51723
3599.10619 1.51827
3597.05776 1.51776
3595.00932 1.51759
3592.96088 1.51753
3590.91244 1.51868
3588.86400 1.52271
3586.81556 1.52618
3584.76713 1.52497
3582.71869 1.52337
3580.67025 1.52314
3578.62181 1.52308
3576.57337 1.52359
3574.52493 1.52477
3572.47650 1.52566
3570.42806 1.52766
3568.37962 1.53174
3566.33118 1.53420
3564.28274 1.53300
3562.23430 1.53161
3560.18587 1.53057
3558.13743 1.53022
3556.08899 1.53178
3554.04055 1.53502
3551.99211 1.53733
3549.94367 1.53730
3547.89524 1.53733
3545.84680 1.53816
3543.79836 1.53767
3541.74992 1.53541
3539.70148 1.53431
3537.65304 1.53571
3535.60461 1.53708
3533.55617 1.53699
3531.50773 1.53709
3529.45929 1.53824
3527.41085 1.53997
3525.36241 1.54127
3523.31398 1.54096
3521.26554 1.54031
3519.21710 1.54052
3517.16866 1.54052
3515.12022 1.54023
3513.07178 1.54025
3511.02335 1.54063
3508.97491 1.54093
3506.92647 1.54137
3504.87803 1.54316
3502.82959 1.54552
3500.78115 1.54587
3498.73272 1.54452
3496.68428 1.54378
3494.63584 1.54412
3492.58740 1.54436
3490.53896 1.54454
3488.49052 1.54527
3486.44209 1.54630
3484.39365 1.54727
3482.34521 1.54778
3480.29677 1.54726
3478.24833 1.54719
3476.19989 1.54872
3474.15146 1.54970
3472.10302 1.54956
3470.05458 1.54960
3468.00614 1.54935
3465.95770 1.54908
3463.90926 1.54967
3461.86082 1.55019
3459.81239 1.55044
3457.76395 1.55095
3455.71551 1.55084
3453.66707 1.54974
3451.61863 1.54898
3449.57019 1.55028
3447.52176 1.55325
3445.47332 1.55444
3443.42488 1.55292
3441.37644 1.55202
3439.32800 1.55264
3437.27956 1.55244
3435.23113 1.55175
3433.18269 1.55198
3431.13425 1.55267
3429.08581 1.55358
3427.03737 1.55445
3424.98893 1.55508
3422.94050 1.55607
3420.89206 1.55708
3418.84362 1.55677
3416.79518 1.55520
3414.74674 1.55418
3412.69830 1.55434
3410.64987 1.55456
3408.60143 1.55424
3406.55299 1.55386
3404.50455 1.55393
3402.45611 1.55476
3400.40767 1.55617
3398.35924 1.55693
3396.31080 1.55720
3394.26236 1.55803
3392.21392 1.55852
3390.16548 1.55834
3388.11704 1.55816
3386.06861 1.55807
3384.02017 1.55812
3381.97173 1.55826
3379.92329 1.55848
3377.87485 1.55835
3375.82641 1.55766
3373.77798 1.55758
3371.72954 1.55874
3369.68110 1.56048
3367.63266 1.56171
3365.58422 1.56182
3363.53578 1.56114
3361.48735 1.55998
3359.43891 1.55928
3357.39047 1.55906
3355.34203 1.55880
3353.29359 1.55933
3351.24515 1.56018
3349.19672 1.56019
3347.14828 1.56012
3345.09984 1.56042
3343.05140 1.56036
3341.00296 1.56024
3338.95452 1.56058
3336.90609 1.56056
3334.85765 1.56003
3332.80921 1.55993
3330.76077 1.56016
3328.71233 1.56076
3326.66389 1.56149
3324.61545 1.56082
3322.56702 1.55978
3320.51858 1.56016
3318.47014 1.56109
3316.42170 1.56167
3314.37326 1.56193
3312.32482 1.56173
3310.27639 1.56085
3308.22795 1.55987
3306.17951 1.55984
3304.13107 1.56023
3302.08263 1.55978
3300.03419 1.55957
3297.98576 1.56070
3295.93732 1.56184
3293.88888 1.56257
3291.84044 1.56341
3289.79200 1.56344
3287.74356 1.56228
3285.69513 1.56155
3283.64669 1.56239
3281.59825 1.56358
3279.54981 1.56333
3277.50137 1.56205
3275.45293 1.56179
3273.40450 1.56259
3271.35606 1.56262
3269.30762 1.56182
3267.25918 1.56090
3265.21074 1.56061
3263.16230 1.56147
3261.11387 1.56238
3259.06543 1.56288
3257.01699 1.56347
3254.96855 1.56370
3252.92011 1.56340
3250.87167 1.56302
3248.82324 1.56264
3246.77480 1.56240
3244.72636 1.56255
3242.67792 1.56293
3240.62948 1.56295
3238.58104 1.56238
3236.53261 1.56149
3234.48417 1.56050
3232.43573 1.56017
3230.38729 1.56122
3228.33885 1.56267
3226.29041 1.56354
3224.24198 1.56349
3222.19354 1.56232
3220.14510 1.56116
3218.09666 1.56053
3216.04822 1.56041
3213.99978 1.56093
3211.95135 1.56101
3209.90291 1.56050
3207.85447 1.56025
3205.80603 1.56036
3203.75759 1.56015
3201.70915 1.55966
3199.66072 1.55989
3197.61228 1.56036
3195.56384 1.55978
3193.51540 1.55859
3191.46696 1.55816
3189.41852 1.55873
3187.37008 1.55941
3185.32165 1.55931
3183.27321 1.55837
3181.22477 1.55757
3179.17633 1.55748
3177.12789 1.55776
3175.07945 1.55808
3173.03102 1.55824
3170.98258 1.55772
3168.93414 1.55644
3166.88570 1.55531
3164.83726 1.55463
3162.78882 1.55374
3160.74039 1.55279
3158.69195 1.55279
3156.64351 1.55351
3154.59507 1.55397
3152.54663 1.55438
3150.49819 1.55458
3148.44976 1.55363
3146.40132 1.55192
3144.35288 1.55067
3142.30444 1.55008
3140.25600 1.54967
3138.20756 1.54926
3136.15913 1.54878
3134.11069 1.54836
3132.06225 1.54814
3130.01381 1.54809
3127.96537 1.54826
3125.91693 1.54823
3123.86850 1.54739
3121.82006 1.54640
3119.77162 1.54563
3117.72318 1.54465
3115.67474 1.54386
3113.62630 1.54352
3111.57787 1.54326
3109.52943 1.54303
3107.48099 1.54272
3105.43255 1.54232
3103.38411 1.54232
3101.33567 1.54217
3099.28724 1.54124
3097.23880 1.54065
3095.19036 1.54030
3093.14192 1.53930
3091.09348 1.53821
3089.04504 1.53777
3086.99661 1.53816
3084.94817 1.53801
3082.89973 1.53634
3080.85129 1.53462
3078.80285 1.53383
3076.75441 1.53324
3074.70598 1.53235
3072.65754 1.53215
3070.60910 1.53280
3068.56066 1.53282
3066.51222 1.53192
3064.46378 1.53092
3062.41535 1.53026
3060.36691 1.52994
3058.31847 1.52946
3056.27003 1.52807
3054.22159 1.52661
3052.17315 1.52650
3050.12471 1.52671
3048.07628 1.52607
3046.02784 1.52519
3043.97940 1.52450
3041.93096 1.52400
3039.88252 1.52370
3037.83408 1.52315
3035.78565 1.52247
3033.73721 1.52201
3031.68877 1.52164
3029.64033 1.52159
3027.59189 1.52125
3025.54345 1.51996
3023.49502 1.51886
3021.44658 1.51852
3019.39814 1.51792
3017.34970 1.51664
3015.30126 1.51561
3013.25282 1.51559
3011.20439 1.51616
3009.15595 1.51613
3007.10751 1.51489
3005.05907 1.51331
3003.01063 1.51251
3000.96219 1.51260
2998.91376 1.51259
2996.86532 1.51160
2994.81688 1.51052
2992.76844 1.51045
2990.72000 1.51068
2988.67156 1.51021
2986.62313 1.50942
2984.57469 1.50894
2982.52625 1.50879
2980.47781 1.50863
2978.42937 1.50791
2976.38093 1.50682
2974.33250 1.50622
2972.28406 1.50590
2970.23562 1.50550
2968.18718 1.50533
2966.13874 1.50526
2964.09030 1.50480
2962.04187 1.50393
2959.99343 1.50333
2957.94499 1.50299
2955.89655 1.50243
2953.84811 1.50177
2951.79967 1.50110
2949.75124 1.50060
2947.70280 1.50041
2945.65436 1.50010
2943.60592 1.49979
2941.55748 1.49984
2939.50904 1.49969
2937.46061 1.49883
2935.41217 1.49773
2933.36373 1.49700
2931.31529 1.49663
2929.26685 1.49644
2927.21841 1.49638
2925.16998 1.49638
2923.12154 1.49619
2921.07310 1.49581
2919.02466 1.49554
2916.97622 1.49554
2914.92778 1.49539
2912.87934 1.49433
2910.83091 1.49291
2908.78247 1.49201
2906.73403 1.49184
2904.68559 1.49206
2902.63715 1.49189
2900.58871 1.49110
2898.54028 1.49011
2896.49184 1.48951
2894.44340 1.48913
2892.39496 1.48865
2890.34652 1.48878
2888.29808 1.48908
2886.24965 1.48834
2884.20121 1.48737
2882.15277 1.48710
2880.10433 1.48675
2878.05589 1.48607
2876.00745 1.48581
2873.95902 1.48616
2871.91058 1.48639
2869.86214 1.48591
2867.81370 1.48523
2865.76526 1.48504
2863.71682 1.48495
2861.66839 1.48430
2859.61995 1.48338
2857.57151 1.48294
2855.52307 1.48297
2853.47463 1.48286
2851.42619 1.48221
2849.37776 1.48127
2847.32932 1.48066
2845.28088 1.48043
2843.23244 1.48017
2841.18400 1.47959
2839.13556 1.47892
2837.08713 1.47862
2835.03869 1.47876
2832.99025 1.47865
2830.94181 1.47788
2828.89337 1.47682
2826.84493 1.47609
2824.79650 1.47597
2822.74806 1.47578
2820.69962 1.47497
2818.65118 1.47459
2816.60274 1.47483
2814.55430 1.47453
2812.50587 1.47410
2810.45743 1.47427
2808.40899 1.47421
2806.36055 1.47340
2804.31211 1.47248
2802.26367 1.47203
2800.21524 1.47167
2798.16680 1.47114
2796.11836 1.47068
2794.06992 1.47027
2792.02148 1.46977
2789.97304 1.46924
2787.92461 1.46882
2785.87617 1.46851
2783.82773 1.46836
2781.77929 1.46811
2779.73085 1.46753
2777.68241 1.46705
2775.63397 1.46684
2773.58554 1.46664
2771.53710 1.46634
2769.48866 1.46579
2767.44022 1.46501
2765.39178 1.46459
2763.34334 1.46487
2761.29491 1.46517
2759.24647 1.46473
2757.19803 1.46400
2755.14959 1.46363
2753.10115 1.46347
2751.05271 1.46309
2749.00428 1.46225
2746.95584 1.46121
2744.90740 1.46048
2742.85896 1.46042
2740.81052 1.46069
2738.76208 1.46059
2736.71365 1.46004
2734.66521 1.45913
2732.61677 1.45823
2730.56833 1.45814
2728.51989 1.45870
2726.47145 1.45891
2724.42302 1.45851
2722.37458 1.45785
2720.32614 1.45718
2718.27770 1.45666
2716.22926 1.45647
2714.18082 1.45638
2712.13239 1.45601
2710.08395 1.45558
2708.03551 1.45498
2705.98707 1.45401
2703.93863 1.45359
2701.89019 1.45424
2699.84176 1.45477
2697.79332 1.45415
2695.74488 1.45291
2693.69644 1.45212
2691.64800 1.45183
2689.59956 1.45157
2687.55113 1.45147
2685.50269 1.45116
2683.45425 1.45050
2681.40581 1.45017
2679.35737 1.44997
2677.30893 1.44968
2675.26050 1.44935
2673.21206 1.44891
2671.16362 1.44873
2669.11518 1.44885
2667.06674 1.44868
2665.01830 1.44809
2662.96987 1.44756
2660.92143 1.44721
2658.87299 1.44695
2656.82455 1.44677
2654.77611 1.44665
2652.72767 1.44658
2650.67924 1.44635
2648.63080 1.44609
2646.58236 1.44607
2644.53392 1.44630
2642.48548 1.44639
2640.43704 1.44578
2638.38860 1.44485
2636.34017 1.44429
2634.29173 1.44430
2632.24329 1.44447
2630.19485 1.44401
2628.14641 1.44330
2626.09797 1.44318
2624.04954 1.44339
2622.00110 1.44337
2619.95266 1.44297
2617.90422 1.44260
2615.85578 1.44247
2613.80734 1.44213
2611.75891 1.44150
2609.71047 1.44105
2607.66203 1.44074
2605.61359 1.44018
2603.56515 1.43956
2601.51671 1.43919
2599.46828 1.43916
2597.41984 1.43939
2595.37140 1.43953
2593.32296 1.43940
2591.27452 1.43918
2589.22608 1.43907
2587.17765 1.43886
2585.12921 1.43831
2583.08077 1.43802
2581.03233 1.43821
2578.98389 1.43838
2576.93545 1.43812
2574.88702 1.43762
2572.83858 1.43751
2570.79014 1.43768
2568.74170 1.43757
2566.69326 1.43705
2564.64482 1.43648
2562.59639 1.43613
2560.54795 1.43594
2558.49951 1.43589
2556.45107 1.43589
2554.40263 1.43551
2552.35419 1.43477
2550.30576 1.43444
2548.25732 1.43459
2546.20888 1.43447
2544.16044 1.43434
2542.11200 1.43481
2540.06356 1.43511
2538.01513 1.43474
2535.96669 1.43417
2533.91825 1.43384
2531.86981 1.43360
2529.82137 1.43327
2527.77293 1.43342
2525.72450 1.43406
2523.67606 1.43399
2521.62762 1.43281
2519.57918 1.43169
2517.53074 1.43158
2515.48230 1.43179
2513.43387 1.43186
2511.38543 1.43215
2509.33699 1.43214
2507.28855 1.43150
2505.24011 1.43089
2503.19167 1.43079
2501.14324 1.43102
2499.09480 1.43086
2497.04636 1.43033
2494.99792 1.42972
2492.94948 1.42892
2490.90104 1.42825
2488.85260 1.42778
2486.80417 1.42772
2484.75573 1.42805
2482.70729 1.42784
2480.65885 1.42726
2478.61041 1.42714
2476.56197 1.42712
2474.51354 1.42662
2472.46510 1.42589
2470.41666 1.42552
2468.36822 1.42567
2466.31978 1.42566
2464.27134 1.42511
2462.22291 1.42441
2460.17447 1.42399
2458.12603 1.42419
2456.07759 1.42487
2454.02915 1.42523
2451.98071 1.42475
2449.93228 1.42401
2447.88384 1.42360
2445.83540 1.42334
2443.78696 1.42300
2441.73852 1.42271
2439.69008 1.42258
2437.64165 1.42249
2435.59321 1.42249
2433.54477 1.42251
2431.49633 1.42235
2429.44789 1.42214
2427.39945 1.42189
2425.35102 1.42144
2423.30258 1.42091
2421.25414 1.42080
2419.20570 1.42132
2417.15726 1.42192
2415.10882 1.42181
2413.06039 1.42112
2411.01195 1.42086
2408.96351 1.42101
2406.91507 1.42077
2404.86663 1.42022
2402.81819 1.41974
2400.76976 1.41922
2398.72132 1.41888
2396.67288 1.41890
2394.62444 1.41880
2392.57600 1.41847
2390.52756 1.41851
2388.47913 1.41883
2386.43069 1.41889
2384.38225 1.41904
2382.33381 1.41933
2380.28537 1.41963
2378.23693 1.42033
2376.18850 1.42064
2374.14006 1.41954
2372.09162 1.41817
2370.04318 1.41788
2367.99474 1.41843
2365.94630 1.41874
2363.89787 1.41837
2361.84943 1.41840
2359.80099 1.41956
2357.75255 1.42101
2355.70411 1.42193
2353.65567 1.42168
2351.60723 1.42086
2349.55880 1.42061
2347.51036 1.42078
2345.46192 1.42112
2343.41348 1.42099
2341.36504 1.42010
2339.31660 1.41954
2337.26817 1.41917
2335.21973 1.41895
2333.17129 1.41886
2331.12285 1.41886
2329.07441 1.41951
2327.02597 1.41968
2324.97754 1.41870
2322.92910 1.41789
2320.88066 1.41774
2318.83222 1.41782
2316.78378 1.41794
2314.73534 1.41776
2312.68691 1.41743
2310.63847 1.41716
2308.59003 1.41669
2306.54159 1.41617
2304.49315 1.41594
2302.44471 1.41582
2300.39628 1.41567
2298.34784 1.41569
2296.29940 1.41554
2294.25096 1.41501
2292.20252 1.41469
2290.15408 1.41446
2288.10565 1.41390
2286.05721 1.41363
2284.00877 1.41382
2281.96033 1.41385
2279.91189 1.41365
2277.86345 1.41353
2275.81502 1.41335
2273.76658 1.41311
2271.71814 1.41322
2269.66970 1.41357
2267.62126 1.41367
2265.57282 1.41357
2263.52439 1.41348
2261.47595 1.41346
2259.42751 1.41350
2257.37907 1.41342
2255.33063 1.41303
2253.28219 1.41268
2251.23376 1.41289
2249.18532 1.41337
2247.13688 1.41342
2245.08844 1.41290
2243.04000 1.41241
2240.99156 1.41281
2238.94313 1.41385
2236.89469 1.41454
2234.84625 1.41440
2232.79781 1.41351
2230.74937 1.41282
2228.70093 1.41285
2226.65250 1.41289
2224.60406 1.41285
2222.55562 1.41293
2220.50718 1.41290
2218.45874 1.41303
2216.41030 1.41334
2214.36186 1.41356
2212.31343 1.41369
2210.26499 1.41353
2208.21655 1.41296
2206.16811 1.41249
2204.11967 1.41222
2202.07123 1.41201
2200.02280 1.41220
2197.97436 1.41231
2195.92592 1.41194
2193.87748 1.41173
2191.82904 1.41194
2189.78060 1.41223
2187.73217 1.41220
2185.68373 1.41181
2183.63529 1.41156
2181.58685 1.41150
2179.53841 1.41143
2177.48997 1.41146
2175.44154 1.41169
2173.39310 1.41183
2171.34466 1.41155
2169.29622 1.41113
2167.24778 1.41088
2165.19934 1.41069
2163.15091 1.41085
2161.10247 1.41121
2159.05403 1.41120
2157.00559 1.41078
2154.95715 1.41023
2152.90871 1.41027
2150.86028 1.41068
2148.81184 1.41049
2146.76340 1.41009
2144.71496 1.40985
2142.66652 1.40974
2140.61808 1.40965
2138.56965 1.40925
2136.52121 1.40865
2134.47277 1.40839
2132.42433 1.40862
2130.37589 1.40867
2128.32745 1.40829
2126.27902 1.40836
2124.23058 1.40905
2122.18214 1.40936
2120.13370 1.40901
2118.08526 1.40848
2116.03682 1.40795
2113.98839 1.40748
2111.93995 1.40719
2109.89151 1.40695
2107.84307 1.40672
2105.79463 1.40679
2103.74619 1.40694
2101.69776 1.40691
2099.64932 1.40692
2097.60088 1.40703
2095.55244 1.40698
2093.50400 1.40695
2091.45556 1.40714
2089.40713 1.40714
2087.35869 1.40686
2085.31025 1.40642
2083.26181 1.40591
2081.21337 1.40548
2079.16493 1.40519
2077.11649 1.40527
2075.06806 1.40562
2073.01962 1.40561
2070.97118 1.40530
2068.92274 1.40514
2066.87430 1.40515
2064.82586 1.40522
2062.77743 1.40517
2060.72899 1.40516
2058.68055 1.40506
2056.63211 1.40455
2054.58367 1.40420
2052.53523 1.40419
2050.48680 1.40395
2048.43836 1.40350
2046.38992 1.40342
2044.34148 1.40377
2042.29304 1.40409
2040.24460 1.40413
2038.19617 1.40403
2036.14773 1.40396
2034.09929 1.40385
2032.05085 1.40349
2030.00241 1.40287
2027.95397 1.40242
2025.90554 1.40274
2023.85710 1.40340
2021.80866 1.40341
2019.76022 1.40342
2017.71178 1.40392
2015.66334 1.40385
2013.61491 1.40306
2011.56647 1.40251
2009.51803 1.40272
2007.46959 1.40321
2005.42115 1.40301
2003.37271 1.40254
2001.32428 1.40274
1999.27584 1.40285
1997.22740 1.40228
1995.17896 1.40249
1993.13052 1.40383
1991.08208 1.40424
1989.03365 1.40318
1986.98521 1.40207
1984.93677 1.40142
1982.88833 1.40121
1980.83989 1.40138
1978.79145 1.40147
1976.74302 1.40106
1974.69458 1.40059
1972.64614 1.40068
1970.59770 1.40129
1968.54926 1.40194
1966.50082 1.40196
1964.45239 1.40149
1962.40395 1.40118
1960.35551 1.40106
1958.30707 1.40101
1956.25863 1.40078
1954.21019 1.40005
1952.16176 1.39943
1950.11332 1.39958
1948.06488 1.40032
1946.01644 1.40137
1943.96800 1.40230
1941.91956 1.40190
1939.87112 1.40026
1937.82269 1.39910
1935.77425 1.39890
1933.72581 1.39896
1931.67737 1.39879
1929.62893 1.39845
1927.58049 1.39822
1925.53206 1.39897
1923.48362 1.40061
1921.43518 1.40108
1919.38674 1.40086
1917.33830 1.40086
1915.28986 1.39987
1913.24143 1.39899
1911.19299 1.39950
1909.14455 1.40016
1907.09611 1.39965
1905.04767 1.39852
1902.99923 1.39758
1900.95080 1.39739
1898.90236 1.39784
1896.85392 1.39849
1894.80548 1.39900
1892.75704 1.39912
1890.70860 1.39915
1888.66017 1.39865
1886.61173 1.39762
1884.56329 1.39683
1882.51485 1.39636
1880.46641 1.39614
1878.41797 1.39600
1876.36954 1.39582
1874.32110 1.39559
1872.27266 1.39638
1870.22422 1.39957
1868.17578 1.40211
1866.12734 1.39998
1864.07891 1.39695
1862.03047 1.39595
1859.98203 1.39613
1857.93359 1.39601
1855.88515 1.39533
1853.83671 1.39456
1851.78828 1.39471
1849.73984 1.39619
1847.69140 1.39798
1845.64296 1.39949
1843.59452 1.39966
1841.54608 1.39776
1839.49765 1.39636
1837.44921 1.39626
1835.40077 1.39638
1833.35233 1.39704
1831.30389 1.39948
1829.25545 1.40171
1827.20702 1.40111
1825.15858 1.39953
1823.11014 1.39776
1821.06170 1.39637
1819.01326 1.39608
1816.96482 1.39617
1814.91639 1.39625
1812.86795 1.39718
1810.81951 1.39858
1808.77107 1.39901
1806.72263 1.39853
1804.67419 1.39835
1802.62575 1.39944
1800.57732 1.40077
1798.52888 1.40085
1796.48044 1.40068
1794.43200 1.40149
1792.38356 1.40276
1790.33512 1.40137
1788.28669 1.39891
1786.23825 1.39817
1784.18981 1.39838
1782.14137 1.39842
1780.09293 1.39839
1778.04449 1.39831
1775.99606 1.39893
1773.94762 1.40136
1771.89918 1.40386
1769.85074 1.40228
1767.80230 1.39879
1765.75386 1.39647
1763.70543 1.39647
1761.65699 1.39786
1759.60855 1.39842
1757.56011 1.39819
1755.51167 1.39759
1753.46323 1.39795
1751.41480 1.40095
1749.36636 1.40450
1747.31792 1.40418
1745.26948 1.40198
1743.22104 1.40023
1741.17260 1.39919
1739.12417 1.39891
1737.07573 1.39943
1735.02729 1.40197
1732.97885 1.40391
1730.93041 1.40066
1728.88197 1.39624
1726.83354 1.39346
1724.78510 1.39298
1722.73666 1.39391
1720.68822 1.39612
1718.63978 1.40150
1716.59134 1.40660
1714.54291 1.40306
1712.49447 1.39783
1710.44603 1.39555
1708.39759 1.39628
1706.34915 1.39877
1704.30071 1.40014
1702.25228 1.40074
1700.20384 1.40458
1698.15540 1.40791
1696.10696 1.40466
1694.05852 1.39918
1692.01008 1.39657
1689.96165 1.39688
1687.91321 1.39883
1685.86477 1.40215
1683.81633 1.40527
1681.76789 1.40248
1679.71945 1.39822
1677.67102 1.39600
1675.62258 1.39643
1673.57414 1.39777
1671.52570 1.39926
1669.47726 1.39984
1667.42882 1.39714
1665.38038 1.39519
1663.33195 1.39583
1661.28351 1.39628
1659.23507 1.39557
1657.18663 1.39630
1655.13819 1.39963
1653.08975 1.40403
1651.04132 1.40323
1648.99288 1.40288
1646.94444 1.40333
1644.89600 1.39931
1642.84756 1.39531
1640.79912 1.39428
1638.75069 1.39536
1636.70225 1.39719
1634.65381 1.39600
1632.60537 1.39277
1630.55693 1.39138
1628.50849 1.39172
1626.46006 1.39198
1624.41162 1.39204
1622.36318 1.39172
1620.31474 1.39077
1618.26630 1.39122
1616.21786 1.39154
1614.16943 1.38885
1612.12099 1.38696
1610.07255 1.38731
1608.02411 1.38763
1605.97567 1.38658
1603.92723 1.38566
1601.87880 1.38492
1599.83036 1.38378
1597.78192 1.38325
1595.73348 1.38329
1593.68504 1.38277
1591.63660 1.38187
1589.58817 1.38091
1587.53973 1.37980
1585.49129 1.37909
1583.44285 1.37917
1581.39441 1.37984
1579.34597 1.38122
1577.29754 1.38373
1575.24910 1.38465
1573.20066 1.38278
1571.15222 1.38225
1569.10378 1.38313
1567.05534 1.38248
1565.00691 1.38130
1562.95847 1.38082
1560.91003 1.38203
1558.86159 1.38739
1556.81315 1.38871
1554.76471 1.38528
1552.71628 1.38216
1550.66784 1.38076
1548.61940 1.38022
1546.57096 1.38109
1544.52252 1.38502
1542.47408 1.39050
1540.42565 1.39167
1538.37721 1.38546
1536.32877 1.38175
1534.28033 1.38124
1532.23189 1.37991
1530.18345 1.37781
1528.13501 1.37852
1526.08658 1.38171
1524.03814 1.38494
1521.98970 1.38665
1519.94126 1.38472
1517.89282 1.38262
1515.84438 1.38048
1513.79595 1.37764
1511.74751 1.37741
1509.69907 1.38110
1507.65063 1.38561
1505.60219 1.38044
1503.55375 1.37397
1501.50532 1.37144
1499.45688 1.37168
1497.40844 1.37267
1495.36000 1.37090
1493.31156 1.36893
1491.26312 1.37045
1489.21469 1.37289
1487.16625 1.36962
1485.11781 1.36507
1483.06937 1.36294
1481.02093 1.36230
1478.97249 1.36202
1476.92406 1.36323
1474.87562 1.36704
1472.82718 1.36890
1470.77874 1.36421
1468.73030 1.36024
1466.68186 1.35984
1464.63343 1.36029
1462.58499 1.35933
1460.53655 1.35994
1458.48811 1.36409
1456.43967 1.36580
1454.39123 1.36091
1452.34280 1.35683
1450.29436 1.35504
1448.24592 1.35452
1446.19748 1.35329
1444.14904 1.35146
1442.10060 1.35019
1440.05217 1.35041
1438.00373 1.35246
1435.95529 1.35366
1433.90685 1.35229
1431.85841 1.35149
1429.80997 1.35123
1427.76154 1.35032
1425.71310 1.35001
1423.66466 1.35037
1421.61622 1.35087
1419.56778 1.35248
1417.51934 1.35237
1415.47091 1.34919
1413.42247 1.34681
1411.37403 1.34606
1409.32559 1.34576
1407.27715 1.34574
1405.22871 1.34606
1403.18028 1.34587
1401.13184 1.34617
1399.08340 1.34787
1397.03496 1.34914
1394.98652 1.34790
1392.93808 1.34445
1390.88965 1.34161
1388.84121 1.34064
1386.79277 1.33955
1384.74433 1.33697
1382.69589 1.33488
1380.64745 1.33417
1378.59901 1.33410
1376.55058 1.33454
1374.50214 1.33483
1372.45370 1.33342
1370.40526 1.33161
1368.35682 1.33029
1366.30838 1.32944
1364.25995 1.32993
1362.21151 1.32999
1360.16307 1.32741
1358.11463 1.32490
1356.06619 1.32372
1354.01775 1.32258
1351.96932 1.32141
1349.92088 1.32068
1347.87244 1.31975
1345.82400 1.31860
1343.77556 1.31824
1341.72712 1.31949
1339.67869 1.32088
1337.63025 1.31908
1335.58181 1.31560
1333.53337 1.31344
1331.48493 1.31234
1329.43649 1.31111
1327.38806 1.30973
1325.33962 1.30882
1323.29118 1.30851
1321.24274 1.30861
1319.19430 1.30847
1317.14586 1.30728
1315.09743 1.30557
1313.04899 1.30399
1311.00055 1.30250
1308.95211 1.30107
1306.90367 1.29955
1304.85523 1.29816
1302.80680 1.29704
1300.75836 1.29586
1298.70992 1.29467
1296.66148 1.29367
1294.61304 1.29275
1292.56460 1.29176
1290.51617 1.29077
1288.46773 1.28963
1286.41929 1.28824
1284.37085 1.28694
1282.32241 1.28588
1280.27397 1.28508
1278.22554 1.28450
1276.17710 1.28367
1274.12866 1.28261
1272.08022 1.28192
1270.03178 1.28147
1267.98334 1.28091
1265.93491 1.28026
1263.88647 1.27974
1261.83803 1.27936
1259.78959 1.27841
1257.74115 1.27682
1255.69271 1.27534
1253.64428 1.27391
1251.59584 1.27238
1249.54740 1.27120
1247.49896 1.27024
1245.45052 1.26917
1243.40208 1.26788
1241.35364 1.26667
1239.30521 1.26585
1237.25677 1.26507
1235.20833 1.26403
1233.15989 1.26295
1231.11145 1.26201
1229.06301 1.26099
1227.01458 1.25987
1224.96614 1.25885
1222.91770 1.25787
1220.86926 1.25694
1218.82082 1.25602
1216.77238 1.25493
1214.72395 1.25380
1212.67551 1.25286
1210.62707 1.25194
1208.57863 1.25106
1206.53019 1.25033
1204.48175 1.24952
1202.43332 1.24879
1200.38488 1.24835
1198.33644 1.24790
1196.28800 1.24722
1194.23956 1.24645
1192.19112 1.24590
1190.14269 1.24549
1188.09425 1.24501
1186.04581 1.24458
1183.99737 1.24431
1181.94893 1.24418
1179.90049 1.24394
1177.85206 1.24364
1175.80362 1.24358
1173.75518 1.24333
1171.70674 1.24273
1169.65830 1.24231
1167.60986 1.24211
1165.56143 1.24183
1163.51299 1.24151
1161.46455 1.24138
1159.41611 1.24136
1157.36767 1.24122
1155.31923 1.24113
1153.27080 1.24111
1151.22236 1.24088
1149.17392 1.24051
1147.12548 1.24013
1145.07704 1.23956
1143.02860 1.23897
1140.98017 1.23871
1138.93173 1.23850
1136.88329 1.23832
1134.83485 1.23839
1132.78641 1.23836
1130.73797 1.23813
1128.68954 1.23798
1126.64110 1.23774
1124.59266 1.23752
1122.54422 1.23776
1120.49578 1.23816
1118.44734 1.23821
1116.39891 1.23787
1114.35047 1.23765
1112.30203 1.23770
1110.25359 1.23759
1108.20515 1.23738
1106.15671 1.23739
1104.10827 1.23760
1102.05984 1.23779
1100.01140 1.23803
1097.96296 1.23845
1095.91452 1.23869
1093.86608 1.23875
1091.81764 1.23922
1089.76921 1.23992
1087.72077 1.24027
1085.67233 1.24034
1083.62389 1.24001
1081.57545 1.23928
1079.52701 1.23881
1077.47858 1.23887
1075.43014 1.23931
1073.38170 1.23989
1071.33326 1.24015
1069.28482 1.24038
1067.23638 1.24107
1065.18795 1.24189
1063.13951 1.24242
1061.09107 1.24270
1059.04263 1.24301
1056.99419 1.24360
1054.94575 1.24448
1052.89732 1.24541
1050.84888 1.24596
1048.80044 1.24613
1046.75200 1.24630
1044.70356 1.24681
1042.65512 1.24754
1040.60669 1.24826
1038.55825 1.24919
1036.50981 1.25035
1034.46137 1.25138
1032.41293 1.25242
1030.36449 1.25370
1028.31606 1.25514
1026.26762 1.25681
1024.21918 1.25844
1022.17074 1.25945
1020.12230 1.26023
1018.07386 1.26130
1016.02543 1.26230
1013.97699 1.26294
1011.92855 1.26343
1009.88011 1.26389
1007.83167 1.26433
1005.78323 1.26470
1003.73480 1.26489
1001.68636 1.26506
999.63792 1.26552
997.58948 1.26622
995.54104 1.26678
993.49260 1.26693
991.44417 1.26701
989.39573 1.26726
987.34729 1.26753
985.29885 1.26780
983.25041 1.26782
981.20197 1.26736
979.15354 1.26700
977.10510 1.26706
975.05666 1.26746
973.00822 1.26805
970.95978 1.26844
968.91134 1.26829
966.86290 1.26787
964.81447 1.26754
962.76603 1.26727
960.71759 1.26712
958.66915 1.26726
956.62071 1.26759
954.57227 1.26779
952.52384 1.26797
950.47540 1.26835
948.42696 1.26869
946.37852 1.26887
944.33008 1.26924
942.28164 1.27016
940.23321 1.27147
938.18477 1.27284
936.13633 1.27411
934.08789 1.27508
932.03945 1.27610
929.99101 1.27749
927.94258 1.27895
925.89414 1.28034
923.84570 1.28171
921.79726 1.28301
919.74882 1.28418
917.70038 1.28527
915.65195 1.28608
913.60351 1.28639
911.55507 1.28648
909.50663 1.28645
907.45819 1.28626
905.40975 1.28603
903.36132 1.28587
901.31288 1.28560
899.26444 1.28493
897.21600 1.28405
895.16756 1.28334
893.11912 1.28282
891.07069 1.28250
889.02225 1.28213
886.97381 1.28090
884.92537 1.27908
882.87693 1.27768
880.82849 1.27655
878.78006 1.27528
876.73162 1.27390
874.68318 1.27234
872.63474 1.27065
870.58630 1.26886
868.53786 1.26682
866.48943 1.26487
864.44099 1.26311
862.39255 1.26147
860.34411 1.26016
858.29567 1.25922
856.24723 1.25828
854.19880 1.25717
852.15036 1.25621
850.10192 1.25538
848.05348 1.25426
846.00504 1.25291
843.95660 1.25206
841.90817 1.25195
839.85973 1.25180
837.81129 1.25136
835.76285 1.25123
833.71441 1.25139
831.66597 1.25137
829.61753 1.25158
827.56910 1.25214
825.52066 1.25259
823.47222 1.25317
821.42378 1.25387
819.37534 1.25437
817.32690 1.25468
815.27847 1.25508
813.23003 1.25574
811.18159 1.25620
809.13315 1.25631
807.08471 1.25645
805.03627 1.25621
802.98784 1.25521
800.93940 1.25405
798.89096 1.25361
796.84252 1.25346
794.79408 1.25207
792.74564 1.24966
790.69721 1.24785
788.64877 1.24652
786.60033 1.24485
784.55189 1.24270
782.50345 1.23987
780.45501 1.23653
778.40658 1.23389
776.35814 1.23205
774.30970 1.22973
772.26126 1.22660
770.21282 1.22346
768.16438 1.22122
766.11595 1.21960
764.06751 1.21737
762.01907 1.21440
759.97063 1.21130
757.92219 1.20872
755.87375 1.20716
753.82532 1.20597
751.77688 1.20411
749.72844 1.20182
747.68000 1.20002
745.63156 1.19842
743.58312 1.19609
741.53469 1.19364
739.48625 1.19136
737.43781 1.18870
735.38937 1.18623
733.34093 1.18436
731.29249 1.18270
729.24406 1.18142
727.19562 1.18086
725.14718 1.18047
723.09874 1.17977
721.05030 1.17898
719.00186 1.17795
716.95343 1.17675
714.90499 1.17552
712.85655 1.17412
710.80811 1.17296
708.75967 1.17232
706.71123 1.17283
704.66280 1.17388
702.61436 1.17318
700.56592 1.17137
698.51748 1.17066
696.46904 1.17057
694.42060 1.17001
692.37216 1.16930
690.32373 1.16864
688.27529 1.16805
686.22685 1.16782
684.17841 1.16795
682.12997 1.16755
680.08153 1.16591
678.03310 1.16410
675.98466 1.16230
673.93622 1.16140
671.88778 1.16205
669.83934 1.16247
667.79090 1.16233
665.74247 1.16086
663.69403 1.15785
661.64559 1.15540
659.59715 1.15363
657.54871 1.14936
655.50027 1.14289
653.45184 1.13758
651.40340 1.13236
649.35496 1.12539
647.30652 1.11917
645.25808 1.11344
643.20964 1.10538
641.16121 1.09571
639.11277 1.08741
637.06433 1.08280
635.01589 1.08028
632.96745 1.07648
630.91901 1.07062
628.87058 1.06398
626.82214 1.05727
624.77370 1.05144
622.72526 1.05011
620.67682 1.05093
618.62838 1.04457
616.57995 1.03015
614.53151 1.01799
612.48307 1.01635
610.43463 1.01826
608.38619 1.01381
606.33775 1.00875
604.28932 1.00528
602.24088 0.99490
600.19244 0.98095
598.14400 0.97256
