3996.50324 0.57329
3994.45480 0.57365
3992.40636 0.57388
3990.35792 0.57381
3988.30948 0.57321
3986.26104 0.57249
3984.21261 0.57226
3982.16417 0.57236
3980.11573 0.57236
3978.06729 0.57254
3976.01885 0.57321
3973.97041 0.57362
3971.92198 0.57332
3969.87354 0.57267
3967.82510 0.57181
3965.77666 0.57145
3963.72822 0.57230
3961.67978 0.57326
3959.63135 0.57303
3957.58291 0.57239
3955.53447 0.57203
3953.48603 0.57230
3951.43759 0.57394
3949.38915 0.57590
3947.34072 0.57563
3945.29228 0.57472
3943.24384 0.57532
3941.19540 0.57445
3939.14696 0.57182
3937.09852 0.57045
3935.05009 0.57176
3933.00165 0.57541
3930.95321 0.57719
3928.90477 0.57489
3926.85633 0.57378
3924.80789 0.57548
3922.75946 0.57538
3920.71102 0.57426
3918.66258 0.57533
3916.61414 0.57534
3914.56570 0.57195
3912.51726 0.56874
3910.46883 0.56780
3908.42039 0.56955
3906.37195 0.57546
3904.32351 0.58400
3902.27507 0.58763
3900.22663 0.58520
3898.17820 0.57961
3896.12976 0.57432
3894.08132 0.57376
3892.03288 0.57695
3889.98444 0.57626
3887.93600 0.57410
3885.88756 0.57668
3883.83913 0.57956
3881.79069 0.57970
3879.74225 0.57766
3877.69381 0.57358
3875.64537 0.57365
3873.59693 0.57857
3871.54850 0.58338
3869.50006 0.58469
3867.45162 0.58180
3865.40318 0.58136
3863.35474 0.58193
3861.30630 0.57749
3859.25787 0.57403
3857.20943 0.57586
3855.16099 0.58384
3853.11255 0.59385
3851.06411 0.58732
3849.01567 0.57624
3846.96724 0.57067
3844.91880 0.57184
3842.87036 0.57755
3840.82192 0.58447
3838.77348 0.58944
3836.72504 0.58723
3834.67661 0.58141
3832.62817 0.57707
3830.57973 0.57404
3828.53129 0.57286
3826.48285 0.57365
3824.43441 0.57508
3822.38598 0.58028
3820.33754 0.58603
3818.28910 0.58327
3816.24066 0.57875
3814.19222 0.57257
3812.14378 0.56654
3810.09535 0.56523
3808.04691 0.56986
3805.99847 0.57509
3803.95003 0.57744
3801.90159 0.58157
3799.85315 0.58125
3797.80472 0.57620
3795.75628 0.57069
3793.70784 0.56492
3791.65940 0.56161
3789.61096 0.56117
3787.56252 0.56279
3785.51409 0.56543
3783.46565 0.56578
3781.41721 0.56554
3779.36877 0.56689
3777.32033 0.56504
3775.27189 0.56158
3773.22346 0.56157
3771.17502 0.56577
3769.12658 0.56982
3767.07814 0.56980
3765.02970 0.56796
3762.98126 0.56621
3760.93283 0.56803
3758.88439 0.57262
3756.83595 0.57336
3754.78751 0.57366
3752.73907 0.58081
3750.69063 0.59210
3748.64219 0.59103
3746.59376 0.58530
3744.54532 0.58266
3742.49688 0.57987
3740.44844 0.57692
3738.40000 0.57842
3736.35156 0.58637
3734.30313 0.58992
3732.25469 0.58112
3730.20625 0.57205
3728.15781 0.56926
3726.10937 0.57165
3724.06093 0.57350
3722.01250 0.57159
3719.96406 0.56770
3717.91562 0.56411
3715.86718 0.56320
3713.81874 0.56760
3711.77030 0.57666
3709.72187 0.57661
3707.67343 0.56813
3705.62499 0.56264
3703.57655 0.56236
3701.52811 0.56395
3699.47967 0.56247
3697.43124 0.56050
3695.38280 0.56054
3693.33436 0.56333
3691.28592 0.57069
3689.23748 0.57661
3687.18904 0.57054
3685.14061 0.56231
3683.09217 0.55850
3681.04373 0.55982
3678.99529 0.56521
3676.94685 0.57365
3674.89841 0.57885
3672.84998 0.57562
3670.80154 0.57456
3668.75310 0.57093
3666.70466 0.56168
3664.65622 0.55550
3662.60778 0.55380
3660.55935 0.55444
3658.51091 0.55692
3656.46247 0.56081
3654.41403 0.56221
3652.36559 0.56504
3650.31715 0.57738
3648.26872 0.58489
3646.22028 0.57277
3644.17184 0.56217
3642.12340 0.55750
3640.07496 0.55573
3638.02652 0.55495
3635.97809 0.55552
3633.92965 0.55773
3631.88121 0.56148
3629.83277 0.56855
3627.78433 0.57051
3625.73589 0.56235
3623.68746 0.55716
3621.63902 0.55923
3619.59058 0.56604
3617.54214 0.56843
3615.49370 0.56708
3613.44526 0.56645
3611.39682 0.56471
3609.34839 0.56359
3607.29995 0.56185
3605.25151 0.55729
3603.20307 0.55521
3601.15463 0.55732
3599.10619 0.55920
3597.05776 0.55946
3595.00932 0.55931
3592.96088 0.55716
3590.91244 0.55563
3588.86400 0.55954
3586.81556 0.56316
3584.76713 0.55827
3582.71869 0.55301
3580.67025 0.55122
3578.62181 0.55105
3576.57337 0.55078
3574.52493 0.55003
3572.47650 0.54959
3570.42806 0.55213
3568.37962 0.56008
3566.33118 0.56602
3564.28274 0.56095
3562.23430 0.55441
3560.18587 0.55090
3558.13743 0.54866
3556.08899 0.54784
3554.04055 0.54942
3551.99211 0.55088
3549.94367 0.55052
3547.89524 0.55180
3545.84680 0.55421
3543.79836 0.55235
3541.74992 0.54782
3539.70148 0.54541
3537.65304 0.54579
3535.60461 0.54607
3533.55617 0.54526
3531.50773 0.54597
3529.45929 0.54875
3527.41085 0.55085
3525.36241 0.55120
3523.31398 0.55026
3521.26554 0.54766
3519.21710 0.54506
3517.16866 0.54374
3515.12022 0.54326
3513.07178 0.54386
3511.02335 0.54558
3508.97491 0.54627
3506.92647 0.54567
3504.87803 0.54671
3502.82959 0.54806
3500.78115 0.54626
3498.73272 0.54399
3496.68428 0.54343
3494.63584 0.54297
3492.58740 0.54215
3490.53896 0.54226
3488.49052 0.54304
3486.44209 0.54314
3484.39365 0.54324
3482.34521 0.54408
3480.29677 0.54380
3478.24833 0.54228
3476.19989 0.54159
3474.15146 0.54164
3472.10302 0.54139
3470.05458 0.54114
3468.00614 0.54121
3465.95770 0.54129
3463.90926 0.54146
3461.86082 0.54169
3459.81239 0.54128
3457.76395 0.54063
3455.71551 0.54029
3453.66707 0.54002
3451.61863 0.53999
3449.57019 0.54108
3447.52176 0.54284
3445.47332 0.54306
3443.42488 0.54194
3441.37644 0.54084
3439.32800 0.53992
3437.27956 0.53936
3435.23113 0.53919
3433.18269 0.53936
3431.13425 0.53951
3429.08581 0.53931
3427.03737 0.53901
3424.98893 0.53915
3422.94050 0.54013
3420.89206 0.54102
3418.84362 0.54049
3416.79518 0.53928
3414.74674 0.53863
3412.69830 0.53840
3410.64987 0.53818
3408.60143 0.53813
3406.55299 0.53832
3404.50455 0.53852
3402.45611 0.53853
3400.40767 0.53841
3398.35924 0.53855
3396.31080 0.53883
3394.26236 0.53898
3392.21392 0.53882
3390.16548 0.53815
3388.11704 0.53773
3386.06861 0.53803
3384.02017 0.53823
3381.97173 0.53784
3379.92329 0.53744
3377.87485 0.53735
3375.82641 0.53731
3373.77798 0.53710
3371.72954 0.53693
3369.68110 0.53713
3367.63266 0.53755
3365.58422 0.53774
3363.53578 0.53754
3361.48735 0.53721
3359.43891 0.53703
3357.39047 0.53700
3355.34203 0.53683
3353.29359 0.53646
3351.24515 0.53623
3349.19672 0.53620
3347.14828 0.53612
3345.09984 0.53594
3343.05140 0.53583
3341.00296 0.53586
3338.95452 0.53610
3336.90609 0.53650
3334.85765 0.53648
3332.80921 0.53600
3330.76077 0.53569
3328.71233 0.53580
3326.66389 0.53600
3324.61545 0.53591
3322.56702 0.53566
3320.51858 0.53552
3318.47014 0.53546
3316.42170 0.53542
3314.37326 0.53547
3312.32482 0.53566
3310.27639 0.53595
3308.22795 0.53593
3306.17951 0.53540
3304.13107 0.53497
3302.08263 0.53494
3300.03419 0.53504
3297.98576 0.53515
3295.93732 0.53526
3293.88888 0.53543
3291.84044 0.53560
3289.79200 0.53556
3287.74356 0.53542
3285.69513 0.53538
3283.64669 0.53542
3281.59825 0.53540
3279.54981 0.53537
3277.50137 0.53550
3275.45293 0.53564
3273.40450 0.53552
3271.35606 0.53515
3269.30762 0.53485
3267.25918 0.53478
3265.21074 0.53479
3263.16230 0.53474
3261.11387 0.53471
3259.06543 0.53483
3257.01699 0.53497
3254.96855 0.53496
3252.92011 0.53466
3250.87167 0.53425
3248.82324 0.53416
3246.77480 0.53457
3244.72636 0.53486
3242.67792 0.53448
3240.62948 0.53395
3238.58104 0.53377
3236.53261 0.53370
3234.48417 0.53355
3232.43573 0.53345
3230.38729 0.53342
3228.33885 0.53340
3226.29041 0.53317
3224.24198 0.53283
3222.19354 0.53282
3220.14510 0.53300
3218.09666 0.53288
3216.04822 0.53268
3213.99978 0.53253
3211.95135 0.53223
3209.90291 0.53197
3207.85447 0.53167
3205.80603 0.53127
3203.75759 0.53103
3201.70915 0.53100
3199.66072 0.53116
3197.61228 0.53117
3195.56384 0.53064
3193.51540 0.52991
3191.46696 0.52954
3189.41852 0.52958
3187.37008 0.52979
3185.32165 0.52988
3183.27321 0.52961
3181.22477 0.52939
3179.17633 0.52954
3177.12789 0.52950
3175.07945 0.52899
3173.03102 0.52853
3170.98258 0.52834
3168.93414 0.52824
3166.88570 0.52812
3164.83726 0.52793
3162.78882 0.52765
3160.74039 0.52736
3158.69195 0.52720
3156.64351 0.52709
3154.59507 0.52695
3152.54663 0.52681
3150.49819 0.52661
3148.44976 0.52631
3146.40132 0.52604
3144.35288 0.52587
3142.30444 0.52575
3140.25600 0.52553
3138.20756 0.52525
3136.15913 0.52515
3134.11069 0.52527
3132.06225 0.52517
3130.01381 0.52478
3127.96537 0.52461
3125.91693 0.52470
3123.86850 0.52475
3121.82006 0.52463
3119.77162 0.52440
3117.72318 0.52413
3115.67474 0.52370
3113.62630 0.52320
3111.57787 0.52282
3109.52943 0.52253
3107.48099 0.52229
3105.43255 0.52222
3103.38411 0.52241
3101.33567 0.52255
3099.28724 0.52229
3097.23880 0.52195
3095.19036 0.52174
3093.14192 0.52129
3091.09348 0.52075
3089.04504 0.52042
3086.99661 0.52022
3084.94817 0.52015
3082.89973 0.52035
3080.85129 0.52058
3078.80285 0.52045
3076.75441 0.51999
3074.70598 0.51947
3072.65754 0.51914
3070.60910 0.51906
3068.56066 0.51928
3066.51222 0.51954
3064.46378 0.51943
3062.41535 0.51900
3060.36691 0.51868
3058.31847 0.51867
3056.27003 0.51866
3054.22159 0.51830
3052.17315 0.51794
3050.12471 0.51797
3048.07628 0.51798
3046.02784 0.51764
3043.97940 0.51725
3041.93096 0.51707
3039.88252 0.51701
3037.83408 0.51709
3035.78565 0.51731
3033.73721 0.51758
3031.68877 0.51765
3029.64033 0.51728
3027.59189 0.51686
3025.54345 0.51663
3023.49502 0.51636
3021.44658 0.51609
3019.39814 0.51593
3017.34970 0.51589
3015.30126 0.51607
3013.25282 0.51631
3011.20439 0.51631
3009.15595 0.51598
3007.10751 0.51559
3005.05907 0.51546
3003.01063 0.51541
3000.96219 0.51520
2998.91376 0.51495
2996.86532 0.51483
2994.81688 0.51478
2992.76844 0.51462
2990.72000 0.51441
2988.67156 0.51436
2986.62313 0.51440
2984.57469 0.51428
2982.52625 0.51397
2980.47781 0.51374
2978.42937 0.51371
2976.38093 0.51370
2974.33250 0.51361
2972.28406 0.51343
2970.23562 0.51323
2968.18718 0.51313
2966.13874 0.51311
2964.09030 0.51309
2962.04187 0.51311
2959.99343 0.51308
2957.94499 0.51299
2955.89655 0.51296
2953.84811 0.51291
2951.79967 0.51270
2949.75124 0.51243
2947.70280 0.51220
2945.65436 0.51199
2943.60592 0.51188
2941.55748 0.51188
2939.50904 0.51196
2937.46061 0.51210
2935.41217 0.51216
2933.36373 0.51210
2931.31529 0.51206
2929.26685 0.51215
2927.21841 0.51240
2925.16998 0.51273
2923.12154 0.51302
2921.07310 0.51319
2919.02466 0.51330
2916.97622 0.51345
2914.92778 0.51359
2912.87934 0.51362
2910.83091 0.51354
2908.78247 0.51334
2906.73403 0.51312
2904.68559 0.51296
2902.63715 0.51278
2900.58871 0.51255
2898.54028 0.51238
2896.49184 0.51230
2894.44340 0.51223
2892.39496 0.51211
2890.34652 0.51194
2888.29808 0.51171
2886.24965 0.51146
2884.20121 0.51128
2882.15277 0.51117
2880.10433 0.51101
2878.05589 0.51079
2876.00745 0.51056
2873.95902 0.51037
2871.91058 0.51018
2869.86214 0.51000
2867.81370 0.50989
2865.76526 0.50979
2863.71682 0.50969
2861.66839 0.50963
2859.61995 0.50963
2857.57151 0.50977
2855.52307 0.51004
2853.47463 0.51034
2851.42619 0.51059
2849.37776 0.51069
2847.32932 0.51066
2845.28088 0.51054
2843.23244 0.51029
2841.18400 0.50995
2839.13556 0.50969
2837.08713 0.50949
2835.03869 0.50931
2832.99025 0.50917
2830.94181 0.50904
2828.89337 0.50886
2826.84493 0.50869
2824.79650 0.50859
2822.74806 0.50844
2820.69962 0.50817
2818.65118 0.50795
2816.60274 0.50785
2814.55430 0.50772
2812.50587 0.50750
2810.45743 0.50731
2808.40899 0.50723
2806.36055 0.50716
2804.31211 0.50700
2802.26367 0.50685
2800.21524 0.50668
2798.16680 0.50649
2796.11836 0.50637
2794.06992 0.50631
2792.02148 0.50621
2789.97304 0.50604
2787.92461 0.50587
2785.87617 0.50574
2783.82773 0.50559
2781.77929 0.50547
2779.73085 0.50546
2777.68241 0.50547
2775.63397 0.50539
2773.58554 0.50524
2771.53710 0.50509
2769.48866 0.50498
2767.44022 0.50481
2765.39178 0.50462
2763.34334 0.50448
2761.29491 0.50440
2759.24647 0.50430
2757.19803 0.50418
2755.14959 0.50411
2753.10115 0.50411
2751.05271 0.50402
2749.00428 0.50376
2746.95584 0.50354
2744.90740 0.50347
2742.85896 0.50340
2740.81052 0.50323
2738.76208 0.50306
2736.71365 0.50293
2734.66521 0.50278
2732.61677 0.50264
2730.56833 0.50258
2728.51989 0.50253
2726.47145 0.50236
2724.42302 0.50210
2722.37458 0.50197
2720.32614 0.50195
2718.27770 0.50191
2716.22926 0.50176
2714.18082 0.50158
2712.13239 0.50153
2710.08395 0.50153
2708.03551 0.50146
2705.98707 0.50136
2703.93863 0.50125
2701.89019 0.50110
2699.84176 0.50097
2697.79332 0.50085
2695.74488 0.50071
2693.69644 0.50065
2691.64800 0.50062
2689.59956 0.50048
2687.55113 0.50029
2685.50269 0.50021
2683.45425 0.50014
2681.40581 0.49999
2679.35737 0.49988
2677.30893 0.49987
2675.26050 0.49983
2673.21206 0.49966
2671.16362 0.49942
2669.11518 0.49924
2667.06674 0.49911
2665.01830 0.49893
2662.96987 0.49878
2660.92143 0.49871
2658.87299 0.49866
2656.82455 0.49854
2654.77611 0.49833
2652.72767 0.49815
2650.67924 0.49803
2648.63080 0.49794
2646.58236 0.49786
2644.53392 0.49779
2642.48548 0.49772
2640.43704 0.49761
2638.38860 0.49748
2636.34017 0.49736
2634.29173 0.49725
2632.24329 0.49718
2630.19485 0.49716
2628.14641 0.49708
2626.09797 0.49691
2624.04954 0.49679
2622.00110 0.49675
2619.95266 0.49666
2617.90422 0.49654
2615.85578 0.49641
2613.80734 0.49632
2611.75891 0.49621
2609.71047 0.49609
2607.66203 0.49598
2605.61359 0.49585
2603.56515 0.49570
2601.51671 0.49560
2599.46828 0.49552
2597.41984 0.49536
2595.37140 0.49518
2593.32296 0.49507
2591.27452 0.49506
2589.22608 0.49503
2587.17765 0.49483
2585.12921 0.49459
2583.08077 0.49447
2581.03233 0.49442
2578.98389 0.49431
2576.93545 0.49414
2574.88702 0.49400
2572.83858 0.49391
2570.79014 0.49389
2568.74170 0.49382
2566.69326 0.49363
2564.64482 0.49343
2562.59639 0.49332
2560.54795 0.49326
2558.49951 0.49321
2556.45107 0.49316
2554.40263 0.49312
2552.35419 0.49304
2550.30576 0.49293
2548.25732 0.49287
2546.20888 0.49284
2544.16044 0.49273
2542.11200 0.49258
2540.06356 0.49247
2538.01513 0.49235
2535.96669 0.49219
2533.91825 0.49205
2531.86981 0.49186
2529.82137 0.49166
2527.77293 0.49159
2525.72450 0.49158
2523.67606 0.49148
2521.62762 0.49140
2519.57918 0.49140
2517.53074 0.49135
2515.48230 0.49118
2513.43387 0.49103
2511.38543 0.49089
2509.33699 0.49069
2507.28855 0.49048
2505.24011 0.49039
2503.19167 0.49036
2501.14324 0.49029
2499.09480 0.49017
2497.04636 0.49003
2494.99792 0.48987
2492.94948 0.48971
2490.90104 0.48959
2488.85260 0.48957
2486.80417 0.48956
2484.75573 0.48949
2482.70729 0.48940
2480.65885 0.48933
2478.61041 0.48921
2476.56197 0.48906
2474.51354 0.48892
2472.46510 0.48883
2470.41666 0.48875
2468.36822 0.48870
2466.31978 0.48867
2464.27134 0.48858
2462.22291 0.48842
2460.17447 0.48829
2458.12603 0.48822
2456.07759 0.48813
2454.02915 0.48801
2451.98071 0.48789
2449.93228 0.48775
2447.88384 0.48760
2445.83540 0.48747
2443.78696 0.48738
2441.73852 0.48731
2439.69008 0.48718
2437.64165 0.48713
2435.59321 0.48718
2433.54477 0.48712
2431.49633 0.48692
2429.44789 0.48675
2427.39945 0.48662
2425.35102 0.48648
2423.30258 0.48637
2421.25414 0.48627
2419.20570 0.48613
2417.15726 0.48599
2415.10882 0.48595
2413.06039 0.48595
2411.01195 0.48586
2408.96351 0.48571
2406.91507 0.48559
2404.86663 0.48551
2402.81819 0.48545
2400.76976 0.48535
2398.72132 0.48525
2396.67288 0.48522
2394.62444 0.48521
2392.57600 0.48513
2390.52756 0.48505
2388.47913 0.48508
2386.43069 0.48535
2384.38225 0.48601
2382.33381 0.48716
2380.28537 0.48864
2378.23693 0.49022
2376.18850 0.49186
2374.14006 0.49366
2372.09162 0.49561
2370.04318 0.49768
2367.99474 0.49975
2365.94630 0.50158
2363.89787 0.50291
2361.84943 0.50368
2359.80099 0.50393
2357.75255 0.50362
2355.70411 0.50266
2353.65567 0.50104
2351.60723 0.49876
2349.55880 0.49632
2347.51036 0.49503
2345.46192 0.49589
2343.41348 0.49768
2341.36504 0.49835
2339.31660 0.49824
2337.26817 0.49795
2335.21973 0.49752
2333.17129 0.49715
2331.12285 0.49694
2329.07441 0.49656
2327.02597 0.49590
2324.97754 0.49529
2322.92910 0.49479
2320.88066 0.49403
2318.83222 0.49279
2316.78378 0.49137
2314.73534 0.49023
2312.68691 0.48960
2310.63847 0.48902
2308.59003 0.48814
2306.54159 0.48706
2304.49315 0.48598
2302.44471 0.48513
2300.39628 0.48447
2298.34784 0.48387
2296.29940 0.48331
2294.25096 0.48280
2292.20252 0.48225
2290.15408 0.48170
2288.10565 0.48121
2286.05721 0.48081
2284.00877 0.48048
2281.96033 0.48023
2279.91189 0.48008
2277.86345 0.48006
2275.81502 0.48012
2273.76658 0.48008
2271.71814 0.47994
2269.66970 0.47992
2267.62126 0.47992
2265.57282 0.47980
2263.52439 0.47961
2261.47595 0.47943
2259.42751 0.47932
2257.37907 0.47929
2255.33063 0.47923
2253.28219 0.47910
2251.23376 0.47893
2249.18532 0.47876
2247.13688 0.47857
2245.08844 0.47845
2243.04000 0.47838
2240.99156 0.47828
2238.94313 0.47813
2236.89469 0.47797
2234.84625 0.47781
2232.79781 0.47765
2230.74937 0.47751
2228.70093 0.47739
2226.65250 0.47728
2224.60406 0.47716
2222.55562 0.47705
2220.50718 0.47692
2218.45874 0.47679
2216.41030 0.47671
2214.36186 0.47668
2212.31343 0.47663
2210.26499 0.47648
2208.21655 0.47631
2206.16811 0.47622
2204.11967 0.47615
2202.07123 0.47606
2200.02280 0.47599
2197.97436 0.47596
2195.92592 0.47588
2193.87748 0.47574
2191.82904 0.47563
2189.78060 0.47553
2187.73217 0.47544
2185.68373 0.47536
2183.63529 0.47524
2181.58685 0.47511
2179.53841 0.47504
2177.48997 0.47502
2175.44154 0.47495
2173.39310 0.47485
2171.34466 0.47472
2169.29622 0.47451
2167.24778 0.47431
2165.19934 0.47422
2163.15091 0.47416
2161.10247 0.47407
2159.05403 0.47397
2157.00559 0.47382
2154.95715 0.47360
2152.90871 0.47346
2150.86028 0.47341
2148.81184 0.47330
2146.76340 0.47317
2144.71496 0.47308
2142.66652 0.47299
2140.61808 0.47290
2138.56965 0.47281
2136.52121 0.47276
2134.47277 0.47267
2132.42433 0.47250
2130.37589 0.47238
2128.32745 0.47235
2126.27902 0.47233
2124.23058 0.47227
2122.18214 0.47221
2120.13370 0.47215
2118.08526 0.47212
2116.03682 0.47216
2113.98839 0.47211
2111.93995 0.47185
2109.89151 0.47161
2107.84307 0.47147
2105.79463 0.47139
2103.74619 0.47134
2101.69776 0.47125
2099.64932 0.47113
2097.60088 0.47107
2095.55244 0.47093
2093.50400 0.47077
2091.45556 0.47080
2089.40713 0.47077
2087.35869 0.47048
2085.31025 0.47019
2083.26181 0.47003
2081.21337 0.46990
2079.16493 0.46984
2077.11649 0.46981
2075.06806 0.46977
2073.01962 0.46966
2070.97118 0.46949
2068.92274 0.46953
2066.87430 0.47001
2064.82586 0.47038
2062.77743 0.47001
2060.72899 0.46947
2058.68055 0.46918
2056.63211 0.46899
2054.58367 0.46889
2052.53523 0.46885
2050.48680 0.46874
2048.43836 0.46860
2046.38992 0.46860
2044.34148 0.46885
2042.29304 0.46919
2040.24460 0.46898
2038.19617 0.46833
2036.14773 0.46792
2034.09929 0.46772
2032.05085 0.46754
2030.00241 0.46744
2027.95397 0.46741
2025.90554 0.46741
2023.85710 0.46738
2021.80866 0.46748
2019.76022 0.46820
2017.71178 0.46904
2015.66334 0.46860
2013.61491 0.46736
2011.56647 0.46673
2009.51803 0.46672
2007.46959 0.46674
2005.42115 0.46660
2003.37271 0.46643
2001.32428 0.46638
1999.27584 0.46641
1997.22740 0.46641
1995.17896 0.46711
1993.13052 0.46873
1991.08208 0.46934
1989.03365 0.46828
1986.98521 0.46698
1984.93677 0.46599
1982.88833 0.46548
1980.83989 0.46529
1978.79145 0.46517
1976.74302 0.46507
1974.69458 0.46498
1972.64614 0.46491
1970.59770 0.46533
1968.54926 0.46668
1966.50082 0.46732
1964.45239 0.46607
1962.40395 0.46483
1960.35551 0.46442
1958.30707 0.46432
1956.25863 0.46446
1954.21019 0.46443
1952.16176 0.46403
1950.11332 0.46388
1948.06488 0.46447
1946.01644 0.46590
1943.96800 0.46785
1941.91956 0.46806
1939.87112 0.46568
1937.82269 0.46372
1935.77425 0.46326
1933.72581 0.46328
1931.67737 0.46315
1929.62893 0.46292
1927.58049 0.46300
1925.53206 0.46440
1923.48362 0.46679
1921.43518 0.46743
1919.38674 0.46703
1917.33830 0.46646
1915.28986 0.46445
1913.24143 0.46319
1911.19299 0.46419
1909.14455 0.46520
1907.09611 0.46420
1905.04767 0.46259
1902.99923 0.46178
1900.95080 0.46147
1898.90236 0.46164
1896.85392 0.46270
1894.80548 0.46349
1892.75704 0.46346
1890.70860 0.46431
1888.66017 0.46464
1886.61173 0.46310
1884.56329 0.46179
1882.51485 0.46108
1880.46641 0.46066
1878.41797 0.46052
1876.36954 0.46036
1874.32110 0.46058
1872.27266 0.46266
1870.22422 0.46792
1868.17578 0.47161
1866.12734 0.46786
1864.07891 0.46281
1862.03047 0.46082
1859.98203 0.46058
1857.93359 0.46019
1855.88515 0.45947
1853.83671 0.45902
1851.78828 0.45934
1849.73984 0.46107
1847.69140 0.46414
1845.64296 0.46766
1843.59452 0.46825
1841.54608 0.46423
1839.49765 0.46117
1837.44921 0.46075
1835.40077 0.46057
1833.35233 0.46111
1831.30389 0.46480
1829.25545 0.46802
1827.20702 0.46673
1825.15858 0.46474
1823.11014 0.46227
1821.06170 0.45948
1819.01326 0.45838
1816.96482 0.45835
1814.91639 0.45874
1812.86795 0.46069
1810.81951 0.46276
1808.77107 0.46194
1806.72263 0.45993
1804.67419 0.45983
1802.62575 0.46251
1800.57732 0.46521
1798.52888 0.46509
1796.48044 0.46472
1794.43200 0.46684
1792.38356 0.46961
1790.33512 0.46633
1788.28669 0.46073
1786.23825 0.45880
1784.18981 0.45962
1782.14137 0.46110
1780.09293 0.46197
1778.04449 0.46148
1775.99606 0.46268
1773.94762 0.46803
1771.89918 0.47270
1769.85074 0.46930
1767.80230 0.46321
1765.75386 0.45941
1763.70543 0.45968
1761.65699 0.46217
1759.60855 0.46243
1757.56011 0.46169
1755.51167 0.46078
1753.46323 0.46158
1751.41480 0.46789
1749.36636 0.47523
1747.31792 0.47469
1745.26948 0.47091
1743.22104 0.46849
1741.17260 0.46769
1739.12417 0.46729
1737.07573 0.46736
1735.02729 0.47173
1732.97885 0.47556
1730.93041 0.47004
1728.88197 0.46248
1726.83354 0.45767
1724.78510 0.45705
1722.73666 0.45852
1720.68822 0.46172
1718.63978 0.47134
1716.59134 0.48146
1714.54291 0.47519
1712.49447 0.46559
1710.44603 0.46134
1708.39759 0.46276
1706.34915 0.46809
1704.30071 0.47131
1702.25228 0.47209
1700.20384 0.47733
1698.15540 0.48211
1696.10696 0.47672
1694.05852 0.46657
1692.01008 0.46180
1689.96165 0.46325
1687.91321 0.46696
1685.86477 0.47252
1683.81633 0.47883
1681.76789 0.47413
1679.71945 0.46643
1677.67102 0.46251
1675.62258 0.46353
1673.57414 0.46618
1671.52570 0.46908
1669.47726 0.47009
1667.42882 0.46368
1665.38038 0.45899
1663.33195 0.45986
1661.28351 0.45962
1659.23507 0.45697
1657.18663 0.45803
1655.13819 0.46539
1653.08975 0.47603
1651.04132 0.47461
1648.99288 0.47443
1646.94444 0.47631
1644.89600 0.46783
1642.84756 0.45924
1640.79912 0.45716
1638.75069 0.46121
1636.70225 0.46889
1634.65381 0.46700
1632.60537 0.45833
1630.55693 0.45498
1628.50849 0.45652
1626.46006 0.45899
1624.41162 0.46138
1622.36318 0.46149
1620.31474 0.45904
1618.26630 0.46024
1616.21786 0.46221
1614.16943 0.45755
1612.12099 0.45368
1610.07255 0.45390
1608.02411 0.45454
1605.97567 0.45344
1603.92723 0.45267
1601.87880 0.45216
1599.83036 0.45099
1597.78192 0.45079
1595.73348 0.45189
1593.68504 0.45218
1591.63660 0.45139
1589.58817 0.45050
1587.53973 0.44962
1585.49129 0.44918
1583.44285 0.44941
1581.39441 0.45044
1579.34597 0.45388
1577.29754 0.46095
1575.24910 0.46344
1573.20066 0.45936
1571.15222 0.45946
1569.10378 0.46209
1567.05534 0.46055
1565.00691 0.45904
1562.95847 0.46001
1560.91003 0.46589
1558.86159 0.48076
1556.81315 0.48016
1554.76471 0.47099
1552.71628 0.46493
1550.66784 0.46228
1548.61940 0.46094
1546.57096 0.46335
1544.52252 0.47374
1542.47408 0.48868
1540.42565 0.49335
1538.37721 0.47826
1536.32877 0.46902
1534.28033 0.46803
1532.23189 0.46629
1530.18345 0.46304
1528.13501 0.46541
1526.08658 0.47186
1524.03814 0.47771
1521.98970 0.48245
1519.94126 0.48088
1517.89282 0.47691
1515.84438 0.47180
1513.79595 0.46621
1511.74751 0.46664
1509.69907 0.47539
1507.65063 0.48711
1505.60219 0.47692
1503.55375 0.46312
1501.50532 0.45884
1499.45688 0.46098
1497.40844 0.46384
1495.36000 0.46007
1493.31156 0.45689
1491.26312 0.46170
1489.21469 0.46840
1487.16625 0.46277
1485.11781 0.45400
1483.06937 0.45031
1481.02093 0.44998
1478.97249 0.45082
1476.92406 0.45494
1474.87562 0.46331
1472.82718 0.46757
1470.77874 0.45955
1468.73030 0.45229
1466.68186 0.45198
1464.63343 0.45410
1462.58499 0.45343
1460.53655 0.45591
1458.48811 0.46687
1456.43967 0.47227
1454.39123 0.46176
1452.34280 0.45375
1450.29436 0.45118
1448.24592 0.45149
1446.19748 0.44991
1444.14904 0.44697
1442.10060 0.44581
1440.05217 0.44720
1438.00373 0.45174
1435.95529 0.45541
1433.90685 0.45339
1431.85841 0.45167
1429.80997 0.45131
1427.76154 0.44987
1425.71310 0.44991
1423.66466 0.45181
1421.61622 0.45375
1419.56778 0.45762
1417.51934 0.45768
1415.47091 0.45160
1413.42247 0.44756
1411.37403 0.44661
1409.32559 0.44622
1407.27715 0.44691
1405.22871 0.44869
1403.18028 0.44879
1401.13184 0.44971
1399.08340 0.45386
1397.03496 0.45734
1394.98652 0.45628
1392.93808 0.45120
1390.88965 0.44772
1388.84121 0.44884
1386.79277 0.45012
1384.74433 0.44719
1382.69589 0.44443
1380.64745 0.44432
1378.59901 0.44564
1376.55058 0.44825
1374.50214 0.45072
1372.45370 0.44914
1370.40526 0.44638
1368.35682 0.44522
1366.30838 0.44524
1364.25995 0.44790
1362.21151 0.45026
1360.16307 0.44755
1358.11463 0.44423
1356.06619 0.44320
1354.01775 0.44277
1351.96932 0.44215
1349.92088 0.44189
1347.87244 0.44161
1345.82400 0.44121
1343.77556 0.44208
1341.72712 0.44592
1339.67869 0.45030
1337.63025 0.44903
1335.58181 0.44437
1333.53337 0.44144
1331.48493 0.44057
1329.43649 0.44037
1327.38806 0.44015
1325.33962 0.44008
1323.29118 0.44052
1321.24274 0.44190
1319.19430 0.44348
1317.14586 0.44362
1315.09743 0.44292
1313.04899 0.44217
1311.00055 0.44092
1308.95211 0.43990
1306.90367 0.43943
1304.85523 0.43900
1302.80680 0.43864
1300.75836 0.43849
1298.70992 0.43858
1296.66148 0.43867
1294.61304 0.43854
1292.56460 0.43852
1290.51617 0.43884
1288.46773 0.43908
1286.41929 0.43876
1284.37085 0.43817
1282.32241 0.43785
1280.27397 0.43775
1278.22554 0.43767
1276.17710 0.43766
1274.12866 0.43799
1272.08022 0.43853
1270.03178 0.43861
1267.98334 0.43818
1265.93491 0.43773
1263.88647 0.43757
1261.83803 0.43778
1259.78959 0.43788
1257.74115 0.43754
1255.69271 0.43718
1253.64428 0.43703
1251.59584 0.43691
1249.54740 0.43674
1247.49896 0.43667
1245.45052 0.43674
1243.40208 0.43674
1241.35364 0.43653
1239.30521 0.43632
1237.25677 0.43624
1235.20833 0.43624
1233.15989 0.43621
1231.11145 0.43611
1229.06301 0.43607
1227.01458 0.43617
1224.96614 0.43618
1222.91770 0.43597
1220.86926 0.43577
1218.82082 0.43571
1216.77238 0.43568
1214.72395 0.43572
1212.67551 0.43577
1210.62707 0.43565
1208.57863 0.43545
1206.53019 0.43532
1204.48175 0.43522
1202.43332 0.43514
1200.38488 0.43515
1198.33644 0.43515
1196.28800 0.43501
1194.23956 0.43481
1192.19112 0.43475
1190.14269 0.43483
1188.09425 0.43488
1186.04581 0.43475
1183.99737 0.43456
1181.94893 0.43447
1179.90049 0.43437
1177.85206 0.43427
1175.80362 0.43426
1173.75518 0.43421
1171.70674 0.43402
1169.65830 0.43384
1167.60986 0.43372
1165.56143 0.43360
1163.51299 0.43346
1161.46455 0.43330
1159.41611 0.43316
1157.36767 0.43309
1155.31923 0.43303
1153.27080 0.43291
1151.22236 0.43281
1149.17392 0.43279
1147.12548 0.43276
1145.07704 0.43263
1143.02860 0.43249
1140.98017 0.43244
1138.93173 0.43246
1136.88329 0.43247
1134.83485 0.43242
1132.78641 0.43232
1130.73797 0.43222
1128.68954 0.43219
1126.64110 0.43226
1124.59266 0.43237
1122.54422 0.43254
1120.49578 0.43279
1118.44734 0.43302
1116.39891 0.43311
1114.35047 0.43305
1112.30203 0.43284
1110.25359 0.43251
1108.20515 0.43212
1106.15671 0.43173
1104.10827 0.43138
1102.05984 0.43107
1100.01140 0.43086
1097.96296 0.43073
1095.91452 0.43056
1093.86608 0.43041
1091.81764 0.43036
1089.76921 0.43028
1087.72077 0.43012
1085.67233 0.42998
1083.62389 0.42986
1081.57545 0.42965
1079.52701 0.42936
1077.47858 0.42915
1075.43014 0.42899
1073.38170 0.42877
1071.33326 0.42852
1069.28482 0.42829
1067.23638 0.42806
1065.18795 0.42775
1063.13951 0.42739
1061.09107 0.42708
1059.04263 0.42677
1056.99419 0.42638
1054.94575 0.42600
1052.89732 0.42571
1050.84888 0.42549
1048.80044 0.42527
1046.75200 0.42502
1044.70356 0.42477
1042.65512 0.42446
1040.60669 0.42404
1038.55825 0.42367
1036.50981 0.42351
1034.46137 0.42358
1032.41293 0.42382
1030.36449 0.42419
1028.31606 0.42459
1026.26762 0.42486
1024.21918 0.42495
1022.17074 0.42487
1020.12230 0.42461
1018.07386 0.42423
1016.02543 0.42380
1013.97699 0.42338
1011.92855 0.42300
1009.88011 0.42278
1007.83167 0.42293
1005.78323 0.42342
1003.73480 0.42394
1001.68636 0.42429
999.63792 0.42443
997.58948 0.42439
995.54104 0.42416
993.49260 0.42389
991.44417 0.42367
989.39573 0.42344
987.34729 0.42314
985.29885 0.42276
983.25041 0.42235
981.20197 0.42202
979.15354 0.42177
977.10510 0.42159
975.05666 0.42139
973.00822 0.42103
970.95978 0.42063
968.91134 0.42040
966.86290 0.42028
964.81447 0.42006
962.76603 0.41972
960.71759 0.41945
958.66915 0.41932
956.62071 0.41918
954.57227 0.41888
952.52384 0.41848
950.47540 0.41819
948.42696 0.41806
946.37852 0.41792
944.33008 0.41770
942.28164 0.41743
940.23321 0.41714
938.18477 0.41688
936.13633 0.41669
934.08789 0.41646
932.03945 0.41621
929.99101 0.41605
927.94258 0.41593
925.89414 0.41571
923.84570 0.41542
921.79726 0.41516
919.74882 0.41497
917.70038 0.41481
915.65195 0.41469
913.60351 0.41459
911.55507 0.41460
909.50663 0.41474
907.45819 0.41480
905.40975 0.41469
903.36132 0.41455
901.31288 0.41439
899.26444 0.41412
897.21600 0.41384
895.16756 0.41354
893.11912 0.41322
891.07069 0.41305
889.02225 0.41297
886.97381 0.41279
884.92537 0.41254
882.87693 0.41238
880.82849 0.41230
878.78006 0.41216
876.73162 0.41196
874.68318 0.41176
872.63474 0.41150
870.58630 0.41121
868.53786 0.41098
866.48943 0.41082
864.44099 0.41070
862.39255 0.41054
860.34411 0.41029
858.29567 0.40999
856.24723 0.40978
854.19880 0.40967
852.15036 0.40958
850.10192 0.40937
848.05348 0.40897
846.00504 0.40856
843.95660 0.40835
841.90817 0.40819
839.85973 0.40792
837.81129 0.40764
835.76285 0.40743
833.71441 0.40723
831.66597 0.40701
829.61753 0.40670
827.56910 0.40633
825.52066 0.40602
823.47222 0.40576
821.42378 0.40556
819.37534 0.40542
817.32690 0.40520
815.27847 0.40487
813.23003 0.40449
811.18159 0.40412
809.13315 0.40381
807.08471 0.40352
805.03627 0.40321
802.98784 0.40302
800.93940 0.40302
798.89096 0.40284
796.84252 0.40233
794.79408 0.40187
792.74564 0.40164
790.69721 0.40144
788.64877 0.40114
786.60033 0.40078
784.55189 0.40045
782.50345 0.40018
780.45501 0.40000
778.40658 0.39975
776.35814 0.39939
774.30970 0.39902
772.26126 0.39859
770.21282 0.39812
768.16438 0.39758
766.11595 0.39702
764.06751 0.39670
762.01907 0.39643
759.97063 0.39606
757.92219 0.39567
755.87375 0.39526
753.82532 0.39498
751.77688 0.39475
749.72844 0.39432
747.68000 0.39372
745.63156 0.39322
743.58312 0.39282
741.53469 0.39222
739.48625 0.39142
737.43781 0.39069
735.38937 0.39008
733.34093 0.38951
731.29249 0.38895
729.24406 0.38815
727.19562 0.38704
725.14718 0.38618
723.09874 0.38589
721.05030 0.38573
719.00186 0.38512
716.95343 0.38435
714.90499 0.38381
712.85655 0.38312
710.80811 0.38230
708.75967 0.38185
706.71123 0.38164
704.66280 0.38115
702.61436 0.38037
700.56592 0.37985
698.51748 0.37975
696.46904 0.37948
694.42060 0.37871
692.37216 0.37807
690.32373 0.37807
688.27529 0.37824
686.22685 0.37792
684.17841 0.37703
682.12997 0.37561
680.08153 0.37358
678.03310 0.37118
675.98466 0.36916
673.93622 0.36805
671.88778 0.36819
669.83934 0.36947
667.79090 0.36949
665.74247 0.36661
663.69403 0.36390
661.64559 0.36188
659.59715 0.36084
657.54871 0.36090
655.50027 0.36010
653.45184 0.35746
651.40340 0.35451
649.35496 0.35226
647.30652 0.34950
645.25808 0.34542
643.20964 0.34142
641.16121 0.33877
639.11277 0.33713
637.06433 0.33535
635.01589 0.33236
632.96745 0.32813
630.91901 0.32387
628.87058 0.32092
626.82214 0.31948
624.77370 0.31768
622.72526 0.31459
620.67682 0.31146
618.62838 0.30860
616.57995 0.30578
614.53151 0.30299
612.48307 0.29983
610.43463 0.29624
608.38619 0.29319
606.33775 0.28977
604.28932 0.28452
602.24088 0.27942
600.19244 0.27534
598.14400 0.27010
