3996.50324 1.46660
3994.45480 1.46843
3992.40636 1.46993
3990.35792 1.47004
3988.30948 1.46925
3986.26104 1.46858
3984.21261 1.46815
3982.16417 1.46781
3980.11573 1.46769
3978.06729 1.46825
3976.01885 1.46949
3973.97041 1.46994
3971.92198 1.46905
3969.87354 1.46841
3967.82510 1.46878
3965.77666 1.46929
3963.72822 1.47013
3961.67978 1.47118
3959.63135 1.47094
3957.58291 1.46968
3955.53447 1.46914
3953.48603 1.47003
3951.43759 1.47168
3949.38915 1.47277
3947.34072 1.47277
3945.29228 1.47322
3943.24384 1.47438
3941.19540 1.47409
3939.14696 1.47293
3937.09852 1.47299
3935.05009 1.47414
3933.00165 1.47507
3930.95321 1.47516
3928.90477 1.47501
3926.85633 1.47532
3924.80789 1.47619
3922.75946 1.47662
3920.71102 1.47610
3918.66258 1.47573
3916.61414 1.47579
3914.56570 1.47502
3912.51726 1.47384
3910.46883 1.47351
3908.42039 1.47469
3906.37195 1.47834
3904.32351 1.48387
3902.27507 1.48667
3900.22663 1.48515
3898.17820 1.48176
3896.12976 1.47946
3894.08132 1.47990
3892.03288 1.48164
3889.98444 1.48147
3887.93600 1.48081
3885.88756 1.48169
3883.83913 1.48277
3881.79069 1.48331
3879.74225 1.48320
3877.69381 1.48250
3875.64537 1.48384
3873.59693 1.48661
3871.54850 1.48854
3869.50006 1.49063
3867.45162 1.49204
3865.40318 1.49335
3863.35474 1.49278
3861.30630 1.48896
3859.25787 1.48737
3857.20943 1.48973
3855.16099 1.49438
3853.11255 1.49786
3851.06411 1.49377
3849.01567 1.48846
3846.96724 1.48633
3844.91880 1.48735
3842.87036 1.49027
3840.82192 1.49449
3838.77348 1.49820
3836.72504 1.49750
3834.67661 1.49425
3832.62817 1.49134
3830.57973 1.48912
3828.53129 1.48818
3826.48285 1.48845
3824.43441 1.48942
3822.38598 1.49288
3820.33754 1.49817
3818.28910 1.49858
3816.24066 1.49597
3814.19222 1.49224
3812.14378 1.48901
3810.09535 1.48813
3808.04691 1.49020
3805.99847 1.49320
3803.95003 1.49499
3801.90159 1.49661
3799.85315 1.49610
3797.80472 1.49376
3795.75628 1.49078
3793.70784 1.48761
3791.65940 1.48583
3789.61096 1.48573
3787.56252 1.48737
3785.51409 1.49009
3783.46565 1.49164
3781.41721 1.49252
3779.36877 1.49291
3777.32033 1.49100
3775.27189 1.48956
3773.22346 1.49046
3771.17502 1.49278
3769.12658 1.49446
3767.07814 1.49432
3765.02970 1.49344
3762.98126 1.49261
3760.93283 1.49352
3758.88439 1.49621
3756.83595 1.49703
3754.78751 1.49693
3752.73907 1.50027
3750.69063 1.50631
3748.64219 1.50584
3746.59376 1.50194
3744.54532 1.49961
3742.49688 1.49849
3740.44844 1.49742
3738.40000 1.49806
3736.35156 1.50058
3734.30313 1.50142
3732.25469 1.49884
3730.20625 1.49577
3728.15781 1.49502
3726.10937 1.49701
3724.06093 1.49911
3722.01250 1.49857
3719.96406 1.49604
3717.91562 1.49395
3715.86718 1.49310
3713.81874 1.49385
3711.77030 1.49739
3709.72187 1.49923
3707.67343 1.49675
3705.62499 1.49467
3703.57655 1.49502
3701.52811 1.49690
3699.47967 1.49718
3697.43124 1.49563
3695.38280 1.49441
3693.33436 1.49501
3691.28592 1.49828
3689.23748 1.50118
3687.18904 1.49863
3685.14061 1.49575
3683.09217 1.49568
3681.04373 1.49844
3678.99529 1.50301
3676.94685 1.50818
3674.89841 1.51136
3672.84998 1.51087
3670.80154 1.51102
3668.75310 1.50908
3666.70466 1.50453
3664.65622 1.50286
3662.60778 1.50440
3660.55935 1.50671
3658.51091 1.50961
3656.46247 1.51427
3654.41403 1.51862
3652.36559 1.52298
3650.31715 1.53101
3648.26872 1.53496
3646.22028 1.52904
3644.17184 1.52511
3642.12340 1.52525
3640.07496 1.52728
3638.02652 1.52932
3635.97809 1.53169
3633.92965 1.53547
3631.88121 1.53964
3629.83277 1.54529
3627.78433 1.55032
3625.73589 1.54891
3623.68746 1.54809
3621.63902 1.55180
3619.59058 1.55808
3617.54214 1.56203
3615.49370 1.56502
3613.44526 1.56939
3611.39682 1.57326
3609.34839 1.57588
3607.29995 1.57633
3605.25151 1.57602
3603.20307 1.57815
3601.15463 1.58181
3599.10619 1.58426
3597.05776 1.58600
3595.00932 1.58893
3592.96088 1.59205
3590.91244 1.59480
3588.86400 1.60014
3586.81556 1.60545
3584.76713 1.60380
3582.71869 1.60116
3580.67025 1.60219
3578.62181 1.60507
3576.57337 1.60749
3574.52493 1.60980
3572.47650 1.61262
3570.42806 1.61655
3568.37962 1.62256
3566.33118 1.62802
3564.28274 1.62772
3562.23430 1.62583
3560.18587 1.62600
3558.13743 1.62708
3556.08899 1.62842
3554.04055 1.63123
3551.99211 1.63509
3549.94367 1.63775
3547.89524 1.63964
3545.84680 1.64173
3543.79836 1.64268
3541.74992 1.64235
3539.70148 1.64256
3537.65304 1.64419
3535.60461 1.64608
3533.55617 1.64748
3531.50773 1.64982
3529.45929 1.65368
3527.41085 1.65663
3525.36241 1.65750
3523.31398 1.65870
3521.26554 1.65994
3519.21710 1.65937
3517.16866 1.65845
3515.12022 1.65904
3513.07178 1.66121
3511.02335 1.66435
3508.97491 1.66636
3506.92647 1.66709
3504.87803 1.66962
3502.82959 1.67242
3500.78115 1.67178
3498.73272 1.67059
3496.68428 1.67155
3494.63584 1.67304
3492.58740 1.67357
3490.53896 1.67333
3488.49052 1.67260
3486.44209 1.67199
3484.39365 1.67242
3482.34521 1.67466
3480.29677 1.67710
3478.24833 1.67838
3476.19989 1.68001
3474.15146 1.68133
3472.10302 1.68097
3470.05458 1.68032
3468.00614 1.68082
3465.95770 1.68220
3463.90926 1.68406
3461.86082 1.68532
3459.81239 1.68518
3457.76395 1.68455
3455.71551 1.68424
3453.66707 1.68468
3451.61863 1.68563
3449.57019 1.68783
3447.52176 1.69121
3445.47332 1.69295
3443.42488 1.69241
3441.37644 1.69127
3439.32800 1.69079
3437.27956 1.69099
3435.23113 1.69137
3433.18269 1.69243
3431.13425 1.69402
3429.08581 1.69570
3427.03737 1.69715
3424.98893 1.69742
3422.94050 1.69791
3420.89206 1.69928
3418.84362 1.69878
3416.79518 1.69709
3414.74674 1.69647
3412.69830 1.69622
3410.64987 1.69628
3408.60143 1.69754
3406.55299 1.69926
3404.50455 1.70047
3402.45611 1.70116
3400.40767 1.70202
3398.35924 1.70303
3396.31080 1.70313
3394.26236 1.70270
3392.21392 1.70254
3390.16548 1.70244
3388.11704 1.70227
3386.06861 1.70215
3384.02017 1.70255
3381.97173 1.70337
3379.92329 1.70437
3377.87485 1.70543
3375.82641 1.70581
3373.77798 1.70596
3371.72954 1.70688
3369.68110 1.70802
3367.63266 1.70898
3365.58422 1.70973
3363.53578 1.71002
3361.48735 1.71023
3359.43891 1.71070
3357.39047 1.71097
3355.34203 1.71047
3353.29359 1.70984
3351.24515 1.70937
3349.19672 1.70923
3347.14828 1.70973
3345.09984 1.70909
3343.05140 1.70783
3341.00296 1.70864
3338.95452 1.71037
3336.90609 1.71119
3334.85765 1.71122
3332.80921 1.71085
3330.76077 1.71136
3328.71233 1.71279
3326.66389 1.71387
3324.61545 1.71429
3322.56702 1.71378
3320.51858 1.71288
3318.47014 1.71299
3316.42170 1.71389
3314.37326 1.71461
3312.32482 1.71463
3310.27639 1.71417
3308.22795 1.71362
3306.17951 1.71335
3304.13107 1.71343
3302.08263 1.71354
3300.03419 1.71445
3297.98576 1.71603
3295.93732 1.71670
3293.88888 1.71647
3291.84044 1.71665
3289.79200 1.71812
3287.74356 1.71961
3285.69513 1.71963
3283.64669 1.71916
3281.59825 1.71892
3279.54981 1.71848
3277.50137 1.71808
3275.45293 1.71790
3273.40450 1.71715
3271.35606 1.71617
3269.30762 1.71720
3267.25918 1.71931
3265.21074 1.71951
3263.16230 1.71857
3261.11387 1.71834
3259.06543 1.71853
3257.01699 1.71845
3254.96855 1.71807
3252.92011 1.71746
3250.87167 1.71654
3248.82324 1.71568
3246.77480 1.71535
3244.72636 1.71495
3242.67792 1.71435
3240.62948 1.71468
3238.58104 1.71559
3236.53261 1.71596
3234.48417 1.71627
3232.43573 1.71691
3230.38729 1.71683
3228.33885 1.71597
3226.29041 1.71524
3224.24198 1.71470
3222.19354 1.71474
3220.14510 1.71569
3218.09666 1.71619
3216.04822 1.71536
3213.99978 1.71413
3211.95135 1.71345
3209.90291 1.71347
3207.85447 1.71371
3205.80603 1.71361
3203.75759 1.71353
3201.70915 1.71377
3199.66072 1.71358
3197.61228 1.71275
3195.56384 1.71221
3193.51540 1.71133
3191.46696 1.70934
3189.41852 1.70821
3187.37008 1.70854
3185.32165 1.70842
3183.27321 1.70768
3181.22477 1.70744
3179.17633 1.70707
3177.12789 1.70540
3175.07945 1.70326
3173.03102 1.70236
3170.98258 1.70278
3168.93414 1.70315
3166.88570 1.70251
3164.83726 1.70151
3162.78882 1.70053
3160.74039 1.69929
3158.69195 1.69870
3156.64351 1.69869
3154.59507 1.69796
3152.54663 1.69692
3150.49819 1.69592
3148.44976 1.69433
3146.40132 1.69281
3144.35288 1.69245
3142.30444 1.69256
3140.25600 1.69221
3138.20756 1.69120
3136.15913 1.68968
3134.11069 1.68880
3132.06225 1.68919
3130.01381 1.68971
3127.96537 1.68922
3125.91693 1.68772
3123.86850 1.68645
3121.82006 1.68554
3119.77162 1.68430
3117.72318 1.68374
3115.67474 1.68358
3113.62630 1.68263
3111.57787 1.68156
3109.52943 1.68062
3107.48099 1.67947
3105.43255 1.67903
3103.38411 1.67964
3101.33567 1.67971
3099.28724 1.67875
3097.23880 1.67752
3095.19036 1.67608
3093.14192 1.67474
3091.09348 1.67418
3089.04504 1.67415
3086.99661 1.67303
3084.94817 1.67077
3082.89973 1.66969
3080.85129 1.67013
3078.80285 1.66996
3076.75441 1.66873
3074.70598 1.66785
3072.65754 1.66768
3070.60910 1.66750
3068.56066 1.66643
3066.51222 1.66504
3064.46378 1.66459
3062.41535 1.66470
3060.36691 1.66455
3058.31847 1.66377
3056.27003 1.66255
3054.22159 1.66145
3052.17315 1.66041
3050.12471 1.65967
3048.07628 1.65897
3046.02784 1.65792
3043.97940 1.65688
3041.93096 1.65592
3039.88252 1.65514
3037.83408 1.65455
3035.78565 1.65381
3033.73721 1.65332
3031.68877 1.65324
3029.64033 1.65332
3027.59189 1.65341
3025.54345 1.65251
3023.49502 1.65051
3021.44658 1.64932
3019.39814 1.64928
3017.34970 1.64906
3015.30126 1.64848
3013.25282 1.64793
3011.20439 1.64698
3009.15595 1.64524
3007.10751 1.64358
3005.05907 1.64273
3003.01063 1.64186
3000.96219 1.64015
2998.91376 1.63872
2996.86532 1.63866
2994.81688 1.63857
2992.76844 1.63751
2990.72000 1.63622
2988.67156 1.63523
2986.62313 1.63506
2984.57469 1.63550
2982.52625 1.63546
2980.47781 1.63426
2978.42937 1.63255
2976.38093 1.63186
2974.33250 1.63165
2972.28406 1.63066
2970.23562 1.62982
2968.18718 1.62958
2966.13874 1.62893
2964.09030 1.62756
2962.04187 1.62648
2959.99343 1.62590
2957.94499 1.62551
2955.89655 1.62546
2953.84811 1.62502
2951.79967 1.62433
2949.75124 1.62384
2947.70280 1.62286
2945.65436 1.62205
2943.60592 1.62224
2941.55748 1.62235
2939.50904 1.62126
2937.46061 1.61958
2935.41217 1.61876
2933.36373 1.61871
2931.31529 1.61840
2929.26685 1.61801
2927.21841 1.61772
2925.16998 1.61712
2923.12154 1.61600
2921.07310 1.61458
2919.02466 1.61344
2916.97622 1.61297
2914.92778 1.61308
2912.87934 1.61270
2910.83091 1.61176
2908.78247 1.61122
2906.73403 1.61097
2904.68559 1.61042
2902.63715 1.60966
2900.58871 1.60923
2898.54028 1.60895
2896.49184 1.60850
2894.44340 1.60770
2892.39496 1.60666
2890.34652 1.60613
2888.29808 1.60601
2886.24965 1.60565
2884.20121 1.60484
2882.15277 1.60398
2880.10433 1.60361
2878.05589 1.60351
2876.00745 1.60286
2873.95902 1.60153
2871.91058 1.60065
2869.86214 1.60085
2867.81370 1.60125
2865.76526 1.60086
2863.71682 1.59979
2861.66839 1.59909
2859.61995 1.59871
2857.57151 1.59793
2855.52307 1.59729
2853.47463 1.59678
2851.42619 1.59581
2849.37776 1.59478
2847.32932 1.59420
2845.28088 1.59385
2843.23244 1.59334
2841.18400 1.59287
2839.13556 1.59252
2837.08713 1.59194
2835.03869 1.59121
2832.99025 1.59039
2830.94181 1.58935
2828.89337 1.58890
2826.84493 1.58958
2824.79650 1.59008
2822.74806 1.58960
2820.69962 1.58923
2818.65118 1.58919
2816.60274 1.58904
2814.55430 1.58887
2812.50587 1.58827
2810.45743 1.58736
2808.40899 1.58682
2806.36055 1.58658
2804.31211 1.58664
2802.26367 1.58701
2800.21524 1.58669
2798.16680 1.58548
2796.11836 1.58437
2794.06992 1.58369
2792.02148 1.58330
2789.97304 1.58306
2787.92461 1.58257
2785.87617 1.58177
2783.82773 1.58102
2781.77929 1.58070
2779.73085 1.58120
2777.68241 1.58119
2775.63397 1.57978
2773.58554 1.57849
2771.53710 1.57820
2769.48866 1.57828
2767.44022 1.57839
2765.39178 1.57823
2763.34334 1.57738
2761.29491 1.57662
2759.24647 1.57635
2757.19803 1.57562
2755.14959 1.57471
2753.10115 1.57425
2751.05271 1.57377
2749.00428 1.57313
2746.95584 1.57252
2744.90740 1.57199
2742.85896 1.57151
2740.81052 1.57106
2738.76208 1.57097
2736.71365 1.57096
2734.66521 1.57079
2732.61677 1.57078
2730.56833 1.57050
2728.51989 1.56965
2726.47145 1.56883
2724.42302 1.56821
2722.37458 1.56748
2720.32614 1.56722
2718.27770 1.56784
2716.22926 1.56819
2714.18082 1.56728
2712.13239 1.56607
2710.08395 1.56548
2708.03551 1.56525
2705.98707 1.56534
2703.93863 1.56523
2701.89019 1.56445
2699.84176 1.56357
2697.79332 1.56271
2695.74488 1.56170
2693.69644 1.56118
2691.64800 1.56146
2689.59956 1.56156
2687.55113 1.56064
2685.50269 1.55949
2683.45425 1.55878
2681.40581 1.55817
2679.35737 1.55773
2677.30893 1.55726
2675.26050 1.55685
2673.21206 1.55702
2671.16362 1.55696
2669.11518 1.55627
2667.06674 1.55579
2665.01830 1.55545
2662.96987 1.55459
2660.92143 1.55373
2658.87299 1.55348
2656.82455 1.55338
2654.77611 1.55307
2652.72767 1.55266
2650.67924 1.55240
2648.63080 1.55237
2646.58236 1.55246
2644.53392 1.55282
2642.48548 1.55281
2640.43704 1.55178
2638.38860 1.55080
2636.34017 1.55024
2634.29173 1.54946
2632.24329 1.54884
2630.19485 1.54825
2628.14641 1.54716
2626.09797 1.54637
2624.04954 1.54598
2622.00110 1.54539
2619.95266 1.54496
2617.90422 1.54473
2615.85578 1.54462
2613.80734 1.54432
2611.75891 1.54355
2609.71047 1.54289
2607.66203 1.54251
2605.61359 1.54228
2603.56515 1.54212
2601.51671 1.54212
2599.46828 1.54188
2597.41984 1.54077
2595.37140 1.53942
2593.32296 1.53857
2591.27452 1.53832
2589.22608 1.53819
2587.17765 1.53765
2585.12921 1.53749
2583.08077 1.53811
2581.03233 1.53834
2578.98389 1.53752
2576.93545 1.53617
2574.88702 1.53513
2572.83858 1.53487
2570.79014 1.53497
2568.74170 1.53480
2566.69326 1.53417
2564.64482 1.53335
2562.59639 1.53288
2560.54795 1.53244
2558.49951 1.53175
2556.45107 1.53118
2554.40263 1.53018
2552.35419 1.52901
2550.30576 1.52860
2548.25732 1.52854
2546.20888 1.52834
2544.16044 1.52765
2542.11200 1.52635
2540.06356 1.52540
2538.01513 1.52526
2535.96669 1.52513
2533.91825 1.52457
2531.86981 1.52374
2529.82137 1.52287
2527.77293 1.52236
2525.72450 1.52229
2523.67606 1.52173
2521.62762 1.52061
2519.57918 1.51988
2517.53074 1.51961
2515.48230 1.51935
2513.43387 1.51874
2511.38543 1.51756
2509.33699 1.51633
2507.28855 1.51575
2505.24011 1.51558
2503.19167 1.51548
2501.14324 1.51534
2499.09480 1.51481
2497.04636 1.51396
2494.99792 1.51312
2492.94948 1.51253
2490.90104 1.51218
2488.85260 1.51163
2486.80417 1.51096
2484.75573 1.51056
2482.70729 1.51036
2480.65885 1.51004
2478.61041 1.50913
2476.56197 1.50799
2474.51354 1.50745
2472.46510 1.50696
2470.41666 1.50589
2468.36822 1.50479
2466.31978 1.50420
2464.27134 1.50375
2462.22291 1.50328
2460.17447 1.50290
2458.12603 1.50232
2456.07759 1.50154
2454.02915 1.50079
2451.98071 1.50024
2449.93228 1.50004
2447.88384 1.49960
2445.83540 1.49855
2443.78696 1.49733
2441.73852 1.49647
2439.69008 1.49608
2437.64165 1.49549
2435.59321 1.49456
2433.54477 1.49368
2431.49633 1.49281
2429.44789 1.49198
2427.39945 1.49125
2425.35102 1.49056
2423.30258 1.48989
2421.25414 1.48937
2419.20570 1.48921
2417.15726 1.48935
2415.10882 1.48915
2413.06039 1.48814
2411.01195 1.48684
2408.96351 1.48561
2406.91507 1.48441
2404.86663 1.48346
2402.81819 1.48250
2400.76976 1.48144
2398.72132 1.48077
2396.67288 1.48052
2394.62444 1.48018
2392.57600 1.47938
2390.52756 1.47832
2388.47913 1.47739
2386.43069 1.47653
2384.38225 1.47571
2382.33381 1.47569
2380.28537 1.47650
2378.23693 1.47701
2376.18850 1.47678
2374.14006 1.47594
2372.09162 1.47494
2370.04318 1.47434
2367.99474 1.47376
2365.94630 1.47212
2363.89787 1.47101
2361.84943 1.47254
2359.80099 1.47400
2357.75255 1.47318
2355.70411 1.47208
2353.65567 1.47290
2351.60723 1.47369
2349.55880 1.47281
2347.51036 1.47185
2345.46192 1.47197
2343.41348 1.47117
2341.36504 1.46849
2339.31660 1.46701
2337.26817 1.46708
2335.21973 1.46672
2333.17129 1.46583
2331.12285 1.46571
2329.07441 1.46608
2327.02597 1.46564
2324.97754 1.46507
2322.92910 1.46511
2320.88066 1.46478
2318.83222 1.46381
2316.78378 1.46280
2314.73534 1.46211
2312.68691 1.46210
2310.63847 1.46208
2308.59003 1.46140
2306.54159 1.46095
2304.49315 1.46096
2302.44471 1.46031
2300.39628 1.45909
2298.34784 1.45821
2296.29940 1.45779
2294.25096 1.45773
2292.20252 1.45777
2290.15408 1.45774
2288.10565 1.45752
2286.05721 1.45703
2284.00877 1.45654
2281.96033 1.45644
2279.91189 1.45645
2277.86345 1.45613
2275.81502 1.45578
2273.76658 1.45555
2271.71814 1.45534
2269.66970 1.45519
2267.62126 1.45514
2265.57282 1.45516
2263.52439 1.45503
2261.47595 1.45487
2259.42751 1.45511
2257.37907 1.45526
2255.33063 1.45498
2253.28219 1.45501
2251.23376 1.45543
2249.18532 1.45565
2247.13688 1.45565
2245.08844 1.45553
2243.04000 1.45507
2240.99156 1.45460
2238.94313 1.45452
2236.89469 1.45476
2234.84625 1.45510
2232.79781 1.45522
2230.74937 1.45503
2228.70093 1.45474
2226.65250 1.45503
2224.60406 1.45617
2222.55562 1.45731
2220.50718 1.45760
2218.45874 1.45731
2216.41030 1.45721
2214.36186 1.45738
2212.31343 1.45722
2210.26499 1.45685
2208.21655 1.45693
2206.16811 1.45752
2204.11967 1.45820
2202.07123 1.45837
2200.02280 1.45795
2197.97436 1.45785
2195.92592 1.45855
2193.87748 1.45914
2191.82904 1.45917
2189.78060 1.45914
2187.73217 1.45928
2185.68373 1.45934
2183.63529 1.45919
2181.58685 1.45891
2179.53841 1.45868
2177.48997 1.45896
2175.44154 1.45950
2173.39310 1.45946
2171.34466 1.45888
2169.29622 1.45850
2167.24778 1.45850
2165.19934 1.45828
2163.15091 1.45806
2161.10247 1.45855
2159.05403 1.45966
2157.00559 1.46067
2154.95715 1.46098
2152.90871 1.46063
2150.86028 1.46019
2148.81184 1.45993
2146.76340 1.45965
2144.71496 1.45941
2142.66652 1.45948
2140.61808 1.45972
2138.56965 1.45960
2136.52121 1.45929
2134.47277 1.45911
2132.42433 1.45892
2130.37589 1.45875
2128.32745 1.45855
2126.27902 1.45840
2124.23058 1.45840
2122.18214 1.45853
2120.13370 1.45849
2118.08526 1.45803
2116.03682 1.45751
2113.98839 1.45714
2111.93995 1.45655
2109.89151 1.45565
2107.84307 1.45503
2105.79463 1.45512
2103.74619 1.45537
2101.69776 1.45510
2099.64932 1.45453
2097.60088 1.45400
2095.55244 1.45347
2093.50400 1.45302
2091.45556 1.45285
2089.40713 1.45311
2087.35869 1.45310
2085.31025 1.45259
2083.26181 1.45218
2081.21337 1.45196
2079.16493 1.45193
2077.11649 1.45178
2075.06806 1.45120
2073.01962 1.45074
2070.97118 1.45044
2068.92274 1.44973
2066.87430 1.44905
2064.82586 1.44863
2062.77743 1.44792
2060.72899 1.44721
2058.68055 1.44672
2056.63211 1.44612
2054.58367 1.44537
2052.53523 1.44456
2050.48680 1.44358
2048.43836 1.44265
2046.38992 1.44233
2044.34148 1.44231
2042.29304 1.44198
2040.24460 1.44127
2038.19617 1.44026
2036.14773 1.43937
2034.09929 1.43901
2032.05085 1.43862
2030.00241 1.43781
2027.95397 1.43722
2025.90554 1.43716
2023.85710 1.43695
2021.80866 1.43615
2019.76022 1.43538
2017.71178 1.43500
2015.66334 1.43421
2013.61491 1.43304
2011.56647 1.43193
2009.51803 1.43109
2007.46959 1.43033
2005.42115 1.42930
2003.37271 1.42814
2001.32428 1.42707
1999.27584 1.42625
1997.22740 1.42562
1995.17896 1.42530
1993.13052 1.42551
1991.08208 1.42530
1989.03365 1.42424
1986.98521 1.42278
1984.93677 1.42119
1982.88833 1.41996
1980.83989 1.41939
1978.79145 1.41943
1976.74302 1.41934
1974.69458 1.41854
1972.64614 1.41742
1970.59770 1.41674
1968.54926 1.41686
1966.50082 1.41674
1964.45239 1.41556
1962.40395 1.41430
1960.35551 1.41333
1958.30707 1.41231
1956.25863 1.41140
1954.21019 1.41061
1952.16176 1.40972
1950.11332 1.40883
1948.06488 1.40816
1946.01644 1.40789
1943.96800 1.40832
1941.91956 1.40809
1939.87112 1.40603
1937.82269 1.40415
1935.77425 1.40328
1933.72581 1.40267
1931.67737 1.40210
1929.62893 1.40142
1927.58049 1.40074
1925.53206 1.40101
1923.48362 1.40206
1921.43518 1.40191
1919.38674 1.40066
1917.33830 1.39898
1915.28986 1.39690
1913.24143 1.39585
1911.19299 1.39615
1909.14455 1.39623
1907.09611 1.39490
1905.04767 1.39301
1902.99923 1.39178
1900.95080 1.39118
1898.90236 1.39069
1896.85392 1.39038
1894.80548 1.39014
1892.75704 1.38995
1890.70860 1.39035
1888.66017 1.39023
1886.61173 1.38901
1884.56329 1.38794
1882.51485 1.38699
1880.46641 1.38596
1878.41797 1.38508
1876.36954 1.38432
1874.32110 1.38409
1872.27266 1.38549
1870.22422 1.38886
1868.17578 1.39064
1866.12734 1.38796
1864.07891 1.38488
1862.03047 1.38358
1859.98203 1.38336
1857.93359 1.38312
1855.88515 1.38268
1853.83671 1.38266
1851.78828 1.38314
1849.73984 1.38419
1847.69140 1.38632
1845.64296 1.38934
1843.59452 1.39044
1841.54608 1.38814
1839.49765 1.38640
1837.44921 1.38654
1835.40077 1.38691
1833.35233 1.38764
1831.30389 1.39017
1829.25545 1.39239
1827.20702 1.39200
1825.15858 1.39165
1823.11014 1.39137
1821.06170 1.39058
1819.01326 1.39054
1816.96482 1.39110
1814.91639 1.39184
1812.86795 1.39374
1810.81951 1.39580
1808.77107 1.39584
1806.72263 1.39520
1804.67419 1.39576
1802.62575 1.39794
1800.57732 1.40035
1798.52888 1.40095
1796.48044 1.40116
1794.43200 1.40293
1792.38356 1.40533
1790.33512 1.40460
1788.28669 1.40228
1786.23825 1.40174
1784.18981 1.40243
1782.14137 1.40311
1780.09293 1.40366
1778.04449 1.40371
1775.99606 1.40456
1773.94762 1.40741
1771.89918 1.40946
1769.85074 1.40706
1767.80230 1.40331
1765.75386 1.40092
1763.70543 1.40114
1761.65699 1.40283
1759.60855 1.40311
1757.56011 1.40255
1755.51167 1.40191
1753.46323 1.40235
1751.41480 1.40586
1749.36636 1.40958
1747.31792 1.40870
1745.26948 1.40654
1743.22104 1.40554
1741.17260 1.40545
1739.12417 1.40546
1737.07573 1.40548
1735.02729 1.40806
1732.97885 1.41066
1730.93041 1.40765
1728.88197 1.40317
1726.83354 1.40036
1724.78510 1.40031
1722.73666 1.40175
1720.68822 1.40396
1718.63978 1.41002
1716.59134 1.41769
1714.54291 1.41567
1712.49447 1.41071
1710.44603 1.40885
1708.39759 1.41037
1706.34915 1.41445
1704.30071 1.41751
1702.25228 1.41898
1700.20384 1.42416
1698.15540 1.42966
1696.10696 1.42857
1694.05852 1.42493
1692.01008 1.42395
1689.96165 1.42647
1687.91321 1.42999
1685.86477 1.43393
1683.81633 1.43965
1681.76789 1.44005
1679.71945 1.43796
1677.67102 1.43788
1675.62258 1.44095
1673.57414 1.44486
1671.52570 1.44794
1669.47726 1.45000
1667.42882 1.44852
1665.38038 1.44749
1663.33195 1.44953
1661.28351 1.45118
1659.23507 1.45074
1657.18663 1.45147
1655.13819 1.45516
1653.08975 1.46203
1651.04132 1.46386
1648.99288 1.46476
1646.94444 1.46551
1644.89600 1.46002
1642.84756 1.45476
1640.79912 1.45329
1638.75069 1.45491
1636.70225 1.45785
1634.65381 1.45612
1632.60537 1.45069
1630.55693 1.44703
1628.50849 1.44576
1626.46006 1.44552
1624.41162 1.44499
1622.36318 1.44287
1620.31474 1.44008
1618.26630 1.43934
1616.21786 1.43881
1614.16943 1.43541
1612.12099 1.43232
1610.07255 1.43098
1608.02411 1.43007
1605.97567 1.42858
1603.92723 1.42701
1601.87880 1.42508
1599.83036 1.42298
1597.78192 1.42186
1595.73348 1.42156
1593.68504 1.42062
1591.63660 1.41898
1589.58817 1.41762
1587.53973 1.41661
1585.49129 1.41579
1583.44285 1.41498
1581.39441 1.41420
1579.34597 1.41477
1577.29754 1.41763
1575.24910 1.41814
1573.20066 1.41454
1571.15222 1.41236
1569.10378 1.41168
1567.05534 1.40991
1565.00691 1.40814
1562.95847 1.40705
1560.91003 1.40760
1558.86159 1.41293
1556.81315 1.41386
1554.76471 1.40895
1552.71628 1.40406
1550.66784 1.40105
1548.61940 1.39920
1546.57096 1.39927
1544.52252 1.40320
1542.47408 1.40896
1540.42565 1.40826
1538.37721 1.39894
1536.32877 1.39381
1534.28033 1.39241
1532.23189 1.39020
1530.18345 1.38739
1528.13501 1.38757
1526.08658 1.38976
1524.03814 1.39118
1521.98970 1.39094
1519.94126 1.38793
1517.89282 1.38496
1515.84438 1.38131
1513.79595 1.37716
1511.74751 1.37595
1509.69907 1.37885
1507.65063 1.38251
1505.60219 1.37500
1503.55375 1.36652
1501.50532 1.36289
1499.45688 1.36263
1497.40844 1.36259
1495.36000 1.35843
1493.31156 1.35456
1491.26312 1.35491
1489.21469 1.35628
1487.16625 1.35174
1485.11781 1.34567
1483.06937 1.34200
1481.02093 1.33975
1478.97249 1.33832
1476.92406 1.33879
1474.87562 1.34125
1472.82718 1.34158
1470.77874 1.33613
1468.73030 1.33135
1466.68186 1.32996
1464.63343 1.32914
1462.58499 1.32638
1460.53655 1.32553
1458.48811 1.32914
1456.43967 1.32962
1454.39123 1.32244
1452.34280 1.31659
1450.29436 1.31332
1448.24592 1.31148
1446.19748 1.30871
1444.14904 1.30555
1442.10060 1.30379
1440.05217 1.30363
1438.00373 1.30475
1435.95529 1.30442
1433.90685 1.30131
1431.85841 1.29894
1429.80997 1.29743
1427.76154 1.29554
1425.71310 1.29457
1423.66466 1.29445
1421.61622 1.29426
1419.56778 1.29493
1417.51934 1.29365
1415.47091 1.28957
1413.42247 1.28659
1411.37403 1.28500
1409.32559 1.28329
1407.27715 1.28201
1405.22871 1.28131
1403.18028 1.27977
1401.13184 1.27879
1399.08340 1.27923
1397.03496 1.27894
1394.98652 1.27620
1392.93808 1.27186
1390.88965 1.26899
1388.84121 1.26840
1386.79277 1.26742
1384.74433 1.26443
1382.69589 1.26182
1380.64745 1.26072
1378.59901 1.26044
1376.55058 1.26078
1374.50214 1.26062
1372.45370 1.25806
1370.40526 1.25543
1368.35682 1.25404
1366.30838 1.25311
1364.25995 1.25313
1362.21151 1.25253
1360.16307 1.24955
1358.11463 1.24681
1356.06619 1.24534
1354.01775 1.24390
1351.96932 1.24210
1349.92088 1.24047
1347.87244 1.23863
1345.82400 1.23640
1343.77556 1.23481
1341.72712 1.23478
1339.67869 1.23485
1337.63025 1.23174
1335.58181 1.22666
1333.53337 1.22261
1331.48493 1.21992
1329.43649 1.21747
1327.38806 1.21495
1325.33962 1.21267
1323.29118 1.21077
1321.24274 1.20952
1319.19430 1.20842
1317.14586 1.20641
1315.09743 1.20404
1313.04899 1.20176
1311.00055 1.19909
1308.95211 1.19662
1306.90367 1.19464
1304.85523 1.19271
1302.80680 1.19088
1300.75836 1.18936
1298.70992 1.18797
1296.66148 1.18650
1294.61304 1.18506
1292.56460 1.18381
1290.51617 1.18301
1288.46773 1.18240
1286.41929 1.18155
1284.37085 1.18059
1282.32241 1.17974
1280.27397 1.17903
1278.22554 1.17856
1276.17710 1.17834
1274.12866 1.17847
1272.08022 1.17880
1270.03178 1.17890
1267.98334 1.17902
1265.93491 1.17957
1263.88647 1.18041
1261.83803 1.18117
1259.78959 1.18134
1257.74115 1.18098
1255.69271 1.18075
1253.64428 1.18075
1251.59584 1.18079
1249.54740 1.18104
1247.49896 1.18161
1245.45052 1.18248
1243.40208 1.18330
1241.35364 1.18384
1239.30521 1.18437
1237.25677 1.18522
1235.20833 1.18639
1233.15989 1.18765
1231.11145 1.18870
1229.06301 1.18968
1227.01458 1.19082
1224.96614 1.19195
1222.91770 1.19301
1220.86926 1.19427
1218.82082 1.19581
1216.77238 1.19742
1214.72395 1.19891
1212.67551 1.20043
1210.62707 1.20202
1208.57863 1.20362
1206.53019 1.20542
1204.48175 1.20755
1202.43332 1.20976
1200.38488 1.21190
1198.33644 1.21412
1196.28800 1.21645
1194.23956 1.21888
1192.19112 1.22157
1190.14269 1.22455
1188.09425 1.22756
1186.04581 1.23044
1183.99737 1.23326
1181.94893 1.23616
1179.90049 1.23941
1177.85206 1.24288
1175.80362 1.24627
1173.75518 1.24959
1171.70674 1.25286
1169.65830 1.25627
1167.60986 1.26023
1165.56143 1.26447
1163.51299 1.26831
1161.46455 1.27170
1159.41611 1.27516
1157.36767 1.27902
1155.31923 1.28330
1153.27080 1.28764
1151.22236 1.29175
1149.17392 1.29571
1147.12548 1.29952
1145.07704 1.30318
1143.02860 1.30682
1140.98017 1.31070
1138.93173 1.31495
1136.88329 1.31922
1134.83485 1.32296
1132.78641 1.32619
1130.73797 1.32931
1128.68954 1.33229
1126.64110 1.33510
1124.59266 1.33812
1122.54422 1.34149
1120.49578 1.34501
1118.44734 1.34834
1116.39891 1.35108
1114.35047 1.35329
1112.30203 1.35566
1110.25359 1.35843
1108.20515 1.36110
1106.15671 1.36332
1104.10827 1.36549
1102.05984 1.36799
1100.01140 1.37067
1097.96296 1.37332
1095.91452 1.37582
1093.86608 1.37819
1091.81764 1.38068
1089.76921 1.38352
1087.72077 1.38628
1085.67233 1.38832
1083.62389 1.39022
1081.57545 1.39271
1079.52701 1.39525
1077.47858 1.39764
1075.43014 1.39992
1073.38170 1.40171
1071.33326 1.40328
1069.28482 1.40508
1067.23638 1.40735
1065.18795 1.41013
1063.13951 1.41252
1061.09107 1.41399
1059.04263 1.41543
1056.99419 1.41716
1054.94575 1.41907
1052.89732 1.42130
1050.84888 1.42333
1048.80044 1.42503
1046.75200 1.42677
1044.70356 1.42865
1042.65512 1.43056
1040.60669 1.43231
1038.55825 1.43363
1036.50981 1.43486
1034.46137 1.43635
1032.41293 1.43759
1030.36449 1.43878
1028.31606 1.44036
1026.26762 1.44180
1024.21918 1.44283
1022.17074 1.44373
1020.12230 1.44449
1018.07386 1.44499
1016.02543 1.44531
1013.97699 1.44540
1011.92855 1.44547
1009.88011 1.44576
1007.83167 1.44584
1005.78323 1.44499
1003.73480 1.44372
1001.68636 1.44321
999.63792 1.44308
997.58948 1.44236
995.54104 1.44132
993.49260 1.44046
991.44417 1.43944
989.39573 1.43817
987.34729 1.43699
985.29885 1.43589
983.25041 1.43461
981.20197 1.43300
979.15354 1.43153
977.10510 1.43035
975.05666 1.42891
973.00822 1.42735
970.95978 1.42597
968.91134 1.42447
966.86290 1.42263
964.81447 1.42070
962.76603 1.41866
960.71759 1.41654
958.66915 1.41508
956.62071 1.41428
954.57227 1.41303
952.52384 1.41096
950.47540 1.40903
948.42696 1.40729
946.37852 1.40524
944.33008 1.40362
942.28164 1.40294
940.23321 1.40263
938.18477 1.40221
936.13633 1.40133
934.08789 1.39979
932.03945 1.39768
929.99101 1.39549
927.94258 1.39346
925.89414 1.39142
923.84570 1.38975
921.79726 1.38783
919.74882 1.38454
917.70038 1.38085
915.65195 1.37780
913.60351 1.37486
911.55507 1.37168
909.50663 1.36861
907.45819 1.36618
905.40975 1.36435
903.36132 1.36246
901.31288 1.36050
899.26444 1.35917
897.21600 1.35833
895.16756 1.35754
893.11912 1.35692
891.07069 1.35642
889.02225 1.35589
886.97381 1.35529
884.92537 1.35511
882.87693 1.35592
880.82849 1.35711
878.78006 1.35824
876.73162 1.35972
874.68318 1.36136
872.63474 1.36293
870.58630 1.36468
868.53786 1.36625
866.48943 1.36726
864.44099 1.36800
862.39255 1.36869
860.34411 1.36961
858.29567 1.37096
856.24723 1.37250
854.19880 1.37332
852.15036 1.37272
850.10192 1.37194
848.05348 1.37236
846.00504 1.37349
843.95660 1.37437
841.90817 1.37437
839.85973 1.37293
837.81129 1.37084
835.76285 1.36951
833.71441 1.36937
831.66597 1.36998
829.61753 1.37001
827.56910 1.36873
825.52066 1.36704
823.47222 1.36565
821.42378 1.36448
819.37534 1.36316
817.32690 1.36137
815.27847 1.35926
813.23003 1.35678
811.18159 1.35414
809.13315 1.35221
807.08471 1.35072
805.03627 1.34824
802.98784 1.34490
800.93940 1.34214
798.89096 1.33988
796.84252 1.33732
794.79408 1.33469
792.74564 1.33254
790.69721 1.33100
788.64877 1.32978
786.60033 1.32857
784.55189 1.32690
782.50345 1.32464
780.45501 1.32250
778.40658 1.32079
776.35814 1.31852
774.30970 1.31476
772.26126 1.31009
770.21282 1.30522
768.16438 1.30044
766.11595 1.29605
764.06751 1.29154
762.01907 1.28688
759.97063 1.28189
757.92219 1.27570
755.87375 1.26869
753.82532 1.26204
751.77688 1.25641
749.72844 1.25153
747.68000 1.24626
745.63156 1.24095
743.58312 1.23739
741.53469 1.23507
739.48625 1.23270
737.43781 1.23007
735.38937 1.22689
733.34093 1.22403
731.29249 1.22253
729.24406 1.22212
727.19562 1.22259
725.14718 1.22434
723.09874 1.22696
721.05030 1.22912
719.00186 1.23019
716.95343 1.23149
714.90499 1.23507
712.85655 1.24000
710.80811 1.24372
708.75967 1.24644
706.71123 1.25008
704.66280 1.25459
702.61436 1.25811
700.56592 1.26106
698.51748 1.26508
696.46904 1.26866
694.42060 1.27036
692.37216 1.27189
690.32373 1.27554
688.27529 1.27980
686.22685 1.28097
684.17841 1.27962
682.12997 1.27777
680.08153 1.27617
678.03310 1.27488
675.98466 1.27315
673.93622 1.27168
671.88778 1.27027
669.83934 1.26672
667.79090 1.26297
665.74247 1.26396
663.69403 1.26472
661.64559 1.26381
659.59715 1.26310
657.54871 1.25949
655.50027 1.25095
653.45184 1.24435
651.40340 1.24266
649.35496 1.24136
647.30652 1.23842
645.25808 1.23292
643.20964 1.22552
641.16121 1.21887
639.11277 1.21477
637.06433 1.21257
635.01589 1.20790
632.96745 1.20010
630.91901 1.19475
628.87058 1.19162
626.82214 1.18553
624.77370 1.17951
622.72526 1.17763
620.67682 1.17449
618.62838 1.16734
616.57995 1.16077
614.53151 1.15686
612.48307 1.15534
610.43463 1.15273
608.38619 1.14394
606.33775 1.13421
604.28932 1.13092
602.24088 1.13027
600.19244 1.12597
598.14400 1.12056
