3996.50324 0.02715
3994.45480 0.02708
3992.40636 0.02703
3990.35792 0.02702
3988.30948 0.02700
3986.26104 0.02699
3984.21261 0.02705
3982.16417 0.02709
3980.11573 0.02710
3978.06729 0.02711
3976.01885 0.02709
3973.97041 0.02708
3971.92198 0.02709
3969.87354 0.02712
3967.82510 0.02715
3965.77666 0.02718
3963.72822 0.02705
3961.67978 0.02686
3959.63135 0.02684
3957.58291 0.02691
3955.53447 0.02692
3953.48603 0.02689
3951.43759 0.02685
3949.38915 0.02686
3947.34072 0.02695
3945.29228 0.02695
3943.24384 0.02690
3941.19540 0.02696
3939.14696 0.02710
3937.09852 0.02713
3935.05009 0.02702
3933.00165 0.02687
3930.95321 0.02684
3928.90477 0.02686
3926.85633 0.02679
3924.80789 0.02673
3922.75946 0.02679
3920.71102 0.02686
3918.66258 0.02681
3916.61414 0.02680
3914.56570 0.02694
3912.51726 0.02712
3910.46883 0.02720
3908.42039 0.02705
3906.37195 0.02668
3904.32351 0.02639
3902.27507 0.02641
3900.22663 0.02655
3898.17820 0.02672
3896.12976 0.02679
3894.08132 0.02662
3892.03288 0.02644
3889.98444 0.02655
3887.93600 0.02666
3885.88756 0.02660
3883.83913 0.02650
3881.79069 0.02649
3879.74225 0.02668
3877.69381 0.02683
3875.64537 0.02676
3873.59693 0.02657
3871.54850 0.02632
3869.50006 0.02627
3867.45162 0.02636
3865.40318 0.02625
3863.35474 0.02622
3861.30630 0.02646
3859.25787 0.02657
3857.20943 0.02639
3855.16099 0.02606
3853.11255 0.02587
3851.06411 0.02614
3849.01567 0.02650
3846.96724 0.02672
3844.91880 0.02666
3842.87036 0.02636
3840.82192 0.02600
3838.77348 0.02590
3836.72504 0.02620
3834.67661 0.02649
3832.62817 0.02665
3830.57973 0.02669
3828.53129 0.02659
3826.48285 0.02650
3824.43441 0.02642
3822.38598 0.02618
3820.33754 0.02602
3818.28910 0.02610
3816.24066 0.02627
3814.19222 0.02659
3812.14378 0.02679
3810.09535 0.02678
3808.04691 0.02668
3805.99847 0.02653
3803.95003 0.02629
3801.90159 0.02615
3799.85315 0.02632
3797.80472 0.02645
3795.75628 0.02663
3793.70784 0.02689
3791.65940 0.02704
3789.61096 0.02704
3787.56252 0.02695
3785.51409 0.02689
3783.46565 0.02691
3781.41721 0.02684
3779.36877 0.02675
3777.32033 0.02686
3775.27189 0.02697
3773.22346 0.02690
3771.17502 0.02676
3769.12658 0.02671
3767.07814 0.02670
3765.02970 0.02673
3762.98126 0.02672
3760.93283 0.02657
3758.88439 0.02649
3756.83595 0.02652
3754.78751 0.02635
3752.73907 0.02584
3750.69063 0.02537
3748.64219 0.02555
3746.59376 0.02584
3744.54532 0.02613
3742.49688 0.02635
3740.44844 0.02635
3738.40000 0.02613
3736.35156 0.02580
3734.30313 0.02589
3732.25469 0.02641
3730.20625 0.02667
3728.15781 0.02653
3726.10937 0.02632
3724.06093 0.02631
3722.01250 0.02642
3719.96406 0.02654
3717.91562 0.02668
3715.86718 0.02674
3713.81874 0.02650
3711.77030 0.02609
3709.72187 0.02623
3707.67343 0.02666
3705.62499 0.02687
3703.57655 0.02692
3701.52811 0.02701
3699.47967 0.02715
3697.43124 0.02719
3695.38280 0.02705
3693.33436 0.02674
3691.28592 0.02635
3689.23748 0.02625
3687.18904 0.02660
3685.14061 0.02687
3683.09217 0.02689
3681.04373 0.02673
3678.99529 0.02644
3676.94685 0.02617
3674.89841 0.02626
3672.84998 0.02636
3670.80154 0.02623
3668.75310 0.02641
3666.70466 0.02677
3664.65622 0.02699
3662.60778 0.02706
3660.55935 0.02696
3658.51091 0.02674
3656.46247 0.02656
3654.41403 0.02646
3652.36559 0.02621
3650.31715 0.02584
3648.26872 0.02596
3646.22028 0.02642
3644.17184 0.02667
3642.12340 0.02674
3640.07496 0.02676
3638.02652 0.02677
3635.97809 0.02672
3633.92965 0.02659
3631.88121 0.02638
3629.83277 0.02611
3627.78433 0.02627
3625.73589 0.02662
3623.68746 0.02665
3621.63902 0.02642
3619.59058 0.02619
3617.54214 0.02620
3615.49370 0.02626
3613.44526 0.02637
3611.39682 0.02653
3609.34839 0.02654
3607.29995 0.02658
3605.25151 0.02673
3603.20307 0.02670
3601.15463 0.02649
3599.10619 0.02636
3597.05776 0.02639
3595.00932 0.02646
3592.96088 0.02651
3590.91244 0.02644
3588.86400 0.02623
3586.81556 0.02617
3584.76713 0.02639
3582.71869 0.02656
3580.67025 0.02660
3578.62181 0.02654
3576.57337 0.02652
3574.52493 0.02659
3572.47650 0.02663
3570.42806 0.02643
3568.37962 0.02602
3566.33118 0.02591
3564.28274 0.02624
3562.23430 0.02652
3560.18587 0.02669
3558.13743 0.02677
3556.08899 0.02672
3554.04055 0.02659
3551.99211 0.02649
3549.94367 0.02645
3547.89524 0.02639
3545.84680 0.02637
3543.79836 0.02649
3541.74992 0.02663
3539.70148 0.02670
3537.65304 0.02667
3535.60461 0.02665
3533.55617 0.02663
3531.50773 0.02656
3529.45929 0.02643
3527.41085 0.02633
3525.36241 0.02633
3523.31398 0.02642
3521.26554 0.02649
3519.21710 0.02655
3517.16866 0.02665
3515.12022 0.02668
3513.07178 0.02659
3511.02335 0.02655
3508.97491 0.02659
3506.92647 0.02654
3504.87803 0.02637
3502.82959 0.02631
3500.78115 0.02641
3498.73272 0.02649
3496.68428 0.02652
3494.63584 0.02656
3492.58740 0.02660
3490.53896 0.02660
3488.49052 0.02656
3486.44209 0.02654
3484.39365 0.02654
3482.34521 0.02654
3480.29677 0.02656
3478.24833 0.02652
3476.19989 0.02646
3474.15146 0.02650
3472.10302 0.02659
3470.05458 0.02664
3468.00614 0.02660
3465.95770 0.02649
3463.90926 0.02648
3461.86082 0.02656
3459.81239 0.02662
3457.76395 0.02665
3455.71551 0.02666
3453.66707 0.02668
3451.61863 0.02669
3449.57019 0.02663
3447.52176 0.02653
3445.47332 0.02649
3443.42488 0.02649
3441.37644 0.02651
3439.32800 0.02650
3437.27956 0.02647
3435.23113 0.02652
3433.18269 0.02660
3431.13425 0.02663
3429.08581 0.02663
3427.03737 0.02664
3424.98893 0.02661
3422.94050 0.02653
3420.89206 0.02648
3418.84362 0.02650
3416.79518 0.02655
3414.74674 0.02661
3412.69830 0.02669
3410.64987 0.02672
3408.60143 0.02665
3406.55299 0.02657
3404.50455 0.02658
3402.45611 0.02661
3400.40767 0.02659
3398.35924 0.02652
3396.31080 0.02649
3394.26236 0.02651
3392.21392 0.02653
3390.16548 0.02652
3388.11704 0.02650
3386.06861 0.02648
3384.02017 0.02646
3381.97173 0.02644
3379.92329 0.02645
3377.87485 0.02648
3375.82641 0.02648
3373.77798 0.02648
3371.72954 0.02652
3369.68110 0.02655
3367.63266 0.02653
3365.58422 0.02647
3363.53578 0.02640
3361.48735 0.02644
3359.43891 0.02656
3357.39047 0.02659
3355.34203 0.02656
3353.29359 0.02660
3351.24515 0.02663
3349.19672 0.02661
3347.14828 0.02657
3345.09984 0.02655
3343.05140 0.02656
3341.00296 0.02660
3338.95452 0.02663
3336.90609 0.02663
3334.85765 0.02666
3332.80921 0.02672
3330.76077 0.02675
3328.71233 0.02671
3326.66389 0.02666
3324.61545 0.02662
3322.56702 0.02661
3320.51858 0.02660
3318.47014 0.02661
3316.42170 0.02664
3314.37326 0.02665
3312.32482 0.02664
3310.27639 0.02660
3308.22795 0.02654
3306.17951 0.02656
3304.13107 0.02659
3302.08263 0.02661
3300.03419 0.02662
3297.98576 0.02664
3295.93732 0.02663
3293.88888 0.02663
3291.84044 0.02663
3289.79200 0.02661
3287.74356 0.02658
3285.69513 0.02658
3283.64669 0.02662
3281.59825 0.02662
3279.54981 0.02658
3277.50137 0.02656
3275.45293 0.02658
3273.40450 0.02658
3271.35606 0.02655
3269.30762 0.02656
3267.25918 0.02662
3265.21074 0.02665
3263.16230 0.02665
3261.11387 0.02664
3259.06543 0.02665
3257.01699 0.02662
3254.96855 0.02660
3252.92011 0.02665
3250.87167 0.02672
3248.82324 0.02670
3246.77480 0.02657
3244.72636 0.02649
3242.67792 0.02650
3240.62948 0.02655
3238.58104 0.02660
3236.53261 0.02663
3234.48417 0.02665
3232.43573 0.02667
3230.38729 0.02668
3228.33885 0.02670
3226.29041 0.02673
3224.24198 0.02673
3222.19354 0.02668
3220.14510 0.02665
3218.09666 0.02667
3216.04822 0.02669
3213.99978 0.02667
3211.95135 0.02664
3209.90291 0.02668
3207.85447 0.02675
3205.80603 0.02681
3203.75759 0.02686
3201.70915 0.02684
3199.66072 0.02678
3197.61228 0.02678
3195.56384 0.02683
3193.51540 0.02684
3191.46696 0.02681
3189.41852 0.02681
3187.37008 0.02684
3185.32165 0.02685
3183.27321 0.02689
3181.22477 0.02696
3179.17633 0.02699
3177.12789 0.02699
3175.07945 0.02701
3173.03102 0.02702
3170.98258 0.02699
3168.93414 0.02694
3166.88570 0.02694
3164.83726 0.02701
3162.78882 0.02708
3160.74039 0.02711
3158.69195 0.02709
3156.64351 0.02708
3154.59507 0.02710
3152.54663 0.02711
3150.49819 0.02710
3148.44976 0.02709
3146.40132 0.02708
3144.35288 0.02708
3142.30444 0.02710
3140.25600 0.02715
3138.20756 0.02719
3136.15913 0.02719
3134.11069 0.02716
3132.06225 0.02716
3130.01381 0.02722
3127.96537 0.02728
3125.91693 0.02730
3123.86850 0.02731
3121.82006 0.02733
3119.77162 0.02735
3117.72318 0.02738
3115.67474 0.02742
3113.62630 0.02743
3111.57787 0.02742
3109.52943 0.02744
3107.48099 0.02751
3105.43255 0.02752
3103.38411 0.02744
3101.33567 0.02739
3099.28724 0.02740
3097.23880 0.02741
3095.19036 0.02743
3093.14192 0.02746
3091.09348 0.02748
3089.04504 0.02750
3086.99661 0.02751
3084.94817 0.02754
3082.89973 0.02759
3080.85129 0.02763
3078.80285 0.02766
3076.75441 0.02767
3074.70598 0.02768
3072.65754 0.02767
3070.60910 0.02765
3068.56066 0.02765
3066.51222 0.02765
3064.46378 0.02766
3062.41535 0.02768
3060.36691 0.02767
3058.31847 0.02765
3056.27003 0.02770
3054.22159 0.02780
3052.17315 0.02781
3050.12471 0.02776
3048.07628 0.02775
3046.02784 0.02782
3043.97940 0.02791
3041.93096 0.02795
3039.88252 0.02793
3037.83408 0.02791
3035.78565 0.02791
3033.73721 0.02792
3031.68877 0.02794
3029.64033 0.02797
3027.59189 0.02798
3025.54345 0.02800
3023.49502 0.02801
3021.44658 0.02800
3019.39814 0.02800
3017.34970 0.02800
3015.30126 0.02798
3013.25282 0.02797
3011.20439 0.02799
3009.15595 0.02803
3007.10751 0.02804
3005.05907 0.02800
3003.01063 0.02803
3000.96219 0.02811
2998.91376 0.02814
2996.86532 0.02810
2994.81688 0.02810
2992.76844 0.02812
2990.72000 0.02813
2988.67156 0.02816
2986.62313 0.02821
2984.57469 0.02821
2982.52625 0.02821
2980.47781 0.02824
2978.42937 0.02823
2976.38093 0.02820
2974.33250 0.02824
2972.28406 0.02832
2970.23562 0.02834
2968.18718 0.02830
2966.13874 0.02827
2964.09030 0.02824
2962.04187 0.02820
2959.99343 0.02820
2957.94499 0.02823
2955.89655 0.02824
2953.84811 0.02825
2951.79967 0.02829
2949.75124 0.02832
2947.70280 0.02834
2945.65436 0.02834
2943.60592 0.02834
2941.55748 0.02834
2939.50904 0.02832
2937.46061 0.02832
2935.41217 0.02834
2933.36373 0.02835
2931.31529 0.02836
2929.26685 0.02839
2927.21841 0.02839
2925.16998 0.02837
2923.12154 0.02838
2921.07310 0.02845
2919.02466 0.02850
2916.97622 0.02851
2914.92778 0.02855
2912.87934 0.02858
2910.83091 0.02857
2908.78247 0.02853
2906.73403 0.02853
2904.68559 0.02858
2902.63715 0.02864
2900.58871 0.02867
2898.54028 0.02870
2896.49184 0.02868
2894.44340 0.02860
2892.39496 0.02856
2890.34652 0.02858
2888.29808 0.02864
2886.24965 0.02870
2884.20121 0.02871
2882.15277 0.02871
2880.10433 0.02873
2878.05589 0.02877
2876.00745 0.02876
2873.95902 0.02872
2871.91058 0.02870
2869.86214 0.02871
2867.81370 0.02877
2865.76526 0.02885
2863.71682 0.02884
2861.66839 0.02881
2859.61995 0.02882
2857.57151 0.02884
2855.52307 0.02885
2853.47463 0.02885
2851.42619 0.02888
2849.37776 0.02890
2847.32932 0.02895
2845.28088 0.02902
2843.23244 0.02905
2841.18400 0.02901
2839.13556 0.02894
2837.08713 0.02891
2835.03869 0.02894
2832.99025 0.02901
2830.94181 0.02907
2828.89337 0.02910
2826.84493 0.02908
2824.79650 0.02907
2822.74806 0.02906
2820.69962 0.02907
2818.65118 0.02910
2816.60274 0.02912
2814.55430 0.02913
2812.50587 0.02916
2810.45743 0.02917
2808.40899 0.02918
2806.36055 0.02923
2804.31211 0.02927
2802.26367 0.02928
2800.21524 0.02929
2798.16680 0.02933
2796.11836 0.02937
2794.06992 0.02936
2792.02148 0.02936
2789.97304 0.02938
2787.92461 0.02940
2785.87617 0.02939
2783.82773 0.02939
2781.77929 0.02939
2779.73085 0.02939
2777.68241 0.02944
2775.63397 0.02950
2773.58554 0.02948
2771.53710 0.02943
2769.48866 0.02944
2767.44022 0.02946
2765.39178 0.02945
2763.34334 0.02946
2761.29491 0.02951
2759.24647 0.02955
2757.19803 0.02954
2755.14959 0.02951
2753.10115 0.02953
2751.05271 0.02959
2749.00428 0.02964
2746.95584 0.02965
2744.90740 0.02962
2742.85896 0.02960
2740.81052 0.02963
2738.76208 0.02965
2736.71365 0.02964
2734.66521 0.02964
2732.61677 0.02967
2730.56833 0.02971
2728.51989 0.02973
2726.47145 0.02973
2724.42302 0.02975
2722.37458 0.02979
2720.32614 0.02981
2718.27770 0.02982
2716.22926 0.02982
2714.18082 0.02980
2712.13239 0.02979
2710.08395 0.02982
2708.03551 0.02982
2705.98707 0.02978
2703.93863 0.02978
2701.89019 0.02983
2699.84176 0.02988
2697.79332 0.02992
2695.74488 0.02995
2693.69644 0.02997
2691.64800 0.02997
2689.59956 0.02996
2687.55113 0.02996
2685.50269 0.02995
2683.45425 0.02995
2681.40581 0.02999
2679.35737 0.03002
2677.30893 0.03004
2675.26050 0.03005
2673.21206 0.03006
2671.16362 0.03006
2669.11518 0.03006
2667.06674 0.03008
2665.01830 0.03013
2662.96987 0.03018
2660.92143 0.03019
2658.87299 0.03022
2656.82455 0.03026
2654.77611 0.03028
2652.72767 0.03029
2650.67924 0.03029
2648.63080 0.03031
2646.58236 0.03034
2644.53392 0.03035
2642.48548 0.03036
2640.43704 0.03036
2638.38860 0.03036
2636.34017 0.03036
2634.29173 0.03036
2632.24329 0.03038
2630.19485 0.03042
2628.14641 0.03043
2626.09797 0.03043
2624.04954 0.03042
2622.00110 0.03043
2619.95266 0.03044
2617.90422 0.03042
2615.85578 0.03038
2613.80734 0.03038
2611.75891 0.03045
2609.71047 0.03054
2607.66203 0.03059
2605.61359 0.03059
2603.56515 0.03058
2601.51671 0.03059
2599.46828 0.03061
2597.41984 0.03067
2595.37140 0.03069
2593.32296 0.03067
2591.27452 0.03066
2589.22608 0.03068
2587.17765 0.03068
2585.12921 0.03068
2583.08077 0.03070
2581.03233 0.03072
2578.98389 0.03072
2576.93545 0.03074
2574.88702 0.03077
2572.83858 0.03080
2570.79014 0.03083
2568.74170 0.03085
2566.69326 0.03083
2564.64482 0.03080
2562.59639 0.03082
2560.54795 0.03083
2558.49951 0.03082
2556.45107 0.03082
2554.40263 0.03088
2552.35419 0.03093
2550.30576 0.03093
2548.25732 0.03091
2546.20888 0.03091
2544.16044 0.03095
2542.11200 0.03100
2540.06356 0.03104
2538.01513 0.03107
2535.96669 0.03108
2533.91825 0.03108
2531.86981 0.03106
2529.82137 0.03102
2527.77293 0.03104
2525.72450 0.03111
2523.67606 0.03115
2521.62762 0.03114
2519.57918 0.03113
2517.53074 0.03115
2515.48230 0.03117
2513.43387 0.03116
2511.38543 0.03116
2509.33699 0.03120
2507.28855 0.03125
2505.24011 0.03126
2503.19167 0.03124
2501.14324 0.03119
2499.09480 0.03116
2497.04636 0.03116
2494.99792 0.03121
2492.94948 0.03125
2490.90104 0.03125
2488.85260 0.03125
2486.80417 0.03128
2484.75573 0.03132
2482.70729 0.03134
2480.65885 0.03133
2478.61041 0.03133
2476.56197 0.03133
2474.51354 0.03131
2472.46510 0.03131
2470.41666 0.03137
2468.36822 0.03144
2466.31978 0.03147
2464.27134 0.03146
2462.22291 0.03145
2460.17447 0.03146
2458.12603 0.03148
2456.07759 0.03147
2454.02915 0.03144
2451.98071 0.03145
2449.93228 0.03150
2447.88384 0.03157
2445.83540 0.03160
2443.78696 0.03159
2441.73852 0.03158
2439.69008 0.03161
2437.64165 0.03170
2435.59321 0.03175
2433.54477 0.03174
2431.49633 0.03171
2429.44789 0.03170
2427.39945 0.03171
2425.35102 0.03174
2423.30258 0.03176
2421.25414 0.03176
2419.20570 0.03176
2417.15726 0.03177
2415.10882 0.03177
2413.06039 0.03173
2411.01195 0.03170
2408.96351 0.03174
2406.91507 0.03176
2404.86663 0.03176
2402.81819 0.03180
2400.76976 0.03185
2398.72132 0.03189
2396.67288 0.03194
2394.62444 0.03199
2392.57600 0.03200
2390.52756 0.03198
2388.47913 0.03192
2386.43069 0.03188
2384.38225 0.03185
2382.33381 0.03180
2380.28537 0.03174
2378.23693 0.03168
2376.18850 0.03164
2374.14006 0.03161
2372.09162 0.03163
2370.04318 0.03170
2367.99474 0.03170
2365.94630 0.03164
2363.89787 0.03154
2361.84943 0.03150
2359.80099 0.03162
2357.75255 0.03178
2355.70411 0.03182
2353.65567 0.03179
2351.60723 0.03181
2349.55880 0.03183
2347.51036 0.03183
2345.46192 0.03182
2343.41348 0.03176
2341.36504 0.03175
2339.31660 0.03189
2337.26817 0.03199
2335.21973 0.03198
2333.17129 0.03200
2331.12285 0.03204
2329.07441 0.03200
2327.02597 0.03189
2324.97754 0.03188
2322.92910 0.03196
2320.88066 0.03199
2318.83222 0.03200
2316.78378 0.03209
2314.73534 0.03217
2312.68691 0.03220
2310.63847 0.03223
2308.59003 0.03226
2306.54159 0.03228
2304.49315 0.03232
2302.44471 0.03236
2300.39628 0.03239
2298.34784 0.03247
2296.29940 0.03257
2294.25096 0.03264
2292.20252 0.03265
2290.15408 0.03265
2288.10565 0.03265
2286.05721 0.03266
2284.00877 0.03268
2281.96033 0.03273
2279.91189 0.03278
2277.86345 0.03280
2275.81502 0.03280
2273.76658 0.03281
2271.71814 0.03280
2269.66970 0.03280
2267.62126 0.03282
2265.57282 0.03283
2263.52439 0.03280
2261.47595 0.03278
2259.42751 0.03283
2257.37907 0.03292
2255.33063 0.03297
2253.28219 0.03297
2251.23376 0.03295
2249.18532 0.03291
2247.13688 0.03290
2245.08844 0.03293
2243.04000 0.03299
2240.99156 0.03303
2238.94313 0.03302
2236.89469 0.03301
2234.84625 0.03303
2232.79781 0.03305
2230.74937 0.03312
2228.70093 0.03318
2226.65250 0.03319
2224.60406 0.03318
2222.55562 0.03319
2220.50718 0.03322
2218.45874 0.03328
2216.41030 0.03332
2214.36186 0.03332
2212.31343 0.03330
2210.26499 0.03329
2208.21655 0.03328
2206.16811 0.03331
2204.11967 0.03336
2202.07123 0.03339
2200.02280 0.03338
2197.97436 0.03337
2195.92592 0.03337
2193.87748 0.03338
2191.82904 0.03339
2189.78060 0.03339
2187.73217 0.03343
2185.68373 0.03348
2183.63529 0.03349
2181.58685 0.03348
2179.53841 0.03347
2177.48997 0.03348
2175.44154 0.03353
2173.39310 0.03357
2171.34466 0.03359
2169.29622 0.03358
2167.24778 0.03358
2165.19934 0.03360
2163.15091 0.03362
2161.10247 0.03364
2159.05403 0.03369
2157.00559 0.03377
2154.95715 0.03384
2152.90871 0.03387
2150.86028 0.03386
2148.81184 0.03385
2146.76340 0.03386
2144.71496 0.03387
2142.66652 0.03390
2140.61808 0.03391
2138.56965 0.03392
2136.52121 0.03394
2134.47277 0.03396
2132.42433 0.03397
2130.37589 0.03398
2128.32745 0.03400
2126.27902 0.03400
2124.23058 0.03399
2122.18214 0.03398
2120.13370 0.03398
2118.08526 0.03400
2116.03682 0.03403
2113.98839 0.03403
2111.93995 0.03403
2109.89151 0.03406
2107.84307 0.03412
2105.79463 0.03416
2103.74619 0.03416
2101.69776 0.03415
2099.64932 0.03418
2097.60088 0.03422
2095.55244 0.03426
2093.50400 0.03431
2091.45556 0.03434
2089.40713 0.03434
2087.35869 0.03435
2085.31025 0.03438
2083.26181 0.03440
2081.21337 0.03443
2079.16493 0.03442
2077.11649 0.03441
2075.06806 0.03443
2073.01962 0.03446
2070.97118 0.03447
2068.92274 0.03447
2066.87430 0.03447
2064.82586 0.03447
2062.77743 0.03449
2060.72899 0.03449
2058.68055 0.03450
2056.63211 0.03456
2054.58367 0.03462
2052.53523 0.03465
2050.48680 0.03467
2048.43836 0.03469
2046.38992 0.03467
2044.34148 0.03465
2042.29304 0.03467
2040.24460 0.03473
2038.19617 0.03482
2036.14773 0.03489
2034.09929 0.03493
2032.05085 0.03493
2030.00241 0.03490
2027.95397 0.03487
2025.90554 0.03488
2023.85710 0.03490
2021.80866 0.03493
2019.76022 0.03492
2017.71178 0.03488
2015.66334 0.03492
2013.61491 0.03501
2011.56647 0.03501
2009.51803 0.03499
2007.46959 0.03501
2005.42115 0.03505
2003.37271 0.03509
2001.32428 0.03509
1999.27584 0.03510
1997.22740 0.03513
1995.17896 0.03511
1993.13052 0.03503
1991.08208 0.03502
1989.03365 0.03510
1986.98521 0.03516
1984.93677 0.03519
1982.88833 0.03520
1980.83989 0.03520
1978.79145 0.03524
1976.74302 0.03531
1974.69458 0.03536
1972.64614 0.03535
1970.59770 0.03533
1968.54926 0.03530
1966.50082 0.03532
1964.45239 0.03540
1962.40395 0.03544
1960.35551 0.03547
1958.30707 0.03551
1956.25863 0.03552
1954.21019 0.03550
1952.16176 0.03551
1950.11332 0.03554
1948.06488 0.03554
1946.01644 0.03546
1943.96800 0.03535
1941.91956 0.03537
1939.87112 0.03552
1937.82269 0.03564
1935.77425 0.03569
1933.72581 0.03569
1931.67737 0.03571
1929.62893 0.03577
1927.58049 0.03579
1925.53206 0.03569
1923.48362 0.03551
1921.43518 0.03545
1919.38674 0.03549
1917.33830 0.03559
1915.28986 0.03577
1913.24143 0.03584
1911.19299 0.03577
1909.14455 0.03574
1907.09611 0.03581
1905.04767 0.03588
1902.99923 0.03591
1900.95080 0.03593
1898.90236 0.03596
1896.85392 0.03595
1894.80548 0.03593
1892.75704 0.03591
1890.70860 0.03584
1888.66017 0.03586
1886.61173 0.03600
1884.56329 0.03607
1882.51485 0.03611
1880.46641 0.03615
1878.41797 0.03621
1876.36954 0.03623
1874.32110 0.03616
1872.27266 0.03598
1870.22422 0.03569
1868.17578 0.03556
1866.12734 0.03583
1864.07891 0.03612
1862.03047 0.03623
1859.98203 0.03627
1857.93359 0.03630
1855.88515 0.03634
1853.83671 0.03640
1851.78828 0.03641
1849.73984 0.03629
1847.69140 0.03608
1845.64296 0.03586
1843.59452 0.03590
1841.54608 0.03620
1839.49765 0.03637
1837.44921 0.03637
1835.40077 0.03640
1833.35233 0.03635
1831.30389 0.03610
1829.25545 0.03594
1827.20702 0.03608
1825.15858 0.03622
1823.11014 0.03637
1821.06170 0.03654
1819.01326 0.03664
1816.96482 0.03668
1814.91639 0.03665
1812.86795 0.03650
1810.81951 0.03640
1808.77107 0.03648
1806.72263 0.03658
1804.67419 0.03655
1802.62575 0.03639
1800.57732 0.03628
1798.52888 0.03633
1796.48044 0.03633
1794.43200 0.03615
1792.38356 0.03603
1790.33512 0.03635
1788.28669 0.03668
1786.23825 0.03675
1784.18981 0.03669
1782.14137 0.03661
1780.09293 0.03657
1778.04449 0.03660
1775.99606 0.03647
1773.94762 0.03612
1771.89918 0.03598
1769.85074 0.03631
1767.80230 0.03667
1765.75386 0.03683
1763.70543 0.03677
1761.65699 0.03666
1759.60855 0.03668
1757.56011 0.03672
1755.51167 0.03682
1753.46323 0.03676
1751.41480 0.03634
1749.36636 0.03591
1747.31792 0.03599
1745.26948 0.03624
1743.22104 0.03637
1741.17260 0.03643
1739.12417 0.03650
1737.07573 0.03644
1735.02729 0.03605
1732.97885 0.03589
1730.93041 0.03632
1728.88197 0.03682
1726.83354 0.03712
1724.78510 0.03716
1722.73666 0.03704
1720.68822 0.03677
1718.63978 0.03621
1716.59134 0.03583
1714.54291 0.03631
1712.49447 0.03687
1710.44603 0.03708
1708.39759 0.03694
1706.34915 0.03659
1704.30071 0.03644
1702.25228 0.03643
1700.20384 0.03617
1698.15540 0.03585
1696.10696 0.03619
1694.05852 0.03691
1692.01008 0.03718
1689.96165 0.03699
1687.91321 0.03669
1685.86477 0.03635
1683.81633 0.03615
1681.76789 0.03647
1679.71945 0.03682
1677.67102 0.03698
1675.62258 0.03691
1673.57414 0.03677
1671.52570 0.03662
1669.47726 0.03673
1667.42882 0.03719
1665.38038 0.03736
1663.33195 0.03725
1661.28351 0.03731
1659.23507 0.03744
1657.18663 0.03731
1655.13819 0.03686
1653.08975 0.03637
1651.04132 0.03647
1648.99288 0.03637
1646.94444 0.03629
1644.89600 0.03691
1642.84756 0.03743
1640.79912 0.03748
1638.75069 0.03714
1636.70225 0.03673
1634.65381 0.03708
1632.60537 0.03765
1630.55693 0.03777
1628.50849 0.03761
1626.46006 0.03744
1624.41162 0.03736
1622.36318 0.03746
1620.31474 0.03758
1618.26630 0.03748
1616.21786 0.03752
1614.16943 0.03788
1612.12099 0.03803
1610.07255 0.03794
1608.02411 0.03788
1605.97567 0.03797
1603.92723 0.03805
1601.87880 0.03810
1599.83036 0.03819
1597.78192 0.03818
1595.73348 0.03811
1593.68504 0.03814
1591.63660 0.03823
1589.58817 0.03830
1587.53973 0.03838
1585.49129 0.03844
1583.44285 0.03845
1581.39441 0.03836
1579.34597 0.03807
1577.29754 0.03762
1575.24910 0.03761
1573.20066 0.03791
1571.15222 0.03788
1569.10378 0.03779
1567.05534 0.03792
1565.00691 0.03797
1562.95847 0.03781
1560.91003 0.03731
1558.86159 0.03655
1556.81315 0.03682
1554.76471 0.03737
1552.71628 0.03772
1550.66784 0.03788
1548.61940 0.03795
1546.57096 0.03774
1544.52252 0.03704
1542.47408 0.03614
1540.42565 0.03610
1538.37721 0.03718
1536.32877 0.03763
1534.28033 0.03760
1532.23189 0.03773
1530.18345 0.03790
1528.13501 0.03769
1526.08658 0.03729
1524.03814 0.03693
1521.98970 0.03673
1519.94126 0.03698
1517.89282 0.03723
1515.84438 0.03745
1513.79595 0.03769
1511.74751 0.03754
1509.69907 0.03690
1507.65063 0.03638
1505.60219 0.03731
1503.55375 0.03805
1501.50532 0.03818
1499.45688 0.03804
1497.40844 0.03799
1495.36000 0.03833
1493.31156 0.03848
1491.26312 0.03810
1489.21469 0.03775
1487.16625 0.03824
1485.11781 0.03881
1483.06937 0.03900
1481.02093 0.03899
1478.97249 0.03890
1476.92406 0.03858
1474.87562 0.03806
1472.82718 0.03796
1470.77874 0.03860
1468.73030 0.03901
1466.68186 0.03895
1464.63343 0.03884
1462.58499 0.03887
1460.53655 0.03862
1458.48811 0.03795
1456.43967 0.03787
1454.39123 0.03854
1452.34280 0.03896
1450.29436 0.03907
1448.24592 0.03905
1446.19748 0.03918
1444.14904 0.03940
1442.10060 0.03947
1440.05217 0.03937
1438.00373 0.03909
1435.95529 0.03894
1433.90685 0.03909
1431.85841 0.03914
1429.80997 0.03917
1427.76154 0.03931
1425.71310 0.03936
1423.66466 0.03927
1421.61622 0.03911
1419.56778 0.03887
1417.51934 0.03896
1415.47091 0.03935
1413.42247 0.03957
1411.37403 0.03963
1409.32559 0.03969
1407.27715 0.03967
1405.22871 0.03958
1403.18028 0.03957
1401.13184 0.03947
1399.08340 0.03922
1397.03496 0.03908
1394.98652 0.03925
1392.93808 0.03967
1390.88965 0.03989
1388.84121 0.03978
1386.79277 0.03972
1384.74433 0.03994
1382.69589 0.04012
1380.64745 0.04013
1378.59901 0.04003
1376.55058 0.03986
1374.50214 0.03975
1372.45370 0.03992
1370.40526 0.04013
1368.35682 0.04024
1366.30838 0.04024
1364.25995 0.04004
1362.21151 0.03993
1360.16307 0.04015
1358.11463 0.04038
1356.06619 0.04044
1354.01775 0.04048
1351.96932 0.04055
1349.92088 0.04062
1347.87244 0.04068
1345.82400 0.04071
1343.77556 0.04062
1341.72712 0.04037
1339.67869 0.04012
1337.63025 0.04024
1335.58181 0.04058
1333.53337 0.04080
1331.48493 0.04089
1329.43649 0.04091
1327.38806 0.04090
1325.33962 0.04090
1323.29118 0.04089
1321.24274 0.04082
1319.19430 0.04073
1317.14586 0.04073
1315.09743 0.04079
1313.04899 0.04087
1311.00055 0.04097
1308.95211 0.04105
1306.90367 0.04112
1304.85523 0.04118
1302.80680 0.04125
1300.75836 0.04130
1298.70992 0.04131
1296.66148 0.04132
1294.61304 0.04135
1292.56460 0.04133
1290.51617 0.04128
1288.46773 0.04128
1286.41929 0.04135
1284.37085 0.04143
1282.32241 0.04150
1280.27397 0.04155
1278.22554 0.04160
1276.17710 0.04162
1274.12866 0.04161
1272.08022 0.04157
1270.03178 0.04157
1267.98334 0.04162
1265.93491 0.04169
1263.88647 0.04171
1261.83803 0.04169
1259.78959 0.04168
1257.74115 0.04170
1255.69271 0.04173
1253.64428 0.04175
1251.59584 0.04176
1249.54740 0.04176
1247.49896 0.04177
1245.45052 0.04181
1243.40208 0.04185
1241.35364 0.04191
1239.30521 0.04196
1237.25677 0.04200
1235.20833 0.04202
1233.15989 0.04203
1231.11145 0.04201
1229.06301 0.04200
1227.01458 0.04208
1224.96614 0.04218
1222.91770 0.04225
1220.86926 0.04228
1218.82082 0.04229
1216.77238 0.04231
1214.72395 0.04237
1212.67551 0.04244
1210.62707 0.04248
1208.57863 0.04250
1206.53019 0.04253
1204.48175 0.04257
1202.43332 0.04264
1200.38488 0.04270
1198.33644 0.04272
1196.28800 0.04273
1194.23956 0.04276
1192.19112 0.04281
1190.14269 0.04284
1188.09425 0.04286
1186.04581 0.04289
1183.99737 0.04292
1181.94893 0.04292
1179.90049 0.04296
1177.85206 0.04302
1175.80362 0.04308
1173.75518 0.04314
1171.70674 0.04320
1169.65830 0.04323
1167.60986 0.04323
1165.56143 0.04323
1163.51299 0.04328
1161.46455 0.04335
1159.41611 0.04340
1157.36767 0.04345
1155.31923 0.04349
1153.27080 0.04352
1151.22236 0.04358
1149.17392 0.04364
1147.12548 0.04367
1145.07704 0.04370
1143.02860 0.04377
1140.98017 0.04383
1138.93173 0.04384
1136.88329 0.04385
1134.83485 0.04387
1132.78641 0.04393
1130.73797 0.04400
1128.68954 0.04407
1126.64110 0.04410
1124.59266 0.04410
1122.54422 0.04407
1120.49578 0.04406
1118.44734 0.04410
1116.39891 0.04418
1114.35047 0.04425
1112.30203 0.04430
1110.25359 0.04434
1108.20515 0.04434
1106.15671 0.04433
1104.10827 0.04433
1102.05984 0.04438
1100.01140 0.04445
1097.96296 0.04450
1095.91452 0.04453
1093.86608 0.04459
1091.81764 0.04466
1089.76921 0.04471
1087.72077 0.04473
1085.67233 0.04475
1083.62389 0.04477
1081.57545 0.04479
1079.52701 0.04485
1077.47858 0.04494
1075.43014 0.04502
1073.38170 0.04508
1071.33326 0.04508
1069.28482 0.04509
1067.23638 0.04513
1065.18795 0.04513
1063.13951 0.04512
1061.09107 0.04513
1059.04263 0.04515
1056.99419 0.04517
1054.94575 0.04518
1052.89732 0.04519
1050.84888 0.04519
1048.80044 0.04519
1046.75200 0.04519
1044.70356 0.04522
1042.65512 0.04527
1040.60669 0.04536
1038.55825 0.04545
1036.50981 0.04549
1034.46137 0.04553
1032.41293 0.04558
1030.36449 0.04563
1028.31606 0.04565
1026.26762 0.04566
1024.21918 0.04568
1022.17074 0.04572
1020.12230 0.04575
1018.07386 0.04580
1016.02543 0.04589
1013.97699 0.04596
1011.92855 0.04598
1009.88011 0.04600
1007.83167 0.04604
1005.78323 0.04607
1003.73480 0.04610
1001.68636 0.04617
999.63792 0.04624
997.58948 0.04629
995.54104 0.04631
993.49260 0.04634
991.44417 0.04639
989.39573 0.04647
987.34729 0.04655
985.29885 0.04663
983.25041 0.04673
981.20197 0.04682
979.15354 0.04688
977.10510 0.04689
975.05666 0.04691
973.00822 0.04698
970.95978 0.04711
968.91134 0.04720
966.86290 0.04724
964.81447 0.04724
962.76603 0.04728
960.71759 0.04733
958.66915 0.04736
956.62071 0.04741
954.57227 0.04747
952.52384 0.04753
950.47540 0.04758
948.42696 0.04760
946.37852 0.04761
944.33008 0.04764
942.28164 0.04770
940.23321 0.04778
938.18477 0.04785
936.13633 0.04788
934.08789 0.04788
932.03945 0.04790
929.99101 0.04795
927.94258 0.04802
925.89414 0.04807
923.84570 0.04811
921.79726 0.04817
919.74882 0.04822
917.70038 0.04823
915.65195 0.04825
913.60351 0.04831
911.55507 0.04838
909.50663 0.04845
907.45819 0.04850
905.40975 0.04851
903.36132 0.04854
901.31288 0.04861
899.26444 0.04866
897.21600 0.04868
895.16756 0.04871
893.11912 0.04878
891.07069 0.04884
889.02225 0.04890
886.97381 0.04894
884.92537 0.04898
882.87693 0.04904
880.82849 0.04909
878.78006 0.04916
876.73162 0.04927
874.68318 0.04932
872.63474 0.04932
870.58630 0.04933
868.53786 0.04937
866.48943 0.04941
864.44099 0.04946
862.39255 0.04952
860.34411 0.04957
858.29567 0.04965
856.24723 0.04970
854.19880 0.04972
852.15036 0.04978
850.10192 0.04984
848.05348 0.04986
846.00504 0.04986
843.95660 0.04989
841.90817 0.04995
839.85973 0.05005
837.81129 0.05010
835.76285 0.05008
833.71441 0.05010
831.66597 0.05017
829.61753 0.05020
827.56910 0.05021
825.52066 0.05024
823.47222 0.05030
821.42378 0.05042
819.37534 0.05053
817.32690 0.05063
815.27847 0.05074
813.23003 0.05087
811.18159 0.05100
809.13315 0.05109
807.08471 0.05116
805.03627 0.05124
802.98784 0.05126
800.93940 0.05126
798.89096 0.05134
796.84252 0.05148
794.79408 0.05165
792.74564 0.05184
790.69721 0.05197
788.64877 0.05206
786.60033 0.05213
784.55189 0.05217
782.50345 0.05223
780.45501 0.05236
778.40658 0.05256
776.35814 0.05272
774.30970 0.05275
772.26126 0.05271
770.21282 0.05282
768.16438 0.05301
766.11595 0.05313
764.06751 0.05316
762.01907 0.05315
759.97063 0.05318
757.92219 0.05322
755.87375 0.05328
753.82532 0.05351
751.77688 0.05380
749.72844 0.05388
747.68000 0.05382
745.63156 0.05384
743.58312 0.05393
741.53469 0.05405
739.48625 0.05420
737.43781 0.05438
735.38937 0.05454
733.34093 0.05462
731.29249 0.05470
729.24406 0.05494
727.19562 0.05520
725.14718 0.05529
723.09874 0.05536
721.05030 0.05556
719.00186 0.05576
716.95343 0.05589
714.90499 0.05598
712.85655 0.05616
710.80811 0.05649
708.75967 0.05683
706.71123 0.05701
704.66280 0.05706
702.61436 0.05711
700.56592 0.05719
698.51748 0.05722
696.46904 0.05733
694.42060 0.05769
692.37216 0.05803
690.32373 0.05808
688.27529 0.05810
686.22685 0.05840
684.17841 0.05876
682.12997 0.05874
680.08153 0.05853
678.03310 0.05863
675.98466 0.05906
673.93622 0.05958
671.88778 0.05983
669.83934 0.05966
667.79090 0.05958
665.74247 0.05985
663.69403 0.06000
661.64559 0.06007
659.59715 0.06018
657.54871 0.06021
655.50027 0.06031
653.45184 0.06075
651.40340 0.06129
649.35496 0.06179
647.30652 0.06271
645.25808 0.06419
643.20964 0.06565
641.16121 0.06656
639.11277 0.06688
637.06433 0.06695
635.01589 0.06723
632.96745 0.06805
630.91901 0.06888
628.87058 0.06951
626.82214 0.07082
624.77370 0.07250
622.72526 0.07376
620.67682 0.07530
618.62838 0.07712
616.57995 0.07784
614.53151 0.07782
612.48307 0.07867
610.43463 0.08029
608.38619 0.08134
606.33775 0.08162
604.28932 0.08296
602.24088 0.08607
600.19244 0.08902
598.14400 0.09126
