3996.50324 1.54926
3994.45480 1.55004
3992.40636 1.55139
3990.35792 1.55218
3988.30948 1.55229
3986.26104 1.55244
3984.21261 1.55224
3982.16417 1.55113
3980.11573 1.55032
3978.06729 1.55086
3976.01885 1.55184
3973.97041 1.55239
3971.92198 1.55196
3969.87354 1.55038
3967.82510 1.54937
3965.77666 1.55012
3963.72822 1.55167
3961.67978 1.55269
3959.63135 1.55295
3957.58291 1.55306
3955.53447 1.55356
3953.48603 1.55437
3951.43759 1.55508
3949.38915 1.55536
3947.34072 1.55496
3945.29228 1.55442
3943.24384 1.55464
3941.19540 1.55486
3939.14696 1.55377
3937.09852 1.55276
3935.05009 1.55315
3933.00165 1.55454
3930.95321 1.55607
3928.90477 1.55594
3926.85633 1.55429
3924.80789 1.55325
3922.75946 1.55325
3920.71102 1.55358
3918.66258 1.55445
3916.61414 1.55559
3914.56570 1.55634
3912.51726 1.55575
3910.46883 1.55361
3908.42039 1.55159
3906.37195 1.55144
3904.32351 1.55372
3902.27507 1.55571
3900.22663 1.55582
3898.17820 1.55595
3896.12976 1.55562
3894.08132 1.55511
3892.03288 1.55587
3889.98444 1.55650
3887.93600 1.55584
3885.88756 1.55591
3883.83913 1.55700
3881.79069 1.55821
3879.74225 1.55843
3877.69381 1.55603
3875.64537 1.55406
3873.59693 1.55484
3871.54850 1.55727
3869.50006 1.55957
3867.45162 1.55817
3865.40318 1.55527
3863.35474 1.55626
3861.30630 1.55872
3859.25787 1.55868
3857.20943 1.55750
3855.16099 1.55817
3853.11255 1.56451
3851.06411 1.56608
3849.01567 1.56217
3846.96724 1.55905
3844.91880 1.55791
3842.87036 1.55868
3840.82192 1.56012
3838.77348 1.56147
3836.72504 1.56265
3834.67661 1.56296
3832.62817 1.56298
3830.57973 1.56272
3828.53129 1.56219
3826.48285 1.56272
3824.43441 1.56403
3822.38598 1.56481
3820.33754 1.56418
3818.28910 1.56249
3816.24066 1.56288
3814.19222 1.56394
3812.14378 1.56297
3810.09535 1.56192
3808.04691 1.56198
3805.99847 1.56236
3803.95003 1.56307
3801.90159 1.56652
3799.85315 1.56924
3797.80472 1.56819
3795.75628 1.56737
3793.70784 1.56670
3791.65940 1.56562
3789.61096 1.56551
3787.56252 1.56618
3785.51409 1.56732
3783.46565 1.56859
3781.41721 1.56871
3779.36877 1.56882
3777.32033 1.56936
3775.27189 1.56865
3773.22346 1.56725
3771.17502 1.56695
3769.12658 1.56849
3767.07814 1.56986
3765.02970 1.57053
3762.98126 1.57062
3760.93283 1.57048
3758.88439 1.57222
3756.83595 1.57405
3754.78751 1.57342
3752.73907 1.57238
3750.69063 1.57429
3748.64219 1.57641
3746.59376 1.57669
3744.54532 1.57993
3742.49688 1.58330
3740.44844 1.58212
3738.40000 1.57987
3736.35156 1.58009
3734.30313 1.58293
3732.25469 1.58418
3730.20625 1.58292
3728.15781 1.58190
3726.10937 1.58337
3724.06093 1.58522
3722.01250 1.58486
3719.96406 1.58419
3717.91562 1.58424
3715.86718 1.58365
3713.81874 1.58318
3711.77030 1.58631
3709.72187 1.59062
3707.67343 1.59152
3705.62499 1.59088
3703.57655 1.58999
3701.52811 1.59077
3699.47967 1.59329
3697.43124 1.59621
3695.38280 1.59849
3693.33436 1.59869
3691.28592 1.59916
3689.23748 1.60443
3687.18904 1.60951
3685.14061 1.60993
3683.09217 1.60958
3681.04373 1.61022
3678.99529 1.61056
3676.94685 1.61133
3674.89841 1.61643
3672.84998 1.62106
3670.80154 1.62463
3668.75310 1.62943
3666.70466 1.63230
3664.65622 1.63465
3662.60778 1.63706
3660.55935 1.63868
3658.51091 1.64012
3656.46247 1.64367
3654.41403 1.64807
3652.36559 1.65141
3650.31715 1.65916
3648.26872 1.67186
3646.22028 1.67699
3644.17184 1.67808
3642.12340 1.67928
3640.07496 1.68149
3638.02652 1.68487
3635.97809 1.68931
3633.92965 1.69524
3631.88121 1.70128
3629.83277 1.70859
3627.78433 1.71870
3625.73589 1.72347
3623.68746 1.72612
3621.63902 1.73077
3619.59058 1.73819
3617.54214 1.74498
3615.49370 1.74944
3613.44526 1.75496
3611.39682 1.76014
3609.34839 1.76481
3607.29995 1.77163
3605.25151 1.77713
3603.20307 1.78073
3601.15463 1.78561
3599.10619 1.79136
3597.05776 1.79578
3595.00932 1.79989
3592.96088 1.80593
3590.91244 1.81179
3588.86400 1.81693
3586.81556 1.82278
3584.76713 1.82833
3582.71869 1.83441
3580.67025 1.83977
3578.62181 1.84257
3576.57337 1.84540
3574.52493 1.85010
3572.47650 1.85430
3570.42806 1.85712
3568.37962 1.86319
3566.33118 1.87365
3564.28274 1.87813
3562.23430 1.87964
3560.18587 1.88294
3558.13743 1.88571
3556.08899 1.88819
3554.04055 1.89167
3551.99211 1.89536
3549.94367 1.89799
3547.89524 1.90048
3545.84680 1.90513
3543.79836 1.90953
3541.74992 1.91190
3539.70148 1.91557
3537.65304 1.92003
3535.60461 1.92262
3533.55617 1.92391
3531.50773 1.92695
3529.45929 1.93221
3527.41085 1.93537
3525.36241 1.93677
3523.31398 1.93974
3521.26554 1.94201
3519.21710 1.94275
3517.16866 1.94593
3515.12022 1.95076
3513.07178 1.95315
3511.02335 1.95452
3508.97491 1.95868
3506.92647 1.96351
3504.87803 1.96599
3502.82959 1.96661
3500.78115 1.96561
3498.73272 1.96569
3496.68428 1.96927
3494.63584 1.97345
3492.58740 1.97437
3490.53896 1.97523
3488.49052 1.98032
3486.44209 1.98624
3484.39365 1.98901
3482.34521 1.99030
3480.29677 1.99125
3478.24833 1.99149
3476.19989 1.99208
3474.15146 1.99359
3472.10302 1.99550
3470.05458 1.99696
3468.00614 1.99936
3465.95770 2.00294
3463.90926 2.00565
3461.86082 2.00855
3459.81239 2.01055
3457.76395 2.01029
3455.71551 2.01078
3453.66707 2.01275
3451.61863 2.01378
3449.57019 2.01348
3447.52176 2.01523
3445.47332 2.02044
3443.42488 2.02510
3441.37644 2.02627
3439.32800 2.02574
3437.27956 2.02639
3435.23113 2.02758
3433.18269 2.02838
3431.13425 2.02840
3429.08581 2.02710
3427.03737 2.02765
3424.98893 2.03168
3422.94050 2.03507
3420.89206 2.03609
3418.84362 2.03787
3416.79518 2.04065
3414.74674 2.04081
3412.69830 2.03909
3410.64987 2.04073
3408.60143 2.04495
3406.55299 2.04728
3404.50455 2.04738
3402.45611 2.04681
3400.40767 2.04632
3398.35924 2.04666
3396.31080 2.04944
3394.26236 2.05357
3392.21392 2.05562
3390.16548 2.05568
3388.11704 2.05546
3386.06861 2.05561
3384.02017 2.05788
3381.97173 2.06137
3379.92329 2.06338
3377.87485 2.06473
3375.82641 2.06521
3373.77798 2.06396
3371.72954 2.06317
3369.68110 2.06344
3367.63266 2.06372
3365.58422 2.06404
3363.53578 2.06636
3361.48735 2.07035
3359.43891 2.07205
3357.39047 2.07229
3355.34203 2.07369
3353.29359 2.07475
3351.24515 2.07460
3349.19672 2.07464
3347.14828 2.07348
3345.09984 2.07065
3343.05140 2.07089
3341.00296 2.07382
3338.95452 2.07436
3336.90609 2.07343
3334.85765 2.07489
3332.80921 2.07840
3330.76077 2.08104
3328.71233 2.08091
3326.66389 2.07932
3324.61545 2.07941
3322.56702 2.08254
3320.51858 2.08517
3318.47014 2.08413
3316.42170 2.08400
3314.37326 2.08817
3312.32482 2.09163
3310.27639 2.09157
3308.22795 2.09250
3306.17951 2.09442
3304.13107 2.09373
3302.08263 2.09309
3300.03419 2.09480
3297.98576 2.09446
3295.93732 2.09293
3293.88888 2.09625
3291.84044 2.10082
3289.79200 2.10147
3287.74356 2.10149
3285.69513 2.10379
3283.64669 2.10555
3281.59825 2.10563
3279.54981 2.10580
3277.50137 2.10430
3275.45293 2.10107
3273.40450 2.10074
3271.35606 2.10583
3269.30762 2.11265
3267.25918 2.11591
3265.21074 2.11399
3263.16230 2.10998
3261.11387 2.10810
3259.06543 2.10848
3257.01699 2.11012
3254.96855 2.11330
3252.92011 2.11551
3250.87167 2.11391
3248.82324 2.11011
3246.77480 2.10783
3244.72636 2.10944
3242.67792 2.11392
3240.62948 2.11761
3238.58104 2.11870
3236.53261 2.11751
3234.48417 2.11478
3232.43573 2.11369
3230.38729 2.11626
3228.33885 2.11857
3226.29041 2.11673
3224.24198 2.11302
3222.19354 2.11224
3220.14510 2.11536
3218.09666 2.11791
3216.04822 2.11749
3213.99978 2.11614
3211.95135 2.11428
3209.90291 2.11229
3207.85447 2.11295
3205.80603 2.11767
3203.75759 2.12285
3201.70915 2.12367
3199.66072 2.11992
3197.61228 2.11637
3195.56384 2.11660
3193.51540 2.11882
3191.46696 2.12105
3189.41852 2.12106
3187.37008 2.11761
3185.32165 2.11476
3183.27321 2.11541
3181.22477 2.11713
3179.17633 2.11713
3177.12789 2.11578
3175.07945 2.11475
3173.03102 2.11212
3170.98258 2.10808
3168.93414 2.10821
3166.88570 2.11035
3164.83726 2.10908
3162.78882 2.10748
3160.74039 2.10923
3158.69195 2.11139
3156.64351 2.11027
3154.59507 2.10741
3152.54663 2.10595
3150.49819 2.10796
3148.44976 2.11022
3146.40132 2.10851
3144.35288 2.10659
3142.30444 2.10663
3140.25600 2.10531
3138.20756 2.10204
3136.15913 2.10001
3134.11069 2.10103
3132.06225 2.10022
3130.01381 2.09539
3127.96537 2.09254
3125.91693 2.09218
3123.86850 2.09092
3121.82006 2.09106
3119.77162 2.09304
3117.72318 2.09393
3115.67474 2.09486
3113.62630 2.09508
3111.57787 2.09028
3109.52943 2.08278
3107.48099 2.07872
3105.43255 2.07808
3103.38411 2.07724
3101.33567 2.07654
3099.28724 2.07640
3097.23880 2.07553
3095.19036 2.07508
3093.14192 2.07390
3091.09348 2.06925
3089.04504 2.06465
3086.99661 2.06241
3084.94817 2.05972
3082.89973 2.05753
3080.85129 2.05828
3078.80285 2.06041
3076.75441 2.05925
3074.70598 2.05493
3072.65754 2.05246
3070.60910 2.05183
3068.56066 2.05080
3066.51222 2.05049
3064.46378 2.05121
3062.41535 2.05003
3060.36691 2.04634
3058.31847 2.04240
3056.27003 2.03900
3054.22159 2.03561
3052.17315 2.03284
3050.12471 2.03123
3048.07628 2.02971
3046.02784 2.02841
3043.97940 2.02812
3041.93096 2.02816
3039.88252 2.02694
3037.83408 2.02397
3035.78565 2.02191
3033.73721 2.02279
3031.68877 2.02370
3029.64033 2.02139
3027.59189 2.01716
3025.54345 2.01348
3023.49502 2.01101
3021.44658 2.00847
3019.39814 2.00513
3017.34970 2.00194
3015.30126 2.00055
3013.25282 2.00130
3011.20439 2.00156
3009.15595 1.99974
3007.10751 1.99786
3005.05907 1.99814
3003.01063 1.99836
3000.96219 1.99587
2998.91376 1.99298
2996.86532 1.99092
2994.81688 1.98947
2992.76844 1.98884
2990.72000 1.98776
2988.67156 1.98588
2986.62313 1.98505
2984.57469 1.98518
2982.52625 1.98333
2980.47781 1.97969
2978.42937 1.97741
2976.38093 1.97842
2974.33250 1.98057
2972.28406 1.98010
2970.23562 1.97804
2968.18718 1.97716
2966.13874 1.97765
2964.09030 1.97764
2962.04187 1.97616
2959.99343 1.97452
2957.94499 1.97288
2955.89655 1.97034
2953.84811 1.96795
2951.79967 1.96628
2949.75124 1.96383
2947.70280 1.96170
2945.65436 1.96128
2943.60592 1.96096
2941.55748 1.95941
2939.50904 1.95670
2937.46061 1.95566
2935.41217 1.95797
2933.36373 1.95900
2931.31529 1.95682
2929.26685 1.95514
2927.21841 1.95548
2925.16998 1.95611
2923.12154 1.95542
2921.07310 1.95333
2919.02466 1.95056
2916.97622 1.94865
2914.92778 1.94783
2912.87934 1.94676
2910.83091 1.94433
2908.78247 1.94033
2906.73403 1.93646
2904.68559 1.93399
2902.63715 1.93200
2900.58871 1.92893
2898.54028 1.92535
2896.49184 1.92340
2894.44340 1.92332
2892.39496 1.92317
2890.34652 1.92153
2888.29808 1.91981
2886.24965 1.91946
2884.20121 1.91957
2882.15277 1.91964
2880.10433 1.91980
2878.05589 1.91952
2876.00745 1.91828
2873.95902 1.91619
2871.91058 1.91442
2869.86214 1.91382
2867.81370 1.91334
2865.76526 1.91173
2863.71682 1.90981
2861.66839 1.90851
2859.61995 1.90713
2857.57151 1.90580
2855.52307 1.90518
2853.47463 1.90481
2851.42619 1.90378
2849.37776 1.90228
2847.32932 1.90058
2845.28088 1.89835
2843.23244 1.89634
2841.18400 1.89473
2839.13556 1.89300
2837.08713 1.89076
2835.03869 1.88797
2832.99025 1.88619
2830.94181 1.88652
2828.89337 1.88680
2826.84493 1.88511
2824.79650 1.88319
2822.74806 1.88282
2820.69962 1.88286
2818.65118 1.88193
2816.60274 1.88014
2814.55430 1.87792
2812.50587 1.87648
2810.45743 1.87649
2808.40899 1.87612
2806.36055 1.87403
2804.31211 1.87233
2802.26367 1.87261
2800.21524 1.87290
2798.16680 1.87221
2796.11836 1.87132
2794.06992 1.87010
2792.02148 1.86939
2789.97304 1.86923
2787.92461 1.86749
2785.87617 1.86425
2783.82773 1.86145
2781.77929 1.85960
2779.73085 1.85848
2777.68241 1.85757
2775.63397 1.85663
2773.58554 1.85680
2771.53710 1.85784
2769.48866 1.85777
2767.44022 1.85626
2765.39178 1.85423
2763.34334 1.85260
2761.29491 1.85216
2759.24647 1.85225
2757.19803 1.85140
2755.14959 1.84984
2753.10115 1.84911
2751.05271 1.84937
2749.00428 1.84870
2746.95584 1.84645
2744.90740 1.84457
2742.85896 1.84325
2740.81052 1.84166
2738.76208 1.84077
2736.71365 1.84089
2734.66521 1.84132
2732.61677 1.84147
2730.56833 1.84067
2728.51989 1.83850
2726.47145 1.83514
2724.42302 1.83158
2722.37458 1.82945
2720.32614 1.82941
2718.27770 1.83069
2716.22926 1.83138
2714.18082 1.83027
2712.13239 1.82841
2710.08395 1.82631
2708.03551 1.82475
2705.98707 1.82498
2703.93863 1.82570
2701.89019 1.82521
2699.84176 1.82402
2697.79332 1.82311
2695.74488 1.82242
2693.69644 1.82156
2691.64800 1.82058
2689.59956 1.81980
2687.55113 1.81912
2685.50269 1.81886
2683.45425 1.81976
2681.40581 1.82057
2679.35737 1.81946
2677.30893 1.81743
2675.26050 1.81635
2673.21206 1.81577
2671.16362 1.81461
2669.11518 1.81332
2667.06674 1.81184
2665.01830 1.80958
2662.96987 1.80846
2660.92143 1.80891
2658.87299 1.80854
2656.82455 1.80717
2654.77611 1.80561
2652.72767 1.80439
2650.67924 1.80425
2648.63080 1.80451
2646.58236 1.80407
2644.53392 1.80333
2642.48548 1.80283
2640.43704 1.80149
2638.38860 1.79909
2636.34017 1.79745
2634.29173 1.79682
2632.24329 1.79575
2630.19485 1.79431
2628.14641 1.79363
2626.09797 1.79328
2624.04954 1.79183
2622.00110 1.78977
2619.95266 1.78882
2617.90422 1.78878
2615.85578 1.78829
2613.80734 1.78747
2611.75891 1.78681
2609.71047 1.78634
2607.66203 1.78622
2605.61359 1.78554
2603.56515 1.78387
2601.51671 1.78259
2599.46828 1.78256
2597.41984 1.78296
2595.37140 1.78279
2593.32296 1.78236
2591.27452 1.78156
2589.22608 1.77956
2587.17765 1.77773
2585.12921 1.77728
2583.08077 1.77758
2581.03233 1.77729
2578.98389 1.77559
2576.93545 1.77375
2574.88702 1.77278
2572.83858 1.77238
2570.79014 1.77254
2568.74170 1.77226
2566.69326 1.77066
2564.64482 1.76896
2562.59639 1.76791
2560.54795 1.76775
2558.49951 1.76779
2556.45107 1.76677
2554.40263 1.76613
2552.35419 1.76684
2550.30576 1.76695
2548.25732 1.76536
2546.20888 1.76368
2544.16044 1.76383
2542.11200 1.76525
2540.06356 1.76567
2538.01513 1.76458
2535.96669 1.76322
2533.91825 1.76235
2531.86981 1.76206
2529.82137 1.76219
2527.77293 1.76267
2525.72450 1.76292
2523.67606 1.76258
2521.62762 1.76208
2519.57918 1.76203
2517.53074 1.76241
2515.48230 1.76231
2513.43387 1.76127
2511.38543 1.76004
2509.33699 1.75900
2507.28855 1.75784
2505.24011 1.75686
2503.19167 1.75649
2501.14324 1.75694
2499.09480 1.75782
2497.04636 1.75791
2494.99792 1.75708
2492.94948 1.75626
2490.90104 1.75551
2488.85260 1.75463
2486.80417 1.75376
2484.75573 1.75306
2482.70729 1.75251
2480.65885 1.75184
2478.61041 1.75107
2476.56197 1.75034
2474.51354 1.75002
2472.46510 1.74971
2470.41666 1.74879
2468.36822 1.74763
2466.31978 1.74665
2464.27134 1.74657
2462.22291 1.74723
2460.17447 1.74786
2458.12603 1.74800
2456.07759 1.74713
2454.02915 1.74689
2451.98071 1.74838
2449.93228 1.74938
2447.88384 1.74915
2445.83540 1.74860
2443.78696 1.74783
2441.73852 1.74745
2439.69008 1.74752
2437.64165 1.74719
2435.59321 1.74695
2433.54477 1.74763
2431.49633 1.74851
2429.44789 1.74915
2427.39945 1.74922
2425.35102 1.74847
2423.30258 1.74826
2421.25414 1.74909
2419.20570 1.74943
2417.15726 1.74870
2415.10882 1.74853
2413.06039 1.75007
2411.01195 1.75196
2408.96351 1.75260
2406.91507 1.75242
2404.86663 1.75219
2402.81819 1.75211
2400.76976 1.75277
2398.72132 1.75380
2396.67288 1.75421
2394.62444 1.75422
2392.57600 1.75429
2390.52756 1.75453
2388.47913 1.75549
2386.43069 1.75685
2384.38225 1.75698
2382.33381 1.75546
2380.28537 1.75452
2378.23693 1.75565
2376.18850 1.75689
2374.14006 1.75681
2372.09162 1.75598
2370.04318 1.75541
2367.99474 1.75597
2365.94630 1.75583
2363.89787 1.75608
2361.84943 1.75912
2359.80099 1.75987
2357.75255 1.75467
2355.70411 1.75139
2353.65567 1.75442
2351.60723 1.75701
2349.55880 1.75692
2347.51036 1.75656
2345.46192 1.75648
2343.41348 1.75679
2341.36504 1.75860
2339.31660 1.76085
2337.26817 1.76120
2335.21973 1.76053
2333.17129 1.76096
2331.12285 1.76280
2329.07441 1.76370
2327.02597 1.76294
2324.97754 1.76364
2322.92910 1.76519
2320.88066 1.76546
2318.83222 1.76610
2316.78378 1.76697
2314.73534 1.76675
2312.68691 1.76642
2310.63847 1.76704
2308.59003 1.76824
2306.54159 1.76915
2304.49315 1.76946
2302.44471 1.76979
2300.39628 1.77031
2298.34784 1.77111
2296.29940 1.77318
2294.25096 1.77619
2292.20252 1.77882
2290.15408 1.78085
2288.10565 1.78291
2286.05721 1.78559
2284.00877 1.78855
2281.96033 1.79167
2279.91189 1.79539
2277.86345 1.79931
2275.81502 1.80280
2273.76658 1.80530
2271.71814 1.80674
2269.66970 1.80822
2267.62126 1.81045
2265.57282 1.81335
2263.52439 1.81669
2261.47595 1.81994
2259.42751 1.82256
2257.37907 1.82445
2255.33063 1.82609
2253.28219 1.82802
2251.23376 1.82999
2249.18532 1.83184
2247.13688 1.83389
2245.08844 1.83639
2243.04000 1.83955
2240.99156 1.84237
2238.94313 1.84371
2236.89469 1.84440
2234.84625 1.84473
2232.79781 1.84367
2230.74937 1.84185
2228.70093 1.84069
2226.65250 1.83853
2224.60406 1.83402
2222.55562 1.82958
2220.50718 1.82645
2218.45874 1.82293
2216.41030 1.81735
2214.36186 1.81059
2212.31343 1.80500
2210.26499 1.80083
2208.21655 1.79735
2206.16811 1.79488
2204.11967 1.79326
2202.07123 1.79125
2200.02280 1.78792
2197.97436 1.78453
2195.92592 1.78310
2193.87748 1.78332
2191.82904 1.78358
2189.78060 1.78281
2187.73217 1.78114
2185.68373 1.78047
2183.63529 1.78124
2181.58685 1.78145
2179.53841 1.78121
2177.48997 1.78225
2175.44154 1.78442
2173.39310 1.78671
2171.34466 1.78843
2169.29622 1.78868
2167.24778 1.78856
2165.19934 1.78989
2163.15091 1.79174
2161.10247 1.79347
2159.05403 1.79548
2157.00559 1.79699
2154.95715 1.79841
2152.90871 1.80117
2150.86028 1.80463
2148.81184 1.80828
2146.76340 1.81303
2144.71496 1.81800
2142.66652 1.82192
2140.61808 1.82477
2138.56965 1.82698
2136.52121 1.82873
2134.47277 1.82877
2132.42433 1.82582
2130.37589 1.82133
2128.32745 1.81832
2126.27902 1.81730
2124.23058 1.81624
2122.18214 1.81493
2120.13370 1.81455
2118.08526 1.81533
2116.03682 1.81649
2113.98839 1.81658
2111.93995 1.81548
2109.89151 1.81484
2107.84307 1.81568
2105.79463 1.81739
2103.74619 1.81919
2101.69776 1.82118
2099.64932 1.82302
2097.60088 1.82454
2095.55244 1.82603
2093.50400 1.82800
2091.45556 1.83033
2089.40713 1.83188
2087.35869 1.83347
2085.31025 1.83669
2083.26181 1.84090
2081.21337 1.84465
2079.16493 1.84747
2077.11649 1.84953
2075.06806 1.85186
2073.01962 1.85587
2070.97118 1.86088
2068.92274 1.86505
2066.87430 1.86879
2064.82586 1.87387
2062.77743 1.87993
2060.72899 1.88545
2058.68055 1.89153
2056.63211 1.89941
2054.58367 1.90833
2052.53523 1.91844
2050.48680 1.93040
2048.43836 1.94410
2046.38992 1.96000
2044.34148 1.97884
2042.29304 2.00064
2040.24460 2.02388
2038.19617 2.04710
2036.14773 2.06992
2034.09929 2.09032
2032.05085 2.10564
2030.00241 2.11558
2027.95397 2.12301
2025.90554 2.13020
2023.85710 2.13737
2021.80866 2.14460
2019.76022 2.15087
2017.71178 2.15675
2015.66334 2.16619
2013.61491 2.18066
2011.56647 2.19611
2009.51803 2.20718
2007.46959 2.21386
2005.42115 2.21991
2003.37271 2.22585
2001.32428 2.23050
1999.27584 2.23387
1997.22740 2.23558
1995.17896 2.23611
1993.13052 2.23607
1991.08208 2.23473
1989.03365 2.23395
1986.98521 2.23424
1984.93677 2.23334
1982.88833 2.23289
1980.83989 2.23462
1978.79145 2.23730
1976.74302 2.23868
1974.69458 2.23657
1972.64614 2.23318
1970.59770 2.23017
1968.54926 2.22471
1966.50082 2.21668
1964.45239 2.20971
1962.40395 2.20433
1960.35551 2.19873
1958.30707 2.19534
1956.25863 2.19535
1954.21019 2.19469
1952.16176 2.19332
1950.11332 2.19430
1948.06488 2.19688
1946.01644 2.19688
1943.96800 2.19224
1941.91956 2.18785
1939.87112 2.18638
1937.82269 2.18388
1935.77425 2.18030
1933.72581 2.17691
1931.67737 2.17151
1929.62893 2.16594
1927.58049 2.16509
1925.53206 2.16759
1923.48362 2.17075
1921.43518 2.17652
1919.38674 2.18550
1917.33830 2.19549
1915.28986 2.20494
1913.24143 2.21576
1911.19299 2.22919
1909.14455 2.24510
1907.09611 2.26212
1905.04767 2.27820
1902.99923 2.29318
1900.95080 2.30563
1898.90236 2.31556
1896.85392 2.32285
1894.80548 2.32694
1892.75704 2.33234
1890.70860 2.34068
1888.66017 2.34616
1886.61173 2.34618
1884.56329 2.34451
1882.51485 2.34488
1880.46641 2.34665
1878.41797 2.34605
1876.36954 2.34483
1874.32110 2.34512
1872.27266 2.34663
1870.22422 2.35094
1868.17578 2.35677
1866.12734 2.35668
1864.07891 2.35017
1862.03047 2.34088
1859.98203 2.33184
1857.93359 2.32434
1855.88515 2.31467
1853.83671 2.29977
1851.78828 2.28211
1849.73984 2.26376
1847.69140 2.24348
1845.64296 2.22315
1843.59452 2.20708
1841.54608 2.19410
1839.49765 2.18104
1837.44921 2.17160
1835.40077 2.16969
1833.35233 2.17159
1831.30389 2.17190
1829.25545 2.17152
1827.20702 2.17546
1825.15858 2.18334
1823.11014 2.19135
1821.06170 2.19740
1819.01326 2.20305
1816.96482 2.20877
1814.91639 2.21532
1812.86795 2.22400
1810.81951 2.23402
1808.77107 2.24491
1806.72263 2.25520
1804.67419 2.26214
1802.62575 2.26675
1800.57732 2.27067
1798.52888 2.27249
1796.48044 2.27017
1794.43200 2.26662
1792.38356 2.26765
1790.33512 2.27076
1788.28669 2.27173
1786.23825 2.27087
1784.18981 2.26606
1782.14137 2.25816
1780.09293 2.24889
1778.04449 2.23996
1775.99606 2.23254
1773.94762 2.22106
1771.89918 2.19912
1769.85074 2.17778
1767.80230 2.16241
1765.75386 2.14931
1763.70543 2.13661
1761.65699 2.12055
1759.60855 2.10605
1757.56011 2.09786
1755.51167 2.09356
1753.46323 2.08929
1751.41480 2.08475
1749.36636 2.08235
1747.31792 2.08094
1745.26948 2.08076
1743.22104 2.08342
1741.17260 2.08840
1739.12417 2.09529
1737.07573 2.10316
1735.02729 2.11279
1732.97885 2.11954
1730.93041 2.11926
1728.88197 2.12188
1726.83354 2.12706
1724.78510 2.13176
1722.73666 2.13700
1720.68822 2.14340
1718.63978 2.15361
1716.59134 2.17024
1714.54291 2.18153
1712.49447 2.18735
1710.44603 2.19425
1708.39759 2.20129
1706.34915 2.20937
1704.30071 2.22070
1702.25228 2.23247
1700.20384 2.24782
1698.15540 2.26268
1696.10696 2.27278
1694.05852 2.28326
1692.01008 2.29217
1689.96165 2.29980
1687.91321 2.30584
1685.86477 2.30935
1683.81633 2.30884
1681.76789 2.30637
1679.71945 2.30471
1677.67102 2.30347
1675.62258 2.30157
1673.57414 2.29782
1671.52570 2.29161
1669.47726 2.28058
1667.42882 2.27116
1665.38038 2.26619
1663.33195 2.26190
1661.28351 2.25889
1659.23507 2.25713
1657.18663 2.25433
1655.13819 2.25207
1653.08975 2.25832
1651.04132 2.26256
1648.99288 2.25861
1646.94444 2.25855
1644.89600 2.26601
1642.84756 2.27134
1640.79912 2.27587
1638.75069 2.28044
1636.70225 2.28564
1634.65381 2.29736
1632.60537 2.30820
1630.55693 2.31651
1628.50849 2.32924
1626.46006 2.34638
1624.41162 2.36097
1622.36318 2.37149
1620.31474 2.37776
1618.26630 2.38421
1616.21786 2.39483
1614.16943 2.39959
1612.12099 2.39668
1610.07255 2.39191
1608.02411 2.38849
1605.97567 2.38590
1603.92723 2.38230
1601.87880 2.37815
1599.83036 2.37487
1597.78192 2.37197
1595.73348 2.36906
1593.68504 2.36282
1591.63660 2.35255
1589.58817 2.34562
1587.53973 2.34052
1585.49129 2.32905
1583.44285 2.31371
1581.39441 2.30093
1579.34597 2.29180
1577.29754 2.28282
1575.24910 2.26902
1573.20066 2.25574
1571.15222 2.24527
1569.10378 2.23511
1567.05534 2.22583
1565.00691 2.21635
1562.95847 2.20639
1560.91003 2.19792
1558.86159 2.18864
1556.81315 2.18261
1554.76471 2.18143
1552.71628 2.18164
1550.66784 2.18389
1548.61940 2.18834
1546.57096 2.19208
1544.52252 2.19669
1542.47408 2.20873
1540.42565 2.23072
1538.37721 2.24322
1536.32877 2.24789
1534.28033 2.26004
1532.23189 2.27756
1530.18345 2.28836
1528.13501 2.29707
1526.08658 2.30254
1524.03814 2.29757
1521.98970 2.28324
1519.94126 2.26958
1517.89282 2.26523
1515.84438 2.26138
1513.79595 2.25488
1511.74751 2.24946
1509.69907 2.24449
1507.65063 2.23938
1505.60219 2.23428
1503.55375 2.23094
1501.50532 2.23288
1499.45688 2.24122
1497.40844 2.25351
1495.36000 2.26022
1493.31156 2.25829
1491.26312 2.25530
1489.21469 2.25829
1487.16625 2.25964
1485.11781 2.25228
1483.06937 2.24256
1481.02093 2.23387
1478.97249 2.22826
1476.92406 2.22453
1474.87562 2.21831
1472.82718 2.20695
1470.77874 2.19631
1468.73030 2.19033
1466.68186 2.18431
1464.63343 2.17629
1462.58499 2.17016
1460.53655 2.16686
1458.48811 2.16370
1456.43967 2.15791
1454.39123 2.15213
1452.34280 2.14625
1450.29436 2.13999
1448.24592 2.13653
1446.19748 2.13389
1444.14904 2.12894
1442.10060 2.12642
1440.05217 2.12842
1438.00373 2.13184
1435.95529 2.13376
1433.90685 2.13528
1431.85841 2.13943
1429.80997 2.14468
1427.76154 2.14657
1425.71310 2.14575
1423.66466 2.14571
1421.61622 2.14805
1419.56778 2.15184
1417.51934 2.15228
1415.47091 2.14905
1413.42247 2.14646
1411.37403 2.14457
1409.32559 2.14331
1407.27715 2.14443
1405.22871 2.14788
1403.18028 2.15133
1401.13184 2.15417
1399.08340 2.15789
1397.03496 2.16332
1394.98652 2.16924
1392.93808 2.17110
1390.88965 2.16779
1388.84121 2.16327
1386.79277 2.16317
1384.74433 2.16810
1382.69589 2.17243
1380.64745 2.17581
1378.59901 2.18098
1376.55058 2.18762
1374.50214 2.19349
1372.45370 2.19593
1370.40526 2.19639
1368.35682 2.19872
1366.30838 2.20070
1364.25995 2.20024
1362.21151 2.20087
1360.16307 2.20064
1358.11463 2.19755
1356.06619 2.19559
1354.01775 2.19459
1351.96932 2.19274
1349.92088 2.19289
1347.87244 2.19466
1345.82400 2.19316
1343.77556 2.19052
1341.72712 2.19178
1339.67869 2.19374
1337.63025 2.19093
1335.58181 2.18739
1333.53337 2.18646
1331.48493 2.18449
1329.43649 2.18013
1327.38806 2.17691
1325.33962 2.17644
1323.29118 2.17723
1321.24274 2.17602
1319.19430 2.17167
1317.14586 2.16624
1315.09743 2.15918
1313.04899 2.15017
1311.00055 2.14221
1308.95211 2.13524
1306.90367 2.12693
1304.85523 2.11822
1302.80680 2.10942
1300.75836 2.09938
1298.70992 2.08966
1296.66148 2.08085
1294.61304 2.07193
1292.56460 2.06291
1290.51617 2.05327
1288.46773 2.04357
1286.41929 2.03485
1284.37085 2.02585
1282.32241 2.01587
1280.27397 2.00568
1278.22554 1.99473
1276.17710 1.98154
1274.12866 1.96648
1272.08022 1.95099
1270.03178 1.93565
1267.98334 1.92086
1265.93491 1.90431
1263.88647 1.88388
1261.83803 1.86176
1259.78959 1.83858
1257.74115 1.81363
1255.69271 1.78852
1253.64428 1.76433
1251.59584 1.74070
1249.54740 1.71757
1247.49896 1.69469
1245.45052 1.67135
1243.40208 1.64677
1241.35364 1.62066
1239.30521 1.59319
1237.25677 1.56439
1235.20833 1.53503
1233.15989 1.50649
1231.11145 1.47906
1229.06301 1.45296
1227.01458 1.42982
1224.96614 1.41102
1222.91770 1.39659
1220.86926 1.38606
1218.82082 1.37853
1216.77238 1.37281
1214.72395 1.36861
1212.67551 1.36591
1210.62707 1.36435
1208.57863 1.36366
1206.53019 1.36380
1204.48175 1.36482
1202.43332 1.36641
1200.38488 1.36808
1198.33644 1.36971
1196.28800 1.37123
1194.23956 1.37269
1192.19112 1.37426
1190.14269 1.37616
1188.09425 1.37858
1186.04581 1.38126
1183.99737 1.38364
1181.94893 1.38562
1179.90049 1.38729
1177.85206 1.38890
1175.80362 1.39083
1173.75518 1.39362
1171.70674 1.39810
1169.65830 1.40533
1167.60986 1.41690
1165.56143 1.43543
1163.51299 1.46266
1161.46455 1.49285
1159.41611 1.50935
1157.36767 1.49945
1155.31923 1.47204
1153.27080 1.44482
1151.22236 1.42591
1149.17392 1.41435
1147.12548 1.40667
1145.07704 1.40021
1143.02860 1.39386
1140.98017 1.38757
1138.93173 1.38149
1136.88329 1.37568
1134.83485 1.36989
1132.78641 1.36409
1130.73797 1.35871
1128.68954 1.35387
1126.64110 1.34935
1124.59266 1.34462
1122.54422 1.33939
1120.49578 1.33378
1118.44734 1.32766
1116.39891 1.32124
1114.35047 1.31510
1112.30203 1.30906
1110.25359 1.30306
1108.20515 1.29787
1106.15671 1.29375
1104.10827 1.29017
1102.05984 1.28702
1100.01140 1.28413
1097.96296 1.28067
1095.91452 1.27681
1093.86608 1.27353
1091.81764 1.27115
1089.76921 1.26952
1087.72077 1.26881
1085.67233 1.26923
1083.62389 1.27079
1081.57545 1.27342
1079.52701 1.27739
1077.47858 1.28392
1075.43014 1.29465
1073.38170 1.31072
1071.33326 1.33194
1069.28482 1.35752
1067.23638 1.38768
1065.18795 1.42291
1063.13951 1.46135
1061.09107 1.49946
1059.04263 1.53474
1056.99419 1.56593
1054.94575 1.59329
1052.89732 1.61836
1050.84888 1.64221
1048.80044 1.66474
1046.75200 1.68499
1044.70356 1.70277
1042.65512 1.71863
1040.60669 1.73274
1038.55825 1.74593
1036.50981 1.75957
1034.46137 1.77320
1032.41293 1.78527
1030.36449 1.79657
1028.31606 1.80859
1026.26762 1.82090
1024.21918 1.83205
1022.17074 1.84180
1020.12230 1.85107
1018.07386 1.85988
1016.02543 1.86854
1013.97699 1.87790
1011.92855 1.88720
1009.88011 1.89455
1007.83167 1.89973
1005.78323 1.90530
1003.73480 1.91253
1001.68636 1.91973
999.63792 1.92566
997.58948 1.93014
995.54104 1.93521
993.49260 1.94328
991.44417 1.95159
989.39573 1.95747
987.34729 1.96272
985.29885 1.96723
983.25041 1.97088
981.20197 1.97496
979.15354 1.97839
977.10510 1.98258
975.05666 1.98957
973.00822 1.99651
970.95978 2.00070
968.91134 2.00273
966.86290 2.00479
964.81447 2.00771
962.76603 2.01099
960.71759 2.01536
958.66915 2.01998
956.62071 2.02247
954.57227 2.02392
952.52384 2.02600
950.47540 2.02874
948.42696 2.03258
946.37852 2.03564
944.33008 2.03576
942.28164 2.03391
940.23321 2.03318
938.18477 2.03639
936.13633 2.04049
934.08789 2.04219
932.03945 2.04262
929.99101 2.04273
927.94258 2.04425
925.89414 2.04710
923.84570 2.04918
921.79726 2.05033
919.74882 2.05161
917.70038 2.05331
915.65195 2.05542
913.60351 2.05791
911.55507 2.05896
909.50663 2.05901
907.45819 2.06138
905.40975 2.06621
903.36132 2.07196
901.31288 2.07688
899.26444 2.07807
897.21600 2.07825
895.16756 2.08226
893.11912 2.08756
891.07069 2.08907
889.02225 2.08828
886.97381 2.09061
884.92537 2.09631
882.87693 2.10212
880.82849 2.10603
878.78006 2.10783
876.73162 2.11078
874.68318 2.11699
872.63474 2.12402
870.58630 2.13067
868.53786 2.13511
866.48943 2.13684
864.44099 2.14282
862.39255 2.15125
860.34411 2.15375
858.29567 2.15644
856.24723 2.16539
854.19880 2.17353
852.15036 2.17691
850.10192 2.17873
848.05348 2.18484
846.00504 2.19778
843.95660 2.20979
841.90817 2.21871
839.85973 2.22842
837.81129 2.23683
835.76285 2.24255
833.71441 2.24809
831.66597 2.25676
829.61753 2.26660
827.56910 2.27340
825.52066 2.28142
823.47222 2.29506
821.42378 2.30748
819.37534 2.31918
817.32690 2.33989
815.27847 2.36436
813.23003 2.37478
811.18159 2.35319
809.13315 2.28703
807.08471 2.18711
805.03627 2.08809
802.98784 2.01191
800.93940 1.96133
798.89096 1.93736
796.84252 1.93988
794.79408 1.96146
792.74564 1.98683
790.69721 1.99822
788.64877 1.98690
786.60033 1.95694
784.55189 1.91898
782.50345 1.88495
780.45501 1.86315
778.40658 1.85603
776.35814 1.86234
774.30970 1.88141
772.26126 1.91172
770.21282 1.94312
768.16438 1.96694
766.11595 1.98694
764.06751 2.00580
762.01907 2.02108
759.97063 2.03227
757.92219 2.04212
755.87375 2.05099
753.82532 2.05679
751.77688 2.06147
749.72844 2.06750
747.68000 2.07757
745.63156 2.09227
743.58312 2.09976
741.53469 2.09543
739.48625 2.09507
737.43781 2.10723
735.38937 2.12378
733.34093 2.13219
731.29249 2.13124
729.24406 2.12856
727.19562 2.12410
725.14718 2.11800
723.09874 2.12127
721.05030 2.13586
719.00186 2.14366
716.95343 2.13850
714.90499 2.13439
712.85655 2.13885
710.80811 2.14746
708.75967 2.15489
706.71123 2.16552
704.66280 2.18520
702.61436 2.20129
700.56592 2.18784
698.51748 2.14814
696.46904 2.11237
694.42060 2.08868
692.37216 2.06987
690.32373 2.06579
688.27529 2.07921
686.22685 2.08592
684.17841 2.07685
682.12997 2.07571
680.08153 2.08820
678.03310 2.09313
675.98466 2.09232
673.93622 2.09088
671.88778 2.08484
669.83934 2.08420
667.79090 2.09889
665.74247 2.11355
663.69403 2.10693
661.64559 2.08736
659.59715 2.07772
657.54871 2.08701
655.50027 2.11151
653.45184 2.13807
651.40340 2.13715
649.35496 2.10819
647.30652 2.08919
645.25808 2.09055
643.20964 2.10260
641.16121 2.12087
639.11277 2.13209
637.06433 2.12649
635.01589 2.11654
632.96745 2.11717
630.91901 2.11291
628.87058 2.08528
626.82214 2.05890
624.77370 2.06170
622.72526 2.06735
620.67682 2.05336
618.62838 2.03721
616.57995 2.03533
614.53151 2.07610
612.48307 2.12743
610.43463 2.11708
608.38619 2.07872
606.33775 2.05305
604.28932 2.03457
602.24088 2.02351
600.19244 2.00715
598.14400 1.96910
