3996.50324 1.34779
3994.45480 1.34795
3992.40636 1.34729
3990.35792 1.34667
3988.30948 1.34667
3986.26104 1.34733
3984.21261 1.34787
3982.16417 1.34769
3980.11573 1.34721
3978.06729 1.34667
3976.01885 1.34652
3973.97041 1.34669
3971.92198 1.34664
3969.87354 1.34664
3967.82510 1.34688
3965.77666 1.34705
3963.72822 1.34713
3961.67978 1.34749
3959.63135 1.34785
3957.58291 1.34807
3955.53447 1.34826
3953.48603 1.34836
3951.43759 1.34895
3949.38915 1.34971
3947.34072 1.34934
3945.29228 1.34881
3943.24384 1.34912
3941.19540 1.34912
3939.14696 1.34833
3937.09852 1.34791
3935.05009 1.34857
3933.00165 1.35000
3930.95321 1.35066
3928.90477 1.34952
3926.85633 1.34845
3924.80789 1.34853
3922.75946 1.34872
3920.71102 1.34905
3918.66258 1.34953
3916.61414 1.34857
3914.56570 1.34677
3912.51726 1.34605
3910.46883 1.34652
3908.42039 1.34815
3906.37195 1.35129
3904.32351 1.35416
3902.27507 1.35398
3900.22663 1.35278
3898.17820 1.35166
3896.12976 1.35065
3894.08132 1.35094
3892.03288 1.35128
3889.98444 1.35021
3887.93600 1.35003
3885.88756 1.35086
3883.83913 1.35092
3881.79069 1.35016
3879.74225 1.34914
3877.69381 1.34910
3875.64537 1.35032
3873.59693 1.35157
3871.54850 1.35184
3869.50006 1.35127
3867.45162 1.35168
3865.40318 1.35353
3863.35474 1.35356
3861.30630 1.35128
3859.25787 1.35032
3857.20943 1.35125
3855.16099 1.35355
3853.11255 1.35525
3851.06411 1.35301
3849.01567 1.35058
3846.96724 1.34947
3844.91880 1.34979
3842.87036 1.35172
3840.82192 1.35453
3838.77348 1.35575
3836.72504 1.35350
3834.67661 1.35082
3832.62817 1.34915
3830.57973 1.34785
3828.53129 1.34784
3826.48285 1.34923
3824.43441 1.35062
3822.38598 1.35235
3820.33754 1.35416
3818.28910 1.35388
3816.24066 1.35174
3814.19222 1.34867
3812.14378 1.34703
3810.09535 1.34746
3808.04691 1.34889
3805.99847 1.35002
3803.95003 1.35134
3801.90159 1.35222
3799.85315 1.35147
3797.80472 1.35034
3795.75628 1.34822
3793.70784 1.34622
3791.65940 1.34574
3789.61096 1.34590
3787.56252 1.34649
3785.51409 1.34738
3783.46565 1.34745
3781.41721 1.34747
3779.36877 1.34717
3777.32033 1.34599
3775.27189 1.34603
3773.22346 1.34752
3771.17502 1.34930
3769.12658 1.34982
3767.07814 1.34914
3765.02970 1.34837
3762.98126 1.34784
3760.93283 1.34798
3758.88439 1.34876
3756.83595 1.34965
3754.78751 1.35048
3752.73907 1.35166
3750.69063 1.35272
3748.64219 1.35377
3746.59376 1.35520
3744.54532 1.35465
3742.49688 1.35260
3740.44844 1.35205
3738.40000 1.35281
3736.35156 1.35410
3734.30313 1.35345
3732.25469 1.34983
3730.20625 1.34647
3728.15781 1.34552
3726.10937 1.34709
3724.06093 1.34892
3722.01250 1.34825
3719.96406 1.34626
3717.91562 1.34540
3715.86718 1.34605
3713.81874 1.34809
3711.77030 1.35025
3709.72187 1.34886
3707.67343 1.34588
3705.62499 1.34452
3703.57655 1.34494
3701.52811 1.34519
3699.47967 1.34451
3697.43124 1.34447
3695.38280 1.34493
3693.33436 1.34641
3691.28592 1.34987
3689.23748 1.35149
3687.18904 1.34834
3685.14061 1.34584
3683.09217 1.34505
3681.04373 1.34548
3678.99529 1.34744
3676.94685 1.34993
3674.89841 1.35002
3672.84998 1.34931
3670.80154 1.34957
3668.75310 1.34809
3666.70466 1.34571
3664.65622 1.34442
3662.60778 1.34419
3660.55935 1.34460
3658.51091 1.34551
3656.46247 1.34669
3654.41403 1.34784
3652.36559 1.35047
3650.31715 1.35545
3648.26872 1.35675
3646.22028 1.35205
3644.17184 1.34799
3642.12340 1.34575
3640.07496 1.34509
3638.02652 1.34525
3635.97809 1.34569
3633.92965 1.34723
3631.88121 1.35014
3629.83277 1.35265
3627.78433 1.35146
3625.73589 1.34885
3623.68746 1.34849
3621.63902 1.35055
3619.59058 1.35285
3617.54214 1.35342
3615.49370 1.35355
3613.44526 1.35287
3611.39682 1.35164
3609.34839 1.35122
3607.29995 1.35054
3605.25151 1.34901
3603.20307 1.34861
3601.15463 1.34991
3599.10619 1.35110
3597.05776 1.35170
3595.00932 1.35188
3592.96088 1.35148
3590.91244 1.35213
3588.86400 1.35410
3586.81556 1.35435
3584.76713 1.35228
3582.71869 1.35101
3580.67025 1.35110
3578.62181 1.35169
3576.57337 1.35207
3574.52493 1.35221
3572.47650 1.35215
3570.42806 1.35345
3568.37962 1.35743
3566.33118 1.35958
3564.28274 1.35710
3562.23430 1.35493
3560.18587 1.35392
3558.13743 1.35356
3556.08899 1.35408
3554.04055 1.35488
3551.99211 1.35526
3549.94367 1.35635
3547.89524 1.35832
3545.84680 1.35876
3543.79836 1.35715
3541.74992 1.35542
3539.70148 1.35432
3537.65304 1.35405
3535.60461 1.35471
3533.55617 1.35581
3531.50773 1.35735
3529.45929 1.35896
3527.41085 1.35936
3525.36241 1.35898
3523.31398 1.35894
3521.26554 1.35860
3519.21710 1.35776
3517.16866 1.35735
3515.12022 1.35727
3513.07178 1.35713
3511.02335 1.35739
3508.97491 1.35794
3506.92647 1.35844
3504.87803 1.35895
3502.82959 1.35886
3500.78115 1.35842
3498.73272 1.35875
3496.68428 1.35884
3494.63584 1.35779
3492.58740 1.35707
3490.53896 1.35765
3488.49052 1.35833
3486.44209 1.35850
3484.39365 1.35916
3482.34521 1.35987
3480.29677 1.35967
3478.24833 1.35954
3476.19989 1.36026
3474.15146 1.36068
3472.10302 1.36021
3470.05458 1.35976
3468.00614 1.35968
3465.95770 1.35934
3463.90926 1.35929
3461.86082 1.36022
3459.81239 1.36096
3457.76395 1.36086
3455.71551 1.36051
3453.66707 1.36076
3451.61863 1.36126
3449.57019 1.36136
3447.52176 1.36155
3445.47332 1.36177
3443.42488 1.36181
3441.37644 1.36221
3439.32800 1.36275
3437.27956 1.36225
3435.23113 1.36105
3433.18269 1.36077
3431.13425 1.36152
3429.08581 1.36236
3427.03737 1.36241
3424.98893 1.36177
3422.94050 1.36213
3420.89206 1.36323
3418.84362 1.36299
3416.79518 1.36211
3414.74674 1.36168
3412.69830 1.36132
3410.64987 1.36104
3408.60143 1.36126
3406.55299 1.36203
3404.50455 1.36287
3402.45611 1.36352
3400.40767 1.36416
3398.35924 1.36470
3396.31080 1.36486
3394.26236 1.36452
3392.21392 1.36410
3390.16548 1.36399
3388.11704 1.36389
3386.06861 1.36393
3384.02017 1.36432
3381.97173 1.36473
3379.92329 1.36486
3377.87485 1.36453
3375.82641 1.36409
3373.77798 1.36384
3371.72954 1.36389
3369.68110 1.36427
3367.63266 1.36446
3365.58422 1.36432
3363.53578 1.36461
3361.48735 1.36521
3359.43891 1.36510
3357.39047 1.36485
3355.34203 1.36558
3353.29359 1.36648
3351.24515 1.36641
3349.19672 1.36600
3347.14828 1.36583
3345.09984 1.36586
3343.05140 1.36582
3341.00296 1.36533
3338.95452 1.36554
3336.90609 1.36649
3334.85765 1.36652
3332.80921 1.36585
3330.76077 1.36529
3328.71233 1.36538
3326.66389 1.36634
3324.61545 1.36701
3322.56702 1.36691
3320.51858 1.36656
3318.47014 1.36599
3316.42170 1.36589
3314.37326 1.36669
3312.32482 1.36728
3310.27639 1.36735
3308.22795 1.36732
3306.17951 1.36716
3304.13107 1.36703
3302.08263 1.36709
3300.03419 1.36720
3297.98576 1.36719
3295.93732 1.36734
3293.88888 1.36787
3291.84044 1.36806
3289.79200 1.36766
3287.74356 1.36761
3285.69513 1.36816
3283.64669 1.36845
3281.59825 1.36794
3279.54981 1.36756
3277.50137 1.36820
3275.45293 1.36905
3273.40450 1.36931
3271.35606 1.36928
3269.30762 1.36937
3267.25918 1.36947
3265.21074 1.36947
3263.16230 1.36967
3261.11387 1.36994
3259.06543 1.37008
3257.01699 1.37026
3254.96855 1.37036
3252.92011 1.37043
3250.87167 1.37057
3248.82324 1.37059
3246.77480 1.37054
3244.72636 1.37046
3242.67792 1.37018
3240.62948 1.37008
3238.58104 1.37032
3236.53261 1.37045
3234.48417 1.37054
3232.43573 1.37060
3230.38729 1.37020
3228.33885 1.36993
3226.29041 1.37051
3224.24198 1.37150
3222.19354 1.37205
3220.14510 1.37166
3218.09666 1.37094
3216.04822 1.37069
3213.99978 1.37069
3211.95135 1.37057
3209.90291 1.37034
3207.85447 1.37028
3205.80603 1.37044
3203.75759 1.37068
3201.70915 1.37107
3199.66072 1.37136
3197.61228 1.37135
3195.56384 1.37140
3193.51540 1.37161
3191.46696 1.37155
3189.41852 1.37139
3187.37008 1.37140
3185.32165 1.37124
3183.27321 1.37080
3181.22477 1.37068
3179.17633 1.37113
3177.12789 1.37135
3175.07945 1.37105
3173.03102 1.37096
3170.98258 1.37117
3168.93414 1.37116
3166.88570 1.37101
3164.83726 1.37101
3162.78882 1.37084
3160.74039 1.37029
3158.69195 1.36970
3156.64351 1.36948
3154.59507 1.36964
3152.54663 1.36991
3150.49819 1.36998
3148.44976 1.36960
3146.40132 1.36913
3144.35288 1.36908
3142.30444 1.36932
3140.25600 1.36940
3138.20756 1.36913
3136.15913 1.36878
3134.11069 1.36871
3132.06225 1.36864
3130.01381 1.36853
3127.96537 1.36860
3125.91693 1.36863
3123.86850 1.36847
3121.82006 1.36820
3119.77162 1.36823
3117.72318 1.36854
3115.67474 1.36817
3113.62630 1.36714
3111.57787 1.36660
3109.52943 1.36652
3107.48099 1.36613
3105.43255 1.36550
3103.38411 1.36536
3101.33567 1.36572
3099.28724 1.36559
3097.23880 1.36523
3095.19036 1.36546
3093.14192 1.36547
3091.09348 1.36473
3089.04504 1.36417
3086.99661 1.36432
3084.94817 1.36445
3082.89973 1.36406
3080.85129 1.36369
3078.80285 1.36339
3076.75441 1.36267
3074.70598 1.36226
3072.65754 1.36250
3070.60910 1.36268
3068.56066 1.36256
3066.51222 1.36233
3064.46378 1.36214
3062.41535 1.36184
3060.36691 1.36134
3058.31847 1.36083
3056.27003 1.36035
3054.22159 1.36037
3052.17315 1.36091
3050.12471 1.36087
3048.07628 1.36032
3046.02784 1.36018
3043.97940 1.36000
3041.93096 1.35949
3039.88252 1.35906
3037.83408 1.35877
3035.78565 1.35863
3033.73721 1.35880
3031.68877 1.35901
3029.64033 1.35880
3027.59189 1.35824
3025.54345 1.35777
3023.49502 1.35747
3021.44658 1.35721
3019.39814 1.35696
3017.34970 1.35678
3015.30126 1.35681
3013.25282 1.35681
3011.20439 1.35666
3009.15595 1.35656
3007.10751 1.35637
3005.05907 1.35600
3003.01063 1.35545
3000.96219 1.35472
2998.91376 1.35441
2996.86532 1.35496
2994.81688 1.35571
2992.76844 1.35552
2990.72000 1.35475
2988.67156 1.35430
2986.62313 1.35385
2984.57469 1.35305
2982.52625 1.35248
2980.47781 1.35266
2978.42937 1.35311
2976.38093 1.35351
2974.33250 1.35391
2972.28406 1.35383
2970.23562 1.35305
2968.18718 1.35203
2966.13874 1.35166
2964.09030 1.35215
2962.04187 1.35254
2959.99343 1.35231
2957.94499 1.35187
2955.89655 1.35155
2953.84811 1.35125
2951.79967 1.35108
2949.75124 1.35123
2947.70280 1.35132
2945.65436 1.35105
2943.60592 1.35085
2941.55748 1.35084
2939.50904 1.35049
2937.46061 1.35008
2935.41217 1.35029
2933.36373 1.35057
2931.31529 1.35010
2929.26685 1.34934
2927.21841 1.34909
2925.16998 1.34905
2923.12154 1.34891
2921.07310 1.34899
2919.02466 1.34916
2916.97622 1.34898
2914.92778 1.34846
2912.87934 1.34786
2910.83091 1.34747
2908.78247 1.34735
2906.73403 1.34756
2904.68559 1.34769
2902.63715 1.34742
2900.58871 1.34717
2898.54028 1.34711
2896.49184 1.34724
2894.44340 1.34734
2892.39496 1.34695
2890.34652 1.34641
2888.29808 1.34624
2886.24965 1.34623
2884.20121 1.34616
2882.15277 1.34605
2880.10433 1.34581
2878.05589 1.34542
2876.00745 1.34515
2873.95902 1.34499
2871.91058 1.34472
2869.86214 1.34451
2867.81370 1.34450
2865.76526 1.34466
2863.71682 1.34503
2861.66839 1.34521
2859.61995 1.34487
2857.57151 1.34459
2855.52307 1.34495
2853.47463 1.34538
2851.42619 1.34514
2849.37776 1.34416
2847.32932 1.34316
2845.28088 1.34283
2843.23244 1.34288
2841.18400 1.34281
2839.13556 1.34250
2837.08713 1.34213
2835.03869 1.34205
2832.99025 1.34205
2830.94181 1.34177
2828.89337 1.34169
2826.84493 1.34191
2824.79650 1.34166
2822.74806 1.34122
2820.69962 1.34141
2818.65118 1.34180
2816.60274 1.34179
2814.55430 1.34158
2812.50587 1.34147
2810.45743 1.34136
2808.40899 1.34111
2806.36055 1.34086
2804.31211 1.34081
2802.26367 1.34086
2800.21524 1.34084
2798.16680 1.34092
2796.11836 1.34087
2794.06992 1.34067
2792.02148 1.34088
2789.97304 1.34119
2787.92461 1.34107
2785.87617 1.34072
2783.82773 1.34034
2781.77929 1.34010
2779.73085 1.34016
2777.68241 1.34013
2775.63397 1.33957
2773.58554 1.33885
2771.53710 1.33868
2769.48866 1.33885
2767.44022 1.33878
2765.39178 1.33872
2763.34334 1.33863
2761.29491 1.33831
2759.24647 1.33814
2757.19803 1.33821
2755.14959 1.33792
2753.10115 1.33731
2751.05271 1.33703
2749.00428 1.33720
2746.95584 1.33725
2744.90740 1.33701
2742.85896 1.33686
2740.81052 1.33696
2738.76208 1.33736
2736.71365 1.33778
2734.66521 1.33773
2732.61677 1.33737
2730.56833 1.33723
2728.51989 1.33728
2726.47145 1.33714
2724.42302 1.33697
2722.37458 1.33697
2720.32614 1.33682
2718.27770 1.33654
2716.22926 1.33641
2714.18082 1.33638
2712.13239 1.33650
2710.08395 1.33674
2708.03551 1.33684
2705.98707 1.33691
2703.93863 1.33688
2701.89019 1.33669
2699.84176 1.33648
2697.79332 1.33627
2695.74488 1.33605
2693.69644 1.33597
2691.64800 1.33607
2689.59956 1.33607
2687.55113 1.33569
2685.50269 1.33523
2683.45425 1.33508
2681.40581 1.33509
2679.35737 1.33520
2677.30893 1.33543
2675.26050 1.33569
2673.21206 1.33595
2671.16362 1.33581
2669.11518 1.33520
2667.06674 1.33475
2665.01830 1.33477
2662.96987 1.33496
2660.92143 1.33502
2658.87299 1.33503
2656.82455 1.33510
2654.77611 1.33512
2652.72767 1.33495
2650.67924 1.33467
2648.63080 1.33462
2646.58236 1.33473
2644.53392 1.33473
2642.48548 1.33458
2640.43704 1.33442
2638.38860 1.33447
2636.34017 1.33483
2634.29173 1.33502
2632.24329 1.33468
2630.19485 1.33430
2628.14641 1.33420
2626.09797 1.33425
2624.04954 1.33441
2622.00110 1.33452
2619.95266 1.33472
2617.90422 1.33503
2615.85578 1.33491
2613.80734 1.33451
2611.75891 1.33441
2609.71047 1.33445
2607.66203 1.33452
2605.61359 1.33450
2603.56515 1.33433
2601.51671 1.33432
2599.46828 1.33456
2597.41984 1.33486
2595.37140 1.33487
2593.32296 1.33443
2591.27452 1.33406
2589.22608 1.33409
2587.17765 1.33417
2585.12921 1.33421
2583.08077 1.33427
2581.03233 1.33436
2578.98389 1.33442
2576.93545 1.33436
2574.88702 1.33433
2572.83858 1.33443
2570.79014 1.33458
2568.74170 1.33476
2566.69326 1.33499
2564.64482 1.33512
2562.59639 1.33520
2560.54795 1.33518
2558.49951 1.33497
2556.45107 1.33487
2554.40263 1.33496
2552.35419 1.33495
2550.30576 1.33472
2548.25732 1.33443
2546.20888 1.33423
2544.16044 1.33411
2542.11200 1.33408
2540.06356 1.33421
2538.01513 1.33438
2535.96669 1.33450
2533.91825 1.33461
2531.86981 1.33456
2529.82137 1.33439
2527.77293 1.33432
2525.72450 1.33431
2523.67606 1.33417
2521.62762 1.33408
2519.57918 1.33424
2517.53074 1.33439
2515.48230 1.33442
2513.43387 1.33455
2511.38543 1.33475
2509.33699 1.33479
2507.28855 1.33466
2505.24011 1.33452
2503.19167 1.33446
2501.14324 1.33444
2499.09480 1.33446
2497.04636 1.33444
2494.99792 1.33430
2492.94948 1.33413
2490.90104 1.33416
2488.85260 1.33436
2486.80417 1.33443
2484.75573 1.33443
2482.70729 1.33448
2480.65885 1.33461
2478.61041 1.33464
2476.56197 1.33446
2474.51354 1.33434
2472.46510 1.33429
2470.41666 1.33429
2468.36822 1.33459
2466.31978 1.33487
2464.27134 1.33469
2462.22291 1.33427
2460.17447 1.33403
2458.12603 1.33425
2456.07759 1.33455
2454.02915 1.33443
2451.98071 1.33400
2449.93228 1.33361
2447.88384 1.33334
2445.83540 1.33326
2443.78696 1.33322
2441.73852 1.33319
2439.69008 1.33350
2437.64165 1.33380
2435.59321 1.33359
2433.54477 1.33319
2431.49633 1.33295
2429.44789 1.33282
2427.39945 1.33293
2425.35102 1.33328
2423.30258 1.33326
2421.25414 1.33287
2419.20570 1.33271
2417.15726 1.33282
2415.10882 1.33279
2413.06039 1.33264
2411.01195 1.33259
2408.96351 1.33214
2406.91507 1.33132
2404.86663 1.33102
2402.81819 1.33139
2400.76976 1.33186
2398.72132 1.33180
2396.67288 1.33122
2394.62444 1.33084
2392.57600 1.33096
2390.52756 1.33119
2388.47913 1.33096
2386.43069 1.33054
2384.38225 1.33049
2382.33381 1.33052
2380.28537 1.33002
2378.23693 1.32873
2376.18850 1.32717
2374.14006 1.32610
2372.09162 1.32535
2370.04318 1.32409
2367.99474 1.32229
2365.94630 1.32047
2363.89787 1.31898
2361.84943 1.31802
2359.80099 1.31803
2357.75255 1.31880
2355.70411 1.32023
2353.65567 1.32238
2351.60723 1.32470
2349.55880 1.32659
2347.51036 1.32724
2345.46192 1.32564
2343.41348 1.32308
2341.36504 1.32299
2339.31660 1.32428
2337.26817 1.32433
2335.21973 1.32385
2333.17129 1.32378
2331.12285 1.32388
2329.07441 1.32407
2327.02597 1.32398
2324.97754 1.32341
2322.92910 1.32314
2320.88066 1.32337
2318.83222 1.32379
2316.78378 1.32448
2314.73534 1.32550
2312.68691 1.32641
2310.63847 1.32671
2308.59003 1.32651
2306.54159 1.32617
2304.49315 1.32583
2302.44471 1.32590
2300.39628 1.32662
2298.34784 1.32722
2296.29940 1.32682
2294.25096 1.32594
2292.20252 1.32575
2290.15408 1.32623
2288.10565 1.32663
2286.05721 1.32670
2284.00877 1.32662
2281.96033 1.32662
2279.91189 1.32636
2277.86345 1.32574
2275.81502 1.32523
2273.76658 1.32486
2271.71814 1.32470
2269.66970 1.32498
2267.62126 1.32528
2265.57282 1.32522
2263.52439 1.32507
2261.47595 1.32503
2259.42751 1.32499
2257.37907 1.32482
2255.33063 1.32475
2253.28219 1.32494
2251.23376 1.32511
2249.18532 1.32488
2247.13688 1.32428
2245.08844 1.32381
2243.04000 1.32350
2240.99156 1.32309
2238.94313 1.32278
2236.89469 1.32273
2234.84625 1.32297
2232.79781 1.32314
2230.74937 1.32292
2228.70093 1.32274
2226.65250 1.32262
2224.60406 1.32227
2222.55562 1.32193
2220.50718 1.32191
2218.45874 1.32206
2216.41030 1.32213
2214.36186 1.32189
2212.31343 1.32137
2210.26499 1.32113
2208.21655 1.32137
2206.16811 1.32164
2204.11967 1.32139
2202.07123 1.32099
2200.02280 1.32108
2197.97436 1.32145
2195.92592 1.32155
2193.87748 1.32118
2191.82904 1.32066
2189.78060 1.32039
2187.73217 1.32035
2185.68373 1.32008
2183.63529 1.31961
2181.58685 1.31939
2179.53841 1.31946
2177.48997 1.31973
2175.44154 1.31980
2173.39310 1.31951
2171.34466 1.31928
2169.29622 1.31903
2167.24778 1.31866
2165.19934 1.31841
2163.15091 1.31816
2161.10247 1.31791
2159.05403 1.31775
2157.00559 1.31750
2154.95715 1.31723
2152.90871 1.31720
2150.86028 1.31733
2148.81184 1.31733
2146.76340 1.31710
2144.71496 1.31707
2142.66652 1.31742
2140.61808 1.31757
2138.56965 1.31735
2136.52121 1.31695
2134.47277 1.31666
2132.42433 1.31671
2130.37589 1.31658
2128.32745 1.31606
2126.27902 1.31565
2124.23058 1.31562
2122.18214 1.31580
2120.13370 1.31575
2118.08526 1.31533
2116.03682 1.31507
2113.98839 1.31510
2111.93995 1.31499
2109.89151 1.31475
2107.84307 1.31453
2105.79463 1.31436
2103.74619 1.31431
2101.69776 1.31435
2099.64932 1.31431
2097.60088 1.31407
2095.55244 1.31381
2093.50400 1.31393
2091.45556 1.31423
2089.40713 1.31422
2087.35869 1.31404
2085.31025 1.31373
2083.26181 1.31304
2081.21337 1.31264
2079.16493 1.31292
2077.11649 1.31332
2075.06806 1.31362
2073.01962 1.31369
2070.97118 1.31350
2068.92274 1.31344
2066.87430 1.31353
2064.82586 1.31333
2062.77743 1.31273
2060.72899 1.31221
2058.68055 1.31192
2056.63211 1.31182
2054.58367 1.31185
2052.53523 1.31186
2050.48680 1.31194
2048.43836 1.31197
2046.38992 1.31185
2044.34148 1.31192
2042.29304 1.31191
2040.24460 1.31152
2038.19617 1.31121
2036.14773 1.31109
2034.09929 1.31093
2032.05085 1.31086
2030.00241 1.31069
2027.95397 1.31050
2025.90554 1.31089
2023.85710 1.31162
2021.80866 1.31192
2019.76022 1.31174
2017.71178 1.31137
2015.66334 1.31088
2013.61491 1.31052
2011.56647 1.31045
2009.51803 1.31038
2007.46959 1.31010
2005.42115 1.30961
2003.37271 1.30919
2001.32428 1.30921
1999.27584 1.30969
1997.22740 1.31028
1995.17896 1.31071
1993.13052 1.31110
1991.08208 1.31106
1989.03365 1.31054
1986.98521 1.31007
1984.93677 1.30971
1982.88833 1.30920
1980.83989 1.30851
1978.79145 1.30799
1976.74302 1.30790
1974.69458 1.30813
1972.64614 1.30850
1970.59770 1.30905
1968.54926 1.30985
1966.50082 1.31008
1964.45239 1.30930
1962.40395 1.30851
1960.35551 1.30830
1958.30707 1.30839
1956.25863 1.30851
1954.21019 1.30829
1952.16176 1.30785
1950.11332 1.30782
1948.06488 1.30824
1946.01644 1.30884
1943.96800 1.30943
1941.91956 1.30937
1939.87112 1.30865
1937.82269 1.30826
1935.77425 1.30824
1933.72581 1.30794
1931.67737 1.30730
1929.62893 1.30678
1927.58049 1.30665
1925.53206 1.30721
1923.48362 1.30811
1921.43518 1.30824
1919.38674 1.30788
1917.33830 1.30730
1915.28986 1.30651
1913.24143 1.30647
1911.19299 1.30724
1909.14455 1.30760
1907.09611 1.30708
1905.04767 1.30642
1902.99923 1.30604
1900.95080 1.30605
1898.90236 1.30648
1896.85392 1.30684
1894.80548 1.30648
1892.75704 1.30602
1890.70860 1.30641
1888.66017 1.30657
1886.61173 1.30580
1884.56329 1.30530
1882.51485 1.30532
1880.46641 1.30521
1878.41797 1.30496
1876.36954 1.30488
1874.32110 1.30497
1872.27266 1.30574
1870.22422 1.30780
1868.17578 1.30898
1866.12734 1.30718
1864.07891 1.30517
1862.03047 1.30459
1859.98203 1.30465
1857.93359 1.30451
1855.88515 1.30423
1853.83671 1.30393
1851.78828 1.30388
1849.73984 1.30462
1847.69140 1.30591
1845.64296 1.30709
1843.59452 1.30699
1841.54608 1.30545
1839.49765 1.30456
1837.44921 1.30446
1835.40077 1.30427
1833.35233 1.30477
1831.30389 1.30627
1829.25545 1.30684
1827.20702 1.30636
1825.15858 1.30599
1823.11014 1.30473
1821.06170 1.30333
1819.01326 1.30318
1816.96482 1.30358
1814.91639 1.30372
1812.86795 1.30420
1810.81951 1.30495
1808.77107 1.30472
1806.72263 1.30377
1804.67419 1.30368
1802.62575 1.30502
1800.57732 1.30619
1798.52888 1.30598
1796.48044 1.30604
1794.43200 1.30722
1792.38356 1.30804
1790.33512 1.30637
1788.28669 1.30418
1786.23825 1.30332
1784.18981 1.30358
1782.14137 1.30438
1780.09293 1.30484
1778.04449 1.30463
1775.99606 1.30506
1773.94762 1.30677
1771.89918 1.30791
1769.85074 1.30668
1767.80230 1.30492
1765.75386 1.30385
1763.70543 1.30392
1761.65699 1.30456
1759.60855 1.30467
1757.56011 1.30452
1755.51167 1.30421
1753.46323 1.30445
1751.41480 1.30626
1749.36636 1.30826
1747.31792 1.30805
1745.26948 1.30679
1743.22104 1.30569
1741.17260 1.30517
1739.12417 1.30512
1737.07573 1.30539
1735.02729 1.30653
1732.97885 1.30723
1730.93041 1.30575
1728.88197 1.30366
1726.83354 1.30241
1724.78510 1.30268
1722.73666 1.30334
1720.68822 1.30421
1718.63978 1.30723
1716.59134 1.31056
1714.54291 1.30841
1712.49447 1.30507
1710.44603 1.30388
1708.39759 1.30500
1706.34915 1.30711
1704.30071 1.30779
1702.25228 1.30756
1700.20384 1.30931
1698.15540 1.31142
1696.10696 1.30966
1694.05852 1.30620
1692.01008 1.30484
1689.96165 1.30571
1687.91321 1.30758
1685.86477 1.30951
1683.81633 1.31089
1681.76789 1.30987
1679.71945 1.30822
1677.67102 1.30725
1675.62258 1.30740
1673.57414 1.30831
1671.52570 1.30946
1669.47726 1.30974
1667.42882 1.30796
1665.38038 1.30684
1663.33195 1.30725
1661.28351 1.30735
1659.23507 1.30692
1657.18663 1.30772
1655.13819 1.31014
1653.08975 1.31282
1651.04132 1.31285
1648.99288 1.31320
1646.94444 1.31295
1644.89600 1.30985
1642.84756 1.30744
1640.79912 1.30710
1638.75069 1.30898
1636.70225 1.31170
1634.65381 1.31062
1632.60537 1.30782
1630.55693 1.30665
1628.50849 1.30688
1626.46006 1.30791
1624.41162 1.30891
1622.36318 1.30868
1620.31474 1.30812
1618.26630 1.30919
1616.21786 1.30995
1614.16943 1.30817
1612.12099 1.30698
1610.07255 1.30722
1608.02411 1.30736
1605.97567 1.30680
1603.92723 1.30652
1601.87880 1.30635
1599.83036 1.30575
1597.78192 1.30574
1595.73348 1.30660
1593.68504 1.30715
1591.63660 1.30709
1589.58817 1.30671
1587.53973 1.30614
1585.49129 1.30564
1583.44285 1.30559
1581.39441 1.30622
1579.34597 1.30771
1577.29754 1.30992
1575.24910 1.31039
1573.20066 1.30927
1571.15222 1.30933
1569.10378 1.30954
1567.05534 1.30871
1565.00691 1.30839
1562.95847 1.30898
1560.91003 1.31060
1558.86159 1.31435
1556.81315 1.31518
1554.76471 1.31280
1552.71628 1.31025
1550.66784 1.30884
1548.61940 1.30851
1546.57096 1.30980
1544.52252 1.31335
1542.47408 1.31691
1540.42565 1.31567
1538.37721 1.31121
1536.32877 1.30952
1534.28033 1.30936
1532.23189 1.30893
1530.18345 1.30844
1528.13501 1.30929
1526.08658 1.31124
1524.03814 1.31323
1521.98970 1.31447
1519.94126 1.31355
1517.89282 1.31179
1515.84438 1.30957
1513.79595 1.30807
1511.74751 1.30926
1509.69907 1.31290
1507.65063 1.31558
1505.60219 1.31102
1503.55375 1.30709
1501.50532 1.30607
1499.45688 1.30682
1497.40844 1.30773
1495.36000 1.30656
1493.31156 1.30575
1491.26312 1.30736
1489.21469 1.30912
1487.16625 1.30688
1485.11781 1.30384
1483.06937 1.30265
1481.02093 1.30257
1478.97249 1.30270
1476.92406 1.30396
1474.87562 1.30670
1472.82718 1.30773
1470.77874 1.30484
1468.73030 1.30262
1466.68186 1.30262
1464.63343 1.30305
1462.58499 1.30280
1460.53655 1.30399
1458.48811 1.30743
1456.43967 1.30809
1454.39123 1.30444
1452.34280 1.30208
1450.29436 1.30148
1448.24592 1.30148
1446.19748 1.30046
1444.14904 1.29921
1442.10060 1.29898
1440.05217 1.29960
1438.00373 1.30094
1435.95529 1.30203
1433.90685 1.30159
1431.85841 1.30111
1429.80997 1.30090
1427.76154 1.30052
1425.71310 1.30097
1423.66466 1.30214
1421.61622 1.30284
1419.56778 1.30345
1417.51934 1.30306
1415.47091 1.30136
1413.42247 1.30016
1411.37403 1.29965
1409.32559 1.29956
1407.27715 1.30017
1405.22871 1.30084
1403.18028 1.30082
1401.13184 1.30150
1399.08340 1.30312
1397.03496 1.30368
1394.98652 1.30239
1392.93808 1.30025
1390.88965 1.29903
1388.84121 1.29924
1386.79277 1.29932
1384.74433 1.29808
1382.69589 1.29697
1380.64745 1.29682
1378.59901 1.29741
1376.55058 1.29850
1374.50214 1.29928
1372.45370 1.29845
1370.40526 1.29718
1368.35682 1.29669
1366.30838 1.29686
1364.25995 1.29779
1362.21151 1.29832
1360.16307 1.29700
1358.11463 1.29549
1356.06619 1.29494
1354.01775 1.29485
1351.96932 1.29470
1349.92088 1.29462
1347.87244 1.29442
1345.82400 1.29376
1343.77556 1.29349
1341.72712 1.29463
1339.67869 1.29584
1337.63025 1.29486
1335.58181 1.29303
1333.53337 1.29198
1331.48493 1.29144
1329.43649 1.29106
1327.38806 1.29071
1325.33962 1.29036
1323.29118 1.29029
1321.24274 1.29063
1319.19430 1.29069
1317.14586 1.29012
1315.09743 1.28951
1313.04899 1.28888
1311.00055 1.28803
1308.95211 1.28715
1306.90367 1.28641
1304.85523 1.28612
1302.80680 1.28613
1300.75836 1.28597
1298.70992 1.28585
1296.66148 1.28569
1294.61304 1.28520
1292.56460 1.28481
1290.51617 1.28463
1288.46773 1.28423
1286.41929 1.28378
1284.37085 1.28342
1282.32241 1.28303
1280.27397 1.28268
1278.22554 1.28250
1276.17710 1.28252
1274.12866 1.28264
1272.08022 1.28266
1270.03178 1.28255
1267.98334 1.28242
1265.93491 1.28236
1263.88647 1.28249
1261.83803 1.28276
1259.78959 1.28268
1257.74115 1.28189
1255.69271 1.28080
1253.64428 1.28004
1251.59584 1.27969
1249.54740 1.27954
1247.49896 1.27934
1245.45052 1.27893
1243.40208 1.27843
1241.35364 1.27808
1239.30521 1.27793
1237.25677 1.27770
1235.20833 1.27730
1233.15989 1.27697
1231.11145 1.27668
1229.06301 1.27630
1227.01458 1.27594
1224.96614 1.27562
1222.91770 1.27522
1220.86926 1.27485
1218.82082 1.27470
1216.77238 1.27436
1214.72395 1.27368
1212.67551 1.27323
1210.62707 1.27306
1208.57863 1.27288
1206.53019 1.27261
1204.48175 1.27231
1202.43332 1.27203
1200.38488 1.27176
1198.33644 1.27181
1196.28800 1.27202
1194.23956 1.27164
1192.19112 1.27084
1190.14269 1.27037
1188.09425 1.27019
1186.04581 1.26993
1183.99737 1.26949
1181.94893 1.26924
1179.90049 1.26931
1177.85206 1.26916
1175.80362 1.26860
1173.75518 1.26807
1171.70674 1.26777
1169.65830 1.26758
1167.60986 1.26745
1165.56143 1.26739
1163.51299 1.26740
1161.46455 1.26746
1159.41611 1.26743
1157.36767 1.26723
1155.31923 1.26696
1153.27080 1.26666
1151.22236 1.26647
1149.17392 1.26657
1147.12548 1.26664
1145.07704 1.26632
1143.02860 1.26581
1140.98017 1.26561
1138.93173 1.26572
1136.88329 1.26565
1134.83485 1.26533
1132.78641 1.26495
1130.73797 1.26463
1128.68954 1.26430
1126.64110 1.26394
1124.59266 1.26371
1122.54422 1.26388
1120.49578 1.26433
1118.44734 1.26455
1116.39891 1.26440
1114.35047 1.26409
1112.30203 1.26376
1110.25359 1.26365
1108.20515 1.26368
1106.15671 1.26366
1104.10827 1.26368
1102.05984 1.26354
1100.01140 1.26314
1097.96296 1.26282
1095.91452 1.26251
1093.86608 1.26198
1091.81764 1.26154
1089.76921 1.26124
1087.72077 1.26084
1085.67233 1.26036
1083.62389 1.25995
1081.57545 1.25983
1079.52701 1.25977
1077.47858 1.25943
1075.43014 1.25915
1073.38170 1.25895
1071.33326 1.25870
1069.28482 1.25867
1067.23638 1.25865
1065.18795 1.25844
1063.13951 1.25842
1061.09107 1.25841
1059.04263 1.25811
1056.99419 1.25791
1054.94575 1.25794
1052.89732 1.25798
1050.84888 1.25804
1048.80044 1.25799
1046.75200 1.25767
1044.70356 1.25722
1042.65512 1.25678
1040.60669 1.25631
1038.55825 1.25593
1036.50981 1.25590
1034.46137 1.25600
1032.41293 1.25577
1030.36449 1.25522
1028.31606 1.25461
1026.26762 1.25413
1024.21918 1.25381
1022.17074 1.25365
1020.12230 1.25375
1018.07386 1.25393
1016.02543 1.25390
1013.97699 1.25361
1011.92855 1.25294
1009.88011 1.25217
1007.83167 1.25193
1005.78323 1.25192
1003.73480 1.25129
1001.68636 1.25036
999.63792 1.24998
997.58948 1.24996
995.54104 1.24961
993.49260 1.24893
991.44417 1.24835
989.39573 1.24800
987.34729 1.24747
985.29885 1.24664
983.25041 1.24586
981.20197 1.24524
979.15354 1.24460
977.10510 1.24399
975.05666 1.24347
973.00822 1.24275
970.95978 1.24168
968.91134 1.24066
966.86290 1.23996
964.81447 1.23913
962.76603 1.23805
960.71759 1.23701
958.66915 1.23589
956.62071 1.23480
954.57227 1.23394
952.52384 1.23309
950.47540 1.23222
948.42696 1.23136
946.37852 1.23034
944.33008 1.22938
942.28164 1.22829
940.23321 1.22691
938.18477 1.22569
936.13633 1.22471
934.08789 1.22396
932.03945 1.22348
929.99101 1.22306
927.94258 1.22287
925.89414 1.22296
923.84570 1.22274
921.79726 1.22222
919.74882 1.22193
917.70038 1.22190
915.65195 1.22200
913.60351 1.22213
911.55507 1.22238
909.50663 1.22247
907.45819 1.22232
905.40975 1.22237
903.36132 1.22252
901.31288 1.22260
899.26444 1.22296
897.21600 1.22347
895.16756 1.22382
893.11912 1.22411
891.07069 1.22424
889.02225 1.22390
886.97381 1.22303
884.92537 1.22195
882.87693 1.22092
880.82849 1.22041
878.78006 1.22052
876.73162 1.21999
874.68318 1.21829
872.63474 1.21637
870.58630 1.21482
868.53786 1.21338
866.48943 1.21184
864.44099 1.21011
862.39255 1.20788
860.34411 1.20535
858.29567 1.20320
856.24723 1.20124
854.19880 1.19901
852.15036 1.19677
850.10192 1.19450
848.05348 1.19207
846.00504 1.18962
843.95660 1.18732
841.90817 1.18555
839.85973 1.18400
837.81129 1.18201
835.76285 1.17974
833.71441 1.17749
831.66597 1.17526
829.61753 1.17345
827.56910 1.17181
825.52066 1.16982
823.47222 1.16793
821.42378 1.16615
819.37534 1.16432
817.32690 1.16292
815.27847 1.16178
813.23003 1.16072
811.18159 1.16015
809.13315 1.15999
807.08471 1.15972
805.03627 1.15947
802.98784 1.15986
800.93940 1.16063
798.89096 1.16117
796.84252 1.16152
794.79408 1.16170
792.74564 1.16166
790.69721 1.16195
788.64877 1.16242
786.60033 1.16209
784.55189 1.16136
782.50345 1.16067
780.45501 1.15982
778.40658 1.15895
776.35814 1.15806
774.30970 1.15658
772.26126 1.15374
770.21282 1.15023
768.16438 1.14683
766.11595 1.14334
764.06751 1.13999
762.01907 1.13696
759.97063 1.13428
757.92219 1.13186
755.87375 1.12887
753.82532 1.12499
751.77688 1.12133
749.72844 1.11820
747.68000 1.11475
745.63156 1.11093
743.58312 1.10698
741.53469 1.10265
739.48625 1.09809
737.43781 1.09407
735.38937 1.09061
733.34093 1.08698
731.29249 1.08303
729.24406 1.07912
727.19562 1.07550
725.14718 1.07222
723.09874 1.06900
721.05030 1.06549
719.00186 1.06169
716.95343 1.05813
714.90499 1.05477
712.85655 1.05172
710.80811 1.04943
708.75967 1.04690
706.71123 1.04333
704.66280 1.03896
702.61436 1.03455
700.56592 1.03150
698.51748 1.02959
696.46904 1.02742
694.42060 1.02425
692.37216 1.02044
690.32373 1.01768
688.27529 1.01562
686.22685 1.01216
684.17841 1.00810
682.12997 1.00511
680.08153 1.00299
678.03310 1.00170
675.98466 1.00122
673.93622 0.99973
671.88778 0.99634
669.83934 0.99146
667.79090 0.98686
665.74247 0.98624
663.69403 0.98548
661.64559 0.98145
659.59715 0.97500
657.54871 0.96790
655.50027 0.96140
653.45184 0.95429
651.40340 0.94475
649.35496 0.93494
647.30652 0.92590
645.25808 0.91616
643.20964 0.90639
641.16121 0.89860
639.11277 0.89187
637.06433 0.88418
635.01589 0.87679
632.96745 0.87040
630.91901 0.86436
628.87058 0.85975
626.82214 0.85559
624.77370 0.85027
622.72526 0.84477
620.67682 0.83843
618.62838 0.83134
616.57995 0.82548
614.53151 0.81955
612.48307 0.81257
610.43463 0.80746
608.38619 0.80492
606.33775 0.79974
604.28932 0.79112
602.24088 0.78195
600.19244 0.76997
598.14400 0.75650
