3996.50324 0.88187
3994.45480 0.88233
3992.40636 0.88268
3990.35792 0.88264
3988.30948 0.88190
3986.26104 0.88113
3984.21261 0.88116
3982.16417 0.88162
3980.11573 0.88176
3978.06729 0.88197
3976.01885 0.88267
3973.97041 0.88302
3971.92198 0.88266
3969.87354 0.88207
3967.82510 0.88134
3965.77666 0.88109
3963.72822 0.88200
3961.67978 0.88277
3959.63135 0.88223
3957.58291 0.88165
3955.53447 0.88177
3953.48603 0.88258
3951.43759 0.88433
3949.38915 0.88579
3947.34072 0.88513
3945.29228 0.88465
3943.24384 0.88518
3941.19540 0.88361
3939.14696 0.88116
3937.09852 0.88053
3935.05009 0.88263
3933.00165 0.88645
3930.95321 0.88756
3928.90477 0.88550
3926.85633 0.88542
3924.80789 0.88719
3922.75946 0.88666
3920.71102 0.88586
3918.66258 0.88688
3916.61414 0.88587
3914.56570 0.88204
3912.51726 0.87940
3910.46883 0.87920
3908.42039 0.88199
3906.37195 0.88916
3904.32351 0.89742
3902.27507 0.89915
3900.22663 0.89528
3898.17820 0.88927
3896.12976 0.88527
3894.08132 0.88670
3892.03288 0.88965
3889.98444 0.88762
3887.93600 0.88634
3885.88756 0.88915
3883.83913 0.89146
3881.79069 0.89184
3879.74225 0.88880
3877.69381 0.88510
3875.64537 0.88682
3873.59693 0.89213
3871.54850 0.89645
3869.50006 0.89646
3867.45162 0.89414
3865.40318 0.89530
3863.35474 0.89472
3861.30630 0.88906
3859.25787 0.88684
3857.20943 0.89103
3855.16099 0.90000
3853.11255 0.90511
3851.06411 0.89559
3849.01567 0.88651
3846.96724 0.88347
3844.91880 0.88627
3842.87036 0.89251
3840.82192 0.89965
3838.77348 0.90384
3836.72504 0.89995
3834.67661 0.89389
3832.62817 0.88968
3830.57973 0.88679
3828.53129 0.88628
3826.48285 0.88739
3824.43441 0.88963
3822.38598 0.89530
3820.33754 0.89898
3818.28910 0.89612
3816.24066 0.89128
3814.19222 0.88381
3812.14378 0.87914
3810.09535 0.88012
3808.04691 0.88520
3805.99847 0.88940
3803.95003 0.89270
3801.90159 0.89648
3799.85315 0.89419
3797.80472 0.88919
3795.75628 0.88333
3793.70784 0.87758
3791.65940 0.87511
3789.61096 0.87524
3787.56252 0.87712
3785.51409 0.87946
3783.46565 0.87974
3781.41721 0.88027
3779.36877 0.88129
3777.32033 0.87872
3775.27189 0.87593
3773.22346 0.87715
3771.17502 0.88170
3769.12658 0.88454
3767.07814 0.88397
3765.02970 0.88221
3762.98126 0.88099
3760.93283 0.88359
3758.88439 0.88754
3756.83595 0.88789
3754.78751 0.88987
3752.73907 0.89854
3750.69063 0.90729
3748.64219 0.90462
3746.59376 0.90079
3744.54532 0.89752
3742.49688 0.89355
3740.44844 0.89290
3738.40000 0.89743
3736.35156 0.90579
3734.30313 0.90603
3732.25469 0.89518
3730.20625 0.88714
3728.15781 0.88640
3726.10937 0.88961
3724.06093 0.89052
3722.01250 0.88743
3719.96406 0.88294
3717.91562 0.87967
3715.86718 0.88007
3713.81874 0.88603
3711.77030 0.89404
3709.72187 0.89092
3707.67343 0.88219
3705.62499 0.87828
3703.57655 0.87912
3701.52811 0.87954
3699.47967 0.87682
3697.43124 0.87529
3695.38280 0.87657
3693.33436 0.88136
3691.28592 0.89027
3689.23748 0.89366
3687.18904 0.88460
3685.14061 0.87701
3683.09217 0.87501
3681.04373 0.87795
3678.99529 0.88495
3676.94685 0.89368
3674.89841 0.89527
3672.84998 0.89175
3670.80154 0.89180
3668.75310 0.88610
3666.70466 0.87655
3664.65622 0.87163
3662.60778 0.87067
3660.55935 0.87205
3658.51091 0.87555
3656.46247 0.87907
3654.41403 0.88058
3652.36559 0.88580
3650.31715 0.89830
3648.26872 0.90058
3646.22028 0.88707
3644.17184 0.87803
3642.12340 0.87455
3640.07496 0.87342
3638.02652 0.87328
3635.97809 0.87438
3633.92965 0.87709
3631.88121 0.88210
3629.83277 0.88895
3627.78433 0.88725
3625.73589 0.87923
3623.68746 0.87656
3621.63902 0.88037
3619.59058 0.88648
3617.54214 0.88733
3615.49370 0.88626
3613.44526 0.88566
3611.39682 0.88372
3609.34839 0.88268
3607.29995 0.88005
3605.25151 0.87532
3603.20307 0.87427
3601.15463 0.87691
3599.10619 0.87860
3597.05776 0.87888
3595.00932 0.87852
3592.96088 0.87609
3590.91244 0.87562
3588.86400 0.88038
3586.81556 0.88215
3584.76713 0.87594
3582.71869 0.87106
3580.67025 0.86969
3578.62181 0.86974
3576.57337 0.86970
3574.52493 0.86895
3572.47650 0.86890
3570.42806 0.87314
3568.37962 0.88237
3566.33118 0.88611
3564.28274 0.87919
3562.23430 0.87314
3560.18587 0.87016
3558.13743 0.86811
3556.08899 0.86772
3554.04055 0.86957
3551.99211 0.87073
3549.94367 0.87053
3547.89524 0.87256
3545.84680 0.87470
3543.79836 0.87187
3541.74992 0.86716
3539.70148 0.86521
3537.65304 0.86598
3535.60461 0.86622
3533.55617 0.86546
3531.50773 0.86665
3529.45929 0.86985
3527.41085 0.87199
3525.36241 0.87227
3523.31398 0.87088
3521.26554 0.86767
3519.21710 0.86504
3517.16866 0.86414
3515.12022 0.86393
3513.07178 0.86461
3511.02335 0.86620
3508.97491 0.86657
3506.92647 0.86617
3504.87803 0.86777
3502.82959 0.86892
3500.78115 0.86683
3498.73272 0.86489
3496.68428 0.86450
3494.63584 0.86390
3492.58740 0.86310
3490.53896 0.86323
3488.49052 0.86383
3486.44209 0.86394
3484.39365 0.86433
3482.34521 0.86533
3480.29677 0.86492
3478.24833 0.86344
3476.19989 0.86299
3474.15146 0.86307
3472.10302 0.86273
3470.05458 0.86241
3468.00614 0.86256
3465.95770 0.86297
3463.90926 0.86339
3461.86082 0.86345
3459.81239 0.86293
3457.76395 0.86251
3455.71551 0.86214
3453.66707 0.86163
3451.61863 0.86183
3449.57019 0.86344
3447.52176 0.86516
3445.47332 0.86506
3443.42488 0.86401
3441.37644 0.86292
3439.32800 0.86200
3437.27956 0.86166
3435.23113 0.86156
3433.18269 0.86161
3431.13425 0.86169
3429.08581 0.86162
3427.03737 0.86155
3424.98893 0.86200
3422.94050 0.86337
3420.89206 0.86428
3418.84362 0.86335
3416.79518 0.86181
3414.74674 0.86135
3412.69830 0.86163
3410.64987 0.86170
3408.60143 0.86160
3406.55299 0.86177
3404.50455 0.86210
3402.45611 0.86219
3400.40767 0.86221
3398.35924 0.86237
3396.31080 0.86237
3394.26236 0.86246
3392.21392 0.86234
3390.16548 0.86149
3388.11704 0.86113
3386.06861 0.86174
3384.02017 0.86220
3381.97173 0.86204
3379.92329 0.86171
3377.87485 0.86138
3375.82641 0.86124
3373.77798 0.86140
3371.72954 0.86151
3369.68110 0.86148
3367.63266 0.86159
3365.58422 0.86180
3363.53578 0.86183
3361.48735 0.86167
3359.43891 0.86141
3357.39047 0.86127
3355.34203 0.86122
3353.29359 0.86103
3351.24515 0.86094
3349.19672 0.86102
3347.14828 0.86095
3345.09984 0.86075
3343.05140 0.86076
3341.00296 0.86102
3338.95452 0.86143
3336.90609 0.86169
3334.85765 0.86140
3332.80921 0.86089
3330.76077 0.86075
3328.71233 0.86095
3326.66389 0.86107
3324.61545 0.86089
3322.56702 0.86074
3320.51858 0.86093
3318.47014 0.86127
3316.42170 0.86149
3314.37326 0.86159
3312.32482 0.86175
3310.27639 0.86199
3308.22795 0.86204
3306.17951 0.86174
3304.13107 0.86137
3302.08263 0.86129
3300.03419 0.86143
3297.98576 0.86138
3295.93732 0.86118
3293.88888 0.86128
3291.84044 0.86160
3289.79200 0.86177
3287.74356 0.86174
3285.69513 0.86165
3283.64669 0.86157
3281.59825 0.86163
3279.54981 0.86189
3277.50137 0.86231
3275.45293 0.86265
3273.40450 0.86250
3271.35606 0.86181
3269.30762 0.86126
3267.25918 0.86126
3265.21074 0.86145
3263.16230 0.86162
3261.11387 0.86181
3259.06543 0.86203
3257.01699 0.86220
3254.96855 0.86212
3252.92011 0.86186
3250.87167 0.86175
3248.82324 0.86191
3246.77480 0.86222
3244.72636 0.86245
3242.67792 0.86231
3240.62948 0.86197
3238.58104 0.86168
3236.53261 0.86149
3234.48417 0.86157
3232.43573 0.86182
3230.38729 0.86181
3228.33885 0.86148
3226.29041 0.86115
3224.24198 0.86112
3222.19354 0.86149
3220.14510 0.86172
3218.09666 0.86142
3216.04822 0.86118
3213.99978 0.86106
3211.95135 0.86088
3209.90291 0.86076
3207.85447 0.86053
3205.80603 0.86007
3203.75759 0.85977
3201.70915 0.85990
3199.66072 0.86029
3197.61228 0.86044
3195.56384 0.86002
3193.51540 0.85943
3191.46696 0.85925
3189.41852 0.85947
3187.37008 0.85960
3185.32165 0.85933
3183.27321 0.85885
3181.22477 0.85870
3179.17633 0.85897
3177.12789 0.85893
3175.07945 0.85849
3173.03102 0.85824
3170.98258 0.85819
3168.93414 0.85815
3166.88570 0.85819
3164.83726 0.85818
3162.78882 0.85795
3160.74039 0.85770
3158.69195 0.85766
3156.64351 0.85756
3154.59507 0.85724
3152.54663 0.85701
3150.49819 0.85699
3148.44976 0.85690
3146.40132 0.85669
3144.35288 0.85657
3142.30444 0.85650
3140.25600 0.85645
3138.20756 0.85648
3136.15913 0.85656
3134.11069 0.85661
3132.06225 0.85635
3130.01381 0.85594
3127.96537 0.85579
3125.91693 0.85578
3123.86850 0.85572
3121.82006 0.85562
3119.77162 0.85563
3117.72318 0.85568
3115.67474 0.85549
3113.62630 0.85511
3111.57787 0.85474
3109.52943 0.85435
3107.48099 0.85400
3105.43255 0.85393
3103.38411 0.85418
3101.33567 0.85429
3099.28724 0.85401
3097.23880 0.85380
3095.19036 0.85365
3093.14192 0.85324
3091.09348 0.85277
3089.04504 0.85242
3086.99661 0.85238
3084.94817 0.85273
3082.89973 0.85313
3080.85129 0.85318
3078.80285 0.85279
3076.75441 0.85221
3074.70598 0.85188
3072.65754 0.85188
3070.60910 0.85194
3068.56066 0.85209
3066.51222 0.85240
3064.46378 0.85238
3062.41535 0.85201
3060.36691 0.85193
3058.31847 0.85220
3056.27003 0.85219
3054.22159 0.85172
3052.17315 0.85140
3050.12471 0.85146
3048.07628 0.85150
3046.02784 0.85132
3043.97940 0.85105
3041.93096 0.85084
3039.88252 0.85068
3037.83408 0.85073
3035.78565 0.85120
3033.73721 0.85180
3031.68877 0.85190
3029.64033 0.85136
3027.59189 0.85086
3025.54345 0.85074
3023.49502 0.85073
3021.44658 0.85066
3019.39814 0.85058
3017.34970 0.85070
3015.30126 0.85097
3013.25282 0.85108
3011.20439 0.85094
3009.15595 0.85059
3007.10751 0.85039
3005.05907 0.85056
3003.01063 0.85067
3000.96219 0.85048
2998.91376 0.85036
2996.86532 0.85043
2994.81688 0.85040
2992.76844 0.85025
2990.72000 0.85022
2988.67156 0.85023
2986.62313 0.85008
2984.57469 0.84978
2982.52625 0.84970
2980.47781 0.84991
2978.42937 0.85003
2976.38093 0.84999
2974.33250 0.84986
2972.28406 0.84957
2970.23562 0.84923
2968.18718 0.84906
2966.13874 0.84913
2964.09030 0.84929
2962.04187 0.84932
2959.99343 0.84914
2957.94499 0.84899
2955.89655 0.84899
2953.84811 0.84899
2951.79967 0.84881
2949.75124 0.84865
2947.70280 0.84888
2945.65436 0.84909
2943.60592 0.84882
2941.55748 0.84848
2939.50904 0.84844
2937.46061 0.84856
2935.41217 0.84872
2933.36373 0.84865
2931.31529 0.84823
2929.26685 0.84794
2927.21841 0.84800
2925.16998 0.84815
2923.12154 0.84835
2921.07310 0.84859
2919.02466 0.84872
2916.97622 0.84880
2914.92778 0.84897
2912.87934 0.84912
2910.83091 0.84917
2908.78247 0.84912
2906.73403 0.84906
2904.68559 0.84906
2902.63715 0.84904
2900.58871 0.84894
2898.54028 0.84885
2896.49184 0.84874
2894.44340 0.84868
2892.39496 0.84879
2890.34652 0.84885
2888.29808 0.84874
2886.24965 0.84865
2884.20121 0.84863
2882.15277 0.84853
2880.10433 0.84828
2878.05589 0.84802
2876.00745 0.84794
2873.95902 0.84797
2871.91058 0.84795
2869.86214 0.84795
2867.81370 0.84795
2865.76526 0.84786
2863.71682 0.84769
2861.66839 0.84749
2859.61995 0.84740
2857.57151 0.84743
2855.52307 0.84747
2853.47463 0.84748
2851.42619 0.84758
2849.37776 0.84780
2847.32932 0.84804
2845.28088 0.84820
2843.23244 0.84830
2841.18400 0.84828
2839.13556 0.84820
2837.08713 0.84827
2835.03869 0.84837
2832.99025 0.84828
2830.94181 0.84813
2828.89337 0.84798
2826.84493 0.84781
2824.79650 0.84771
2822.74806 0.84765
2820.69962 0.84760
2818.65118 0.84757
2816.60274 0.84750
2814.55430 0.84740
2812.50587 0.84730
2810.45743 0.84720
2808.40899 0.84702
2806.36055 0.84684
2804.31211 0.84672
2802.26367 0.84656
2800.21524 0.84644
2798.16680 0.84648
2796.11836 0.84659
2794.06992 0.84663
2792.02148 0.84662
2789.97304 0.84653
2787.92461 0.84632
2785.87617 0.84615
2783.82773 0.84619
2781.77929 0.84634
2779.73085 0.84650
2777.68241 0.84667
2775.63397 0.84676
2773.58554 0.84670
2771.53710 0.84657
2769.48866 0.84644
2767.44022 0.84630
2765.39178 0.84622
2763.34334 0.84626
2761.29491 0.84636
2759.24647 0.84645
2757.19803 0.84651
2755.14959 0.84651
2753.10115 0.84646
2751.05271 0.84641
2749.00428 0.84644
2746.95584 0.84640
2744.90740 0.84618
2742.85896 0.84596
2740.81052 0.84583
2738.76208 0.84573
2736.71365 0.84567
2734.66521 0.84566
2732.61677 0.84564
2730.56833 0.84563
2728.51989 0.84564
2726.47145 0.84568
2724.42302 0.84572
2722.37458 0.84580
2720.32614 0.84586
2718.27770 0.84571
2716.22926 0.84548
2714.18082 0.84537
2712.13239 0.84529
2710.08395 0.84517
2708.03551 0.84507
2705.98707 0.84512
2703.93863 0.84517
2701.89019 0.84511
2699.84176 0.84505
2697.79332 0.84507
2695.74488 0.84516
2693.69644 0.84523
2691.64800 0.84516
2689.59956 0.84498
2687.55113 0.84485
2685.50269 0.84483
2683.45425 0.84498
2681.40581 0.84521
2679.35737 0.84533
2677.30893 0.84530
2675.26050 0.84515
2673.21206 0.84491
2671.16362 0.84472
2669.11518 0.84470
2667.06674 0.84476
2665.01830 0.84475
2662.96987 0.84468
2660.92143 0.84463
2658.87299 0.84462
2656.82455 0.84467
2654.77611 0.84472
2652.72767 0.84469
2650.67924 0.84454
2648.63080 0.84436
2646.58236 0.84427
2644.53392 0.84426
2642.48548 0.84427
2640.43704 0.84420
2638.38860 0.84406
2636.34017 0.84399
2634.29173 0.84400
2632.24329 0.84403
2630.19485 0.84411
2628.14641 0.84415
2626.09797 0.84404
2624.04954 0.84398
2622.00110 0.84416
2619.95266 0.84436
2617.90422 0.84440
2615.85578 0.84429
2613.80734 0.84408
2611.75891 0.84394
2609.71047 0.84397
2607.66203 0.84407
2605.61359 0.84414
2603.56515 0.84414
2601.51671 0.84403
2599.46828 0.84393
2597.41984 0.84401
2595.37140 0.84417
2593.32296 0.84414
2591.27452 0.84383
2589.22608 0.84349
2587.17765 0.84335
2585.12921 0.84338
2583.08077 0.84339
2581.03233 0.84339
2578.98389 0.84345
2576.93545 0.84355
2574.88702 0.84355
2572.83858 0.84339
2570.79014 0.84328
2568.74170 0.84328
2566.69326 0.84324
2564.64482 0.84316
2562.59639 0.84318
2560.54795 0.84323
2558.49951 0.84314
2556.45107 0.84304
2554.40263 0.84310
2552.35419 0.84326
2550.30576 0.84341
2548.25732 0.84348
2546.20888 0.84347
2544.16044 0.84336
2542.11200 0.84320
2540.06356 0.84321
2538.01513 0.84329
2535.96669 0.84323
2533.91825 0.84316
2531.86981 0.84323
2529.82137 0.84328
2527.77293 0.84330
2525.72450 0.84325
2523.67606 0.84304
2521.62762 0.84285
2519.57918 0.84278
2517.53074 0.84273
2515.48230 0.84268
2513.43387 0.84274
2511.38543 0.84284
2509.33699 0.84286
2507.28855 0.84280
2505.24011 0.84268
2503.19167 0.84265
2501.14324 0.84275
2499.09480 0.84271
2497.04636 0.84248
2494.99792 0.84231
2492.94948 0.84229
2490.90104 0.84235
2488.85260 0.84238
2486.80417 0.84238
2484.75573 0.84241
2482.70729 0.84244
2480.65885 0.84246
2478.61041 0.84241
2476.56197 0.84235
2474.51354 0.84239
2472.46510 0.84238
2470.41666 0.84226
2468.36822 0.84218
2466.31978 0.84221
2464.27134 0.84226
2462.22291 0.84218
2460.17447 0.84205
2458.12603 0.84197
2456.07759 0.84190
2454.02915 0.84188
2451.98071 0.84198
2449.93228 0.84207
2447.88384 0.84206
2445.83540 0.84189
2443.78696 0.84173
2441.73852 0.84181
2439.69008 0.84187
2437.64165 0.84180
2435.59321 0.84177
2433.54477 0.84175
2431.49633 0.84170
2429.44789 0.84173
2427.39945 0.84179
2425.35102 0.84170
2423.30258 0.84155
2421.25414 0.84161
2419.20570 0.84169
2417.15726 0.84169
2415.10882 0.84175
2413.06039 0.84175
2411.01195 0.84168
2408.96351 0.84174
2406.91507 0.84172
2404.86663 0.84149
2402.81819 0.84128
2400.76976 0.84118
2398.72132 0.84119
2396.67288 0.84133
2394.62444 0.84154
2392.57600 0.84173
2390.52756 0.84192
2388.47913 0.84228
2386.43069 0.84286
2384.38225 0.84382
2382.33381 0.84542
2380.28537 0.84754
2378.23693 0.84970
2376.18850 0.85183
2374.14006 0.85405
2372.09162 0.85641
2370.04318 0.85930
2367.99474 0.86241
2365.94630 0.86465
2363.89787 0.86593
2361.84943 0.86692
2359.80099 0.86731
2357.75255 0.86637
2355.70411 0.86432
2353.65567 0.86190
2351.60723 0.85936
2349.55880 0.85762
2347.51036 0.85780
2345.46192 0.85972
2343.41348 0.86139
2341.36504 0.86154
2339.31660 0.86103
2337.26817 0.86052
2335.21973 0.85994
2333.17129 0.85967
2331.12285 0.85969
2329.07441 0.85919
2327.02597 0.85840
2324.97754 0.85786
2322.92910 0.85718
2320.88066 0.85586
2318.83222 0.85401
2316.78378 0.85226
2314.73534 0.85122
2312.68691 0.85062
2310.63847 0.84990
2308.59003 0.84898
2306.54159 0.84789
2304.49315 0.84681
2302.44471 0.84595
2300.39628 0.84520
2298.34784 0.84446
2296.29940 0.84383
2294.25096 0.84336
2292.20252 0.84291
2290.15408 0.84234
2288.10565 0.84170
2286.05721 0.84121
2284.00877 0.84101
2281.96033 0.84099
2279.91189 0.84096
2277.86345 0.84094
2275.81502 0.84101
2273.76658 0.84115
2271.71814 0.84120
2269.66970 0.84117
2267.62126 0.84112
2265.57282 0.84110
2263.52439 0.84108
2261.47595 0.84097
2259.42751 0.84085
2257.37907 0.84081
2255.33063 0.84084
2253.28219 0.84083
2251.23376 0.84073
2249.18532 0.84066
2247.13688 0.84061
2245.08844 0.84048
2243.04000 0.84035
2240.99156 0.84038
2238.94313 0.84052
2236.89469 0.84058
2234.84625 0.84050
2232.79781 0.84041
2230.74937 0.84038
2228.70093 0.84047
2226.65250 0.84059
2224.60406 0.84058
2222.55562 0.84044
2220.50718 0.84022
2218.45874 0.84005
2216.41030 0.83994
2214.36186 0.83977
2212.31343 0.83963
2210.26499 0.83968
2208.21655 0.83966
2206.16811 0.83948
2204.11967 0.83942
2202.07123 0.83951
2200.02280 0.83960
2197.97436 0.83971
2195.92592 0.83981
2193.87748 0.83978
2191.82904 0.83975
2189.78060 0.83981
2187.73217 0.83980
2185.68373 0.83971
2183.63529 0.83973
2181.58685 0.83988
2179.53841 0.84002
2177.48997 0.83997
2175.44154 0.83986
2173.39310 0.83993
2171.34466 0.84004
2169.29622 0.83996
2167.24778 0.83982
2165.19934 0.83982
2163.15091 0.83987
2161.10247 0.83979
2159.05403 0.83962
2157.00559 0.83943
2154.95715 0.83926
2152.90871 0.83918
2150.86028 0.83919
2148.81184 0.83915
2146.76340 0.83902
2144.71496 0.83894
2142.66652 0.83900
2140.61808 0.83910
2138.56965 0.83915
2136.52121 0.83915
2134.47277 0.83910
2132.42433 0.83907
2130.37589 0.83918
2128.32745 0.83931
2126.27902 0.83931
2124.23058 0.83926
2122.18214 0.83921
2120.13370 0.83922
2118.08526 0.83932
2116.03682 0.83943
2113.98839 0.83942
2111.93995 0.83927
2109.89151 0.83919
2107.84307 0.83932
2105.79463 0.83948
2103.74619 0.83944
2101.69776 0.83931
2099.64932 0.83931
2097.60088 0.83939
2095.55244 0.83936
2093.50400 0.83941
2091.45556 0.83968
2089.40713 0.83982
2087.35869 0.83959
2085.31025 0.83925
2083.26181 0.83906
2081.21337 0.83903
2079.16493 0.83900
2077.11649 0.83892
2075.06806 0.83893
2073.01962 0.83896
2070.97118 0.83891
2068.92274 0.83904
2066.87430 0.83958
2064.82586 0.83990
2062.77743 0.83959
2060.72899 0.83925
2058.68055 0.83908
2056.63211 0.83898
2054.58367 0.83897
2052.53523 0.83902
2050.48680 0.83907
2048.43836 0.83909
2046.38992 0.83924
2044.34148 0.83973
2042.29304 0.84033
2040.24460 0.84031
2038.19617 0.83971
2036.14773 0.83921
2034.09929 0.83908
2032.05085 0.83921
2030.00241 0.83938
2027.95397 0.83950
2025.90554 0.83957
2023.85710 0.83952
2021.80866 0.83965
2019.76022 0.84052
2017.71178 0.84144
2015.66334 0.84104
2013.61491 0.83996
2011.56647 0.83948
2009.51803 0.83951
2007.46959 0.83953
2005.42115 0.83937
2003.37271 0.83922
2001.32428 0.83925
1999.27584 0.83939
1997.22740 0.83953
1995.17896 0.84039
1993.13052 0.84213
1991.08208 0.84281
1989.03365 0.84191
1986.98521 0.84073
1984.93677 0.83992
1982.88833 0.83964
1980.83989 0.83958
1978.79145 0.83952
1976.74302 0.83950
1974.69458 0.83958
1972.64614 0.83970
1970.59770 0.84037
1968.54926 0.84198
1966.50082 0.84258
1964.45239 0.84128
1962.40395 0.84028
1960.35551 0.84005
1958.30707 0.83989
1956.25863 0.84002
1954.21019 0.84012
1952.16176 0.83987
1950.11332 0.83979
1948.06488 0.84055
1946.01644 0.84230
1943.96800 0.84425
1941.91956 0.84399
1939.87112 0.84146
1937.82269 0.83978
1935.77425 0.83962
1933.72581 0.83986
1931.67737 0.83987
1929.62893 0.83977
1927.58049 0.84018
1925.53206 0.84217
1923.48362 0.84475
1921.43518 0.84531
1919.38674 0.84496
1917.33830 0.84412
1915.28986 0.84208
1913.24143 0.84132
1911.19299 0.84271
1909.14455 0.84378
1907.09611 0.84277
1905.04767 0.84123
1902.99923 0.84043
1900.95080 0.84008
1898.90236 0.84043
1896.85392 0.84175
1894.80548 0.84253
1892.75704 0.84269
1890.70860 0.84381
1888.66017 0.84390
1886.61173 0.84225
1884.56329 0.84118
1882.51485 0.84068
1880.46641 0.84044
1878.41797 0.84043
1876.36954 0.84042
1874.32110 0.84104
1872.27266 0.84392
1870.22422 0.84966
1868.17578 0.85273
1866.12734 0.84851
1864.07891 0.84371
1862.03047 0.84200
1859.98203 0.84194
1857.93359 0.84170
1855.88515 0.84113
1853.83671 0.84086
1851.78828 0.84134
1849.73984 0.84329
1847.69140 0.84687
1845.64296 0.85076
1843.59452 0.85083
1841.54608 0.84656
1839.49765 0.84386
1837.44921 0.84354
1835.40077 0.84338
1833.35233 0.84449
1831.30389 0.84866
1829.25545 0.85151
1827.20702 0.84998
1825.15858 0.84792
1823.11014 0.84540
1821.06170 0.84297
1819.01326 0.84224
1816.96482 0.84239
1814.91639 0.84305
1812.86795 0.84535
1810.81951 0.84743
1808.77107 0.84648
1806.72263 0.84469
1804.67419 0.84516
1802.62575 0.84824
1800.57732 0.85070
1798.52888 0.85058
1796.48044 0.85096
1794.43200 0.85366
1792.38356 0.85580
1790.33512 0.85167
1788.28669 0.84645
1786.23825 0.84514
1784.18981 0.84626
1782.14137 0.84788
1780.09293 0.84865
1778.04449 0.84827
1775.99606 0.85027
1773.94762 0.85630
1771.89918 0.86042
1769.85074 0.85650
1767.80230 0.85067
1765.75386 0.84746
1763.70543 0.84834
1761.65699 0.85077
1759.60855 0.85105
1757.56011 0.85045
1755.51167 0.84957
1753.46323 0.85116
1751.41480 0.85807
1749.36636 0.86463
1747.31792 0.86332
1745.26948 0.85950
1743.22104 0.85720
1741.17260 0.85618
1739.12417 0.85555
1737.07573 0.85648
1735.02729 0.86140
1732.97885 0.86387
1730.93041 0.85800
1728.88197 0.85096
1726.83354 0.84677
1724.78510 0.84657
1722.73666 0.84829
1720.68822 0.85228
1718.63978 0.86260
1716.59134 0.87175
1714.54291 0.86472
1712.49447 0.85563
1710.44603 0.85233
1708.39759 0.85465
1706.34915 0.86011
1704.30071 0.86327
1702.25228 0.86460
1700.20384 0.86980
1698.15540 0.87411
1696.10696 0.86783
1694.05852 0.85734
1692.01008 0.85367
1689.96165 0.85612
1687.91321 0.86059
1685.86477 0.86658
1683.81633 0.87111
1681.76789 0.86535
1679.71945 0.85845
1677.67102 0.85536
1675.62258 0.85646
1673.57414 0.85903
1671.52570 0.86239
1669.47726 0.86292
1667.42882 0.85643
1665.38038 0.85293
1663.33195 0.85415
1661.28351 0.85314
1659.23507 0.85069
1657.18663 0.85299
1655.13819 0.86137
1653.08975 0.87011
1651.04132 0.86816
1648.99288 0.86961
1646.94444 0.87099
1644.89600 0.86113
1642.84756 0.85301
1640.79912 0.85200
1638.75069 0.85712
1636.70225 0.86430
1634.65381 0.86031
1632.60537 0.85212
1630.55693 0.85009
1628.50849 0.85224
1626.46006 0.85486
1624.41162 0.85718
1622.36318 0.85689
1620.31474 0.85494
1618.26630 0.85673
1616.21786 0.85766
1614.16943 0.85247
1612.12099 0.84920
1610.07255 0.84968
1608.02411 0.85016
1605.97567 0.84900
1603.92723 0.84828
1601.87880 0.84775
1599.83036 0.84672
1597.78192 0.84694
1595.73348 0.84837
1593.68504 0.84871
1591.63660 0.84805
1589.58817 0.84742
1587.53973 0.84673
1585.49129 0.84637
1583.44285 0.84662
1581.39441 0.84782
1579.34597 0.85189
1577.29754 0.85897
1575.24910 0.86014
1573.20066 0.85642
1571.15222 0.85746
1569.10378 0.85966
1567.05534 0.85783
1565.00691 0.85693
1562.95847 0.85895
1560.91003 0.86573
1558.86159 0.87865
1556.81315 0.87709
1554.76471 0.86928
1552.71628 0.86409
1550.66784 0.86177
1548.61940 0.86056
1546.57096 0.86370
1544.52252 0.87511
1542.47408 0.89021
1540.42565 0.89225
1538.37721 0.87588
1536.32877 0.86835
1534.28033 0.86834
1532.23189 0.86630
1530.18345 0.86370
1528.13501 0.86707
1526.08658 0.87396
1524.03814 0.88030
1521.98970 0.88479
1519.94126 0.88221
1517.89282 0.87782
1515.84438 0.87243
1513.79595 0.86730
1511.74751 0.86882
1509.69907 0.87869
1507.65063 0.88932
1505.60219 0.87661
1503.55375 0.86385
1501.50532 0.86106
1499.45688 0.86392
1497.40844 0.86621
1495.36000 0.86178
1493.31156 0.85926
1491.26312 0.86477
1489.21469 0.87077
1487.16625 0.86432
1485.11781 0.85586
1483.06937 0.85278
1481.02093 0.85287
1478.97249 0.85418
1476.92406 0.85895
1474.87562 0.86758
1472.82718 0.87067
1470.77874 0.86177
1468.73030 0.85528
1466.68186 0.85564
1464.63343 0.85732
1462.58499 0.85671
1460.53655 0.86045
1458.48811 0.87193
1456.43967 0.87520
1454.39123 0.86417
1452.34280 0.85698
1450.29436 0.85506
1448.24592 0.85543
1446.19748 0.85370
1444.14904 0.85096
1442.10060 0.85019
1440.05217 0.85224
1438.00373 0.85714
1435.95529 0.86017
1433.90685 0.85809
1431.85841 0.85687
1429.80997 0.85648
1427.76154 0.85508
1425.71310 0.85562
1423.66466 0.85793
1421.61622 0.86018
1419.56778 0.86366
1417.51934 0.86286
1415.47091 0.85718
1413.42247 0.85387
1411.37403 0.85325
1409.32559 0.85306
1407.27715 0.85406
1405.22871 0.85600
1403.18028 0.85639
1401.13184 0.85791
1399.08340 0.86229
1397.03496 0.86551
1394.98652 0.86377
1392.93808 0.85817
1390.88965 0.85499
1388.84121 0.85635
1386.79277 0.85720
1384.74433 0.85406
1382.69589 0.85167
1380.64745 0.85199
1378.59901 0.85364
1376.55058 0.85657
1374.50214 0.85885
1372.45370 0.85683
1370.40526 0.85422
1368.35682 0.85344
1366.30838 0.85386
1364.25995 0.85688
1362.21151 0.85908
1360.16307 0.85610
1358.11463 0.85298
1356.06619 0.85222
1354.01775 0.85184
1351.96932 0.85130
1349.92088 0.85120
1347.87244 0.85095
1345.82400 0.85056
1343.77556 0.85168
1341.72712 0.85605
1339.67869 0.86072
1337.63025 0.85928
1335.58181 0.85442
1333.53337 0.85153
1331.48493 0.85086
1329.43649 0.85095
1327.38806 0.85105
1325.33962 0.85119
1323.29118 0.85181
1321.24274 0.85350
1319.19430 0.85533
1317.14586 0.85557
1315.09743 0.85498
1313.04899 0.85430
1311.00055 0.85321
1308.95211 0.85241
1306.90367 0.85205
1304.85523 0.85172
1302.80680 0.85159
1300.75836 0.85174
1298.70992 0.85212
1296.66148 0.85241
1294.61304 0.85240
1292.56460 0.85248
1290.51617 0.85309
1288.46773 0.85374
1286.41929 0.85360
1284.37085 0.85303
1282.32241 0.85285
1280.27397 0.85309
1278.22554 0.85337
1276.17710 0.85366
1274.12866 0.85428
1272.08022 0.85509
1270.03178 0.85543
1267.98334 0.85526
1265.93491 0.85505
1263.88647 0.85515
1261.83803 0.85567
1259.78959 0.85600
1257.74115 0.85590
1255.69271 0.85589
1253.64428 0.85600
1251.59584 0.85600
1249.54740 0.85604
1247.49896 0.85632
1245.45052 0.85679
1243.40208 0.85711
1241.35364 0.85716
1239.30521 0.85717
1237.25677 0.85727
1235.20833 0.85743
1233.15989 0.85762
1231.11145 0.85784
1229.06301 0.85805
1227.01458 0.85829
1224.96614 0.85856
1222.91770 0.85883
1220.86926 0.85904
1218.82082 0.85914
1216.77238 0.85913
1214.72395 0.85917
1212.67551 0.85926
1210.62707 0.85926
1208.57863 0.85929
1206.53019 0.85944
1204.48175 0.85958
1202.43332 0.85972
1200.38488 0.85994
1198.33644 0.86023
1196.28800 0.86049
1194.23956 0.86057
1192.19112 0.86053
1190.14269 0.86061
1188.09425 0.86080
1186.04581 0.86080
1183.99737 0.86064
1181.94893 0.86063
1179.90049 0.86073
1177.85206 0.86077
1175.80362 0.86087
1173.75518 0.86100
1171.70674 0.86097
1169.65830 0.86094
1167.60986 0.86114
1165.56143 0.86157
1163.51299 0.86188
1161.46455 0.86199
1159.41611 0.86212
1157.36767 0.86236
1155.31923 0.86261
1153.27080 0.86287
1151.22236 0.86311
1149.17392 0.86334
1147.12548 0.86353
1145.07704 0.86373
1143.02860 0.86400
1140.98017 0.86423
1138.93173 0.86436
1136.88329 0.86453
1134.83485 0.86469
1132.78641 0.86471
1130.73797 0.86470
1128.68954 0.86475
1126.64110 0.86486
1124.59266 0.86499
1122.54422 0.86516
1120.49578 0.86536
1118.44734 0.86565
1116.39891 0.86611
1114.35047 0.86661
1112.30203 0.86698
1110.25359 0.86728
1108.20515 0.86760
1106.15671 0.86794
1104.10827 0.86828
1102.05984 0.86849
1100.01140 0.86846
1097.96296 0.86840
1095.91452 0.86856
1093.86608 0.86883
1091.81764 0.86902
1089.76921 0.86906
1087.72077 0.86904
1085.67233 0.86901
1083.62389 0.86897
1081.57545 0.86898
1079.52701 0.86914
1077.47858 0.86931
1075.43014 0.86937
1073.38170 0.86936
1071.33326 0.86936
1069.28482 0.86950
1067.23638 0.86970
1065.18795 0.86977
1063.13951 0.86975
1061.09107 0.86977
1059.04263 0.86992
1056.99419 0.87005
1054.94575 0.87008
1052.89732 0.87021
1050.84888 0.87066
1048.80044 0.87122
1046.75200 0.87151
1044.70356 0.87156
1042.65512 0.87156
1040.60669 0.87160
1038.55825 0.87177
1036.50981 0.87207
1034.46137 0.87236
1032.41293 0.87258
1030.36449 0.87278
1028.31606 0.87312
1026.26762 0.87363
1024.21918 0.87419
1022.17074 0.87467
1020.12230 0.87500
1018.07386 0.87535
1016.02543 0.87570
1013.97699 0.87586
1011.92855 0.87587
1009.88011 0.87603
1007.83167 0.87644
1005.78323 0.87697
1003.73480 0.87740
1001.68636 0.87776
999.63792 0.87833
997.58948 0.87897
995.54104 0.87934
993.49260 0.87954
991.44417 0.87980
989.39573 0.88018
987.34729 0.88056
985.29885 0.88081
983.25041 0.88100
981.20197 0.88117
979.15354 0.88142
977.10510 0.88181
975.05666 0.88214
973.00822 0.88225
970.95978 0.88233
968.91134 0.88262
966.86290 0.88304
964.81447 0.88343
962.76603 0.88369
960.71759 0.88388
958.66915 0.88418
956.62071 0.88458
954.57227 0.88490
952.52384 0.88519
950.47540 0.88544
948.42696 0.88556
946.37852 0.88560
944.33008 0.88569
942.28164 0.88601
940.23321 0.88647
938.18477 0.88685
936.13633 0.88706
934.08789 0.88729
932.03945 0.88778
929.99101 0.88824
927.94258 0.88841
925.89414 0.88849
923.84570 0.88859
921.79726 0.88869
919.74882 0.88896
917.70038 0.88947
915.65195 0.88985
913.60351 0.88989
911.55507 0.88988
909.50663 0.89010
907.45819 0.89052
905.40975 0.89094
903.36132 0.89123
901.31288 0.89144
899.26444 0.89172
897.21600 0.89208
895.16756 0.89249
893.11912 0.89303
891.07069 0.89355
889.02225 0.89391
886.97381 0.89405
884.92537 0.89411
882.87693 0.89448
880.82849 0.89512
878.78006 0.89571
876.73162 0.89611
874.68318 0.89634
872.63474 0.89659
870.58630 0.89704
868.53786 0.89761
866.48943 0.89820
864.44099 0.89884
862.39255 0.89948
860.34411 0.90012
858.29567 0.90072
856.24723 0.90125
854.19880 0.90176
852.15036 0.90231
850.10192 0.90291
848.05348 0.90347
846.00504 0.90392
843.95660 0.90419
841.90817 0.90447
839.85973 0.90494
837.81129 0.90545
835.76285 0.90613
833.71441 0.90712
831.66597 0.90788
829.61753 0.90830
827.56910 0.90885
825.52066 0.90958
823.47222 0.91037
821.42378 0.91107
819.37534 0.91125
817.32690 0.91100
815.27847 0.91097
813.23003 0.91131
811.18159 0.91185
809.13315 0.91248
807.08471 0.91281
805.03627 0.91296
802.98784 0.91358
800.93940 0.91460
798.89096 0.91514
796.84252 0.91493
794.79408 0.91450
792.74564 0.91427
790.69721 0.91452
788.64877 0.91525
786.60033 0.91612
784.55189 0.91692
782.50345 0.91755
780.45501 0.91814
778.40658 0.91882
776.35814 0.91906
774.30970 0.91907
772.26126 0.91958
770.21282 0.92042
768.16438 0.92132
766.11595 0.92235
764.06751 0.92324
762.01907 0.92360
759.97063 0.92377
757.92219 0.92437
755.87375 0.92511
753.82532 0.92567
751.77688 0.92612
749.72844 0.92642
747.68000 0.92692
745.63156 0.92775
743.58312 0.92834
741.53469 0.92846
739.48625 0.92846
737.43781 0.92896
735.38937 0.93034
733.34093 0.93170
731.29249 0.93202
729.24406 0.93193
727.19562 0.93246
725.14718 0.93348
723.09874 0.93460
721.05030 0.93588
719.00186 0.93679
716.95343 0.93714
714.90499 0.93775
712.85655 0.93879
710.80811 0.93992
708.75967 0.94127
706.71123 0.94298
704.66280 0.94452
702.61436 0.94550
700.56592 0.94656
698.51748 0.94804
696.46904 0.94935
694.42060 0.95110
692.37216 0.95362
690.32373 0.95620
688.27529 0.95860
686.22685 0.96057
684.17841 0.96251
682.12997 0.96517
680.08153 0.96734
678.03310 0.96856
675.98466 0.97122
673.93622 0.97531
671.88778 0.97942
669.83934 0.98261
667.79090 0.98230
665.74247 0.98094
663.69403 0.98139
661.64559 0.98150
659.59715 0.97877
657.54871 0.97306
655.50027 0.96694
653.45184 0.95986
651.40340 0.94963
649.35496 0.93825
647.30652 0.92652
645.25808 0.91305
643.20964 0.89931
641.16121 0.88567
639.11277 0.87293
637.06433 0.86394
635.01589 0.85676
632.96745 0.84887
630.91901 0.84105
628.87058 0.83398
626.82214 0.82816
624.77370 0.82254
622.72526 0.81616
620.67682 0.81180
618.62838 0.80923
616.57995 0.80310
614.53151 0.79438
612.48307 0.78881
610.43463 0.78537
608.38619 0.78158
606.33775 0.77761
604.28932 0.77292
602.24088 0.76555
600.19244 0.75546
598.14400 0.74834
