3996.50324 1.61039
3994.45480 1.61031
3992.40636 1.60920
3990.35792 1.60829
3988.30948 1.60810
3986.26104 1.60832
3984.21261 1.60819
3982.16417 1.60843
3980.11573 1.60943
3978.06729 1.60995
3976.01885 1.60998
3973.97041 1.61031
3971.92198 1.61086
3969.87354 1.61124
3967.82510 1.61105
3965.77666 1.61022
3963.72822 1.60947
3961.67978 1.60951
3959.63135 1.61020
3957.58291 1.61082
3955.53447 1.61123
3953.48603 1.61119
3951.43759 1.61009
3949.38915 1.60875
3947.34072 1.60893
3945.29228 1.60941
3943.24384 1.60891
3941.19540 1.60969
3939.14696 1.61117
3937.09852 1.61073
3935.05009 1.60937
3933.00165 1.60892
3930.95321 1.60937
3928.90477 1.60985
3926.85633 1.60977
3924.80789 1.61056
3922.75946 1.61287
3920.71102 1.61343
3918.66258 1.61180
3916.61414 1.61097
3914.56570 1.61107
3912.51726 1.61092
3910.46883 1.61114
3908.42039 1.61129
3906.37195 1.61087
3904.32351 1.61083
3902.27507 1.61111
3900.22663 1.61178
3898.17820 1.61363
3896.12976 1.61476
3894.08132 1.61348
3892.03288 1.61164
3889.98444 1.61262
3887.93600 1.61321
3885.88756 1.61142
3883.83913 1.61127
3881.79069 1.61274
3879.74225 1.61365
3877.69381 1.61397
3875.64537 1.61264
3873.59693 1.61061
3871.54850 1.60876
3869.50006 1.60823
3867.45162 1.61038
3865.40318 1.61081
3863.35474 1.61010
3861.30630 1.61275
3859.25787 1.61517
3857.20943 1.61377
3855.16099 1.60865
3853.11255 1.60472
3851.06411 1.60924
3849.01567 1.61346
3846.96724 1.61462
3844.91880 1.61347
3842.87036 1.61206
3840.82192 1.61277
3838.77348 1.61356
3836.72504 1.61341
3834.67661 1.61410
3832.62817 1.61499
3830.57973 1.61604
3828.53129 1.61722
3826.48285 1.61723
3824.43441 1.61561
3822.38598 1.61239
3820.33754 1.61076
3818.28910 1.61375
3816.24066 1.61757
3814.19222 1.62116
3812.14378 1.62321
3810.09535 1.62272
3808.04691 1.62000
3805.99847 1.61794
3803.95003 1.61725
3801.90159 1.61569
3799.85315 1.61617
3797.80472 1.61841
3795.75628 1.62107
3793.70784 1.62392
3791.65940 1.62562
3789.61096 1.62561
3787.56252 1.62321
3785.51409 1.62016
3783.46565 1.62030
3781.41721 1.62252
3779.36877 1.62415
3777.32033 1.62509
3775.27189 1.62509
3773.22346 1.62465
3771.17502 1.62505
3769.12658 1.62605
3767.07814 1.62599
3765.02970 1.62582
3762.98126 1.62693
3760.93283 1.62727
3758.88439 1.62587
3756.83595 1.62538
3754.78751 1.62522
3752.73907 1.62235
3750.69063 1.61906
3748.64219 1.62115
3746.59376 1.62303
3744.54532 1.62316
3742.49688 1.62505
3740.44844 1.62680
3738.40000 1.62617
3736.35156 1.62396
3734.30313 1.62528
3732.25469 1.62933
3730.20625 1.63108
3728.15781 1.63164
3726.10937 1.63237
3724.06093 1.63343
3722.01250 1.63444
3719.96406 1.63553
3717.91562 1.63627
3715.86718 1.63608
3713.81874 1.63457
3711.77030 1.63123
3709.72187 1.63134
3707.67343 1.63577
3705.62499 1.63930
3703.57655 1.63999
3701.52811 1.63895
3699.47967 1.63897
3697.43124 1.63964
3695.38280 1.63969
3693.33436 1.63853
3691.28592 1.63569
3689.23748 1.63537
3687.18904 1.64083
3685.14061 1.64423
3683.09217 1.64470
3681.04373 1.64491
3678.99529 1.64533
3676.94685 1.64529
3674.89841 1.64658
3672.84998 1.64810
3670.80154 1.64768
3668.75310 1.65008
3666.70466 1.65399
3664.65622 1.65607
3662.60778 1.65760
3660.55935 1.65864
3658.51091 1.65856
3656.46247 1.65961
3654.41403 1.66283
3652.36559 1.66437
3650.31715 1.66358
3648.26872 1.66480
3646.22028 1.66899
3644.17184 1.67274
3642.12340 1.67495
3640.07496 1.67581
3638.02652 1.67723
3635.97809 1.67992
3633.92965 1.68314
3631.88121 1.68561
3629.83277 1.68588
3627.78433 1.68756
3625.73589 1.69179
3623.68746 1.69456
3621.63902 1.69556
3619.59058 1.69677
3617.54214 1.69992
3615.49370 1.70285
3613.44526 1.70521
3611.39682 1.70796
3609.34839 1.71107
3607.29995 1.71408
3605.25151 1.71681
3603.20307 1.71959
3601.15463 1.72263
3599.10619 1.72571
3597.05776 1.72767
3595.00932 1.72909
3592.96088 1.73214
3590.91244 1.73533
3588.86400 1.73616
3586.81556 1.73709
3584.76713 1.74089
3582.71869 1.74426
3580.67025 1.74639
3578.62181 1.74883
3576.57337 1.75224
3574.52493 1.75475
3572.47650 1.75578
3570.42806 1.75717
3568.37962 1.75860
3566.33118 1.75956
3564.28274 1.76175
3562.23430 1.76510
3560.18587 1.76773
3558.13743 1.76844
3556.08899 1.76898
3554.04055 1.77137
3551.99211 1.77466
3549.94367 1.77704
3547.89524 1.77885
3545.84680 1.78127
3543.79836 1.78495
3541.74992 1.78891
3539.70148 1.79139
3537.65304 1.79163
3535.60461 1.79263
3533.55617 1.79589
3531.50773 1.79791
3529.45929 1.79783
3527.41085 1.79724
3525.36241 1.79631
3523.31398 1.79714
3521.26554 1.80062
3519.21710 1.80386
3517.16866 1.80566
3515.12022 1.80655
3513.07178 1.80739
3511.02335 1.80799
3508.97491 1.80925
3506.92647 1.81222
3504.87803 1.81355
3502.82959 1.81252
3500.78115 1.81367
3498.73272 1.81724
3496.68428 1.81991
3494.63584 1.82165
3492.58740 1.82271
3490.53896 1.82297
3488.49052 1.82494
3486.44209 1.82798
3484.39365 1.82869
3482.34521 1.82843
3480.29677 1.82963
3478.24833 1.83109
3476.19989 1.83239
3474.15146 1.83342
3472.10302 1.83376
3470.05458 1.83498
3468.00614 1.83745
3465.95770 1.83907
3463.90926 1.83942
3461.86082 1.84082
3459.81239 1.84274
3457.76395 1.84268
3455.71551 1.84209
3453.66707 1.84305
3451.61863 1.84530
3449.57019 1.84681
3447.52176 1.84610
3445.47332 1.84484
3443.42488 1.84439
3441.37644 1.84443
3439.32800 1.84431
3437.27956 1.84485
3435.23113 1.84736
3433.18269 1.85003
3431.13425 1.85023
3429.08581 1.84950
3427.03737 1.85055
3424.98893 1.85236
3422.94050 1.85419
3420.89206 1.85643
3418.84362 1.85759
3416.79518 1.85704
3414.74674 1.85632
3412.69830 1.85552
3410.64987 1.85422
3408.60143 1.85446
3406.55299 1.85720
3404.50455 1.85963
3402.45611 1.85982
3400.40767 1.86022
3398.35924 1.86058
3396.31080 1.85896
3394.26236 1.85792
3392.21392 1.85923
3390.16548 1.86115
3388.11704 1.86119
3386.06861 1.85984
3384.02017 1.85950
3381.97173 1.86014
3379.92329 1.86058
3377.87485 1.86152
3375.82641 1.86359
3373.77798 1.86579
3371.72954 1.86671
3369.68110 1.86542
3367.63266 1.86291
3365.58422 1.86167
3363.53578 1.86261
3361.48735 1.86387
3359.43891 1.86460
3357.39047 1.86530
3355.34203 1.86579
3353.29359 1.86635
3351.24515 1.86687
3349.19672 1.86711
3347.14828 1.86745
3345.09984 1.86812
3343.05140 1.86823
3341.00296 1.86700
3338.95452 1.86540
3336.90609 1.86429
3334.85765 1.86456
3332.80921 1.86678
3330.76077 1.86909
3328.71233 1.86964
3326.66389 1.86912
3324.61545 1.86879
3322.56702 1.86874
3320.51858 1.86969
3318.47014 1.87137
3316.42170 1.87118
3314.37326 1.86939
3312.32482 1.86836
3310.27639 1.86870
3308.22795 1.86938
3306.17951 1.86952
3304.13107 1.87076
3302.08263 1.87297
3300.03419 1.87381
3297.98576 1.87346
3295.93732 1.87294
3293.88888 1.87314
3291.84044 1.87379
3289.79200 1.87291
3287.74356 1.87149
3285.69513 1.87154
3283.64669 1.87178
3281.59825 1.87149
3279.54981 1.87182
3277.50137 1.87297
3275.45293 1.87358
3273.40450 1.87343
3271.35606 1.87384
3269.30762 1.87526
3267.25918 1.87665
3265.21074 1.87609
3263.16230 1.87459
3261.11387 1.87456
3259.06543 1.87489
3257.01699 1.87454
3254.96855 1.87553
3252.92011 1.87771
3250.87167 1.87792
3248.82324 1.87701
3246.77480 1.87676
3244.72636 1.87574
3242.67792 1.87497
3240.62948 1.87605
3238.58104 1.87769
3236.53261 1.87963
3234.48417 1.88171
3232.43573 1.88177
3230.38729 1.88006
3228.33885 1.87955
3226.29041 1.87970
3224.24198 1.87860
3222.19354 1.87807
3220.14510 1.87854
3218.09666 1.87746
3216.04822 1.87564
3213.99978 1.87526
3211.95135 1.87571
3209.90291 1.87600
3207.85447 1.87520
3205.80603 1.87376
3203.75759 1.87442
3201.70915 1.87594
3199.66072 1.87561
3197.61228 1.87545
3195.56384 1.87664
3193.51540 1.87791
3191.46696 1.87916
3189.41852 1.87907
3187.37008 1.87615
3185.32165 1.87294
3183.27321 1.87273
3181.22477 1.87389
3179.17633 1.87342
3177.12789 1.87301
3175.07945 1.87432
3173.03102 1.87459
3170.98258 1.87303
3168.93414 1.87157
3166.88570 1.87089
3164.83726 1.87101
3162.78882 1.87117
3160.74039 1.87080
3158.69195 1.87069
3156.64351 1.87085
3154.59507 1.87026
3152.54663 1.86918
3150.49819 1.86827
3148.44976 1.86722
3146.40132 1.86678
3144.35288 1.86722
3142.30444 1.86685
3140.25600 1.86529
3138.20756 1.86412
3136.15913 1.86359
3134.11069 1.86263
3132.06225 1.86191
3130.01381 1.86192
3127.96537 1.86167
3125.91693 1.86181
3123.86850 1.86173
3121.82006 1.85930
3119.77162 1.85625
3117.72318 1.85462
3115.67474 1.85401
3113.62630 1.85403
3111.57787 1.85421
3109.52943 1.85499
3107.48099 1.85637
3105.43255 1.85651
3103.38411 1.85463
3101.33567 1.85159
3099.28724 1.84903
3097.23880 1.84901
3095.19036 1.85021
3093.14192 1.84944
3091.09348 1.84821
3089.04504 1.84865
3086.99661 1.84814
3084.94817 1.84551
3082.89973 1.84266
3080.85129 1.84108
3078.80285 1.84190
3076.75441 1.84359
3074.70598 1.84378
3072.65754 1.84255
3070.60910 1.84029
3068.56066 1.83674
3066.51222 1.83364
3064.46378 1.83312
3062.41535 1.83382
3060.36691 1.83443
3058.31847 1.83432
3056.27003 1.83237
3054.22159 1.83018
3052.17315 1.82961
3050.12471 1.82949
3048.07628 1.82821
3046.02784 1.82760
3043.97940 1.82863
3041.93096 1.82830
3039.88252 1.82642
3037.83408 1.82505
3035.78565 1.82359
3033.73721 1.82184
3031.68877 1.82079
3029.64033 1.82014
3027.59189 1.81982
3025.54345 1.81991
3023.49502 1.81917
3021.44658 1.81689
3019.39814 1.81401
3017.34970 1.81176
3015.30126 1.81133
3013.25282 1.81271
3011.20439 1.81303
3009.15595 1.81083
3007.10751 1.80872
3005.05907 1.80843
3003.01063 1.80919
3000.96219 1.80986
2998.91376 1.80889
2996.86532 1.80688
2994.81688 1.80610
2992.76844 1.80637
2990.72000 1.80587
2988.67156 1.80405
2986.62313 1.80221
2984.57469 1.80095
2982.52625 1.79984
2980.47781 1.79875
2978.42937 1.79758
2976.38093 1.79674
2974.33250 1.79612
2972.28406 1.79544
2970.23562 1.79533
2968.18718 1.79582
2966.13874 1.79545
2964.09030 1.79402
2962.04187 1.79381
2959.99343 1.79452
2957.94499 1.79396
2955.89655 1.79250
2953.84811 1.79119
2951.79967 1.78997
2949.75124 1.78860
2947.70280 1.78756
2945.65436 1.78665
2943.60592 1.78492
2941.55748 1.78328
2939.50904 1.78334
2937.46061 1.78467
2935.41217 1.78482
2933.36373 1.78251
2931.31529 1.78006
2929.26685 1.77942
2927.21841 1.77905
2925.16998 1.77827
2923.12154 1.77738
2921.07310 1.77605
2919.02466 1.77538
2916.97622 1.77602
2914.92778 1.77586
2912.87934 1.77352
2910.83091 1.77089
2908.78247 1.76918
2906.73403 1.76796
2904.68559 1.76733
2902.63715 1.76731
2900.58871 1.76730
2898.54028 1.76639
2896.49184 1.76479
2894.44340 1.76347
2892.39496 1.76245
2890.34652 1.76114
2888.29808 1.75944
2886.24965 1.75841
2884.20121 1.75852
2882.15277 1.75902
2880.10433 1.75899
2878.05589 1.75806
2876.00745 1.75695
2873.95902 1.75658
2871.91058 1.75634
2869.86214 1.75539
2867.81370 1.75404
2865.76526 1.75283
2863.71682 1.75204
2861.66839 1.75111
2859.61995 1.74944
2857.57151 1.74807
2855.52307 1.74776
2853.47463 1.74758
2851.42619 1.74648
2849.37776 1.74501
2847.32932 1.74457
2845.28088 1.74460
2843.23244 1.74402
2841.18400 1.74327
2839.13556 1.74244
2837.08713 1.74122
2835.03869 1.73977
2832.99025 1.73867
2830.94181 1.73774
2828.89337 1.73634
2826.84493 1.73520
2824.79650 1.73482
2822.74806 1.73429
2820.69962 1.73328
2818.65118 1.73252
2816.60274 1.73205
2814.55430 1.73065
2812.50587 1.72873
2810.45743 1.72806
2808.40899 1.72806
2806.36055 1.72743
2804.31211 1.72635
2802.26367 1.72534
2800.21524 1.72381
2798.16680 1.72169
2796.11836 1.72119
2794.06992 1.72318
2792.02148 1.72484
2789.97304 1.72369
2787.92461 1.72120
2785.87617 1.71985
2783.82773 1.71940
2781.77929 1.71859
2779.73085 1.71766
2777.68241 1.71681
2775.63397 1.71548
2773.58554 1.71418
2771.53710 1.71350
2769.48866 1.71307
2767.44022 1.71276
2765.39178 1.71213
2763.34334 1.71082
2761.29491 1.70955
2759.24647 1.70848
2757.19803 1.70736
2755.14959 1.70694
2753.10115 1.70682
2751.05271 1.70585
2749.00428 1.70476
2746.95584 1.70412
2744.90740 1.70368
2742.85896 1.70286
2740.81052 1.70148
2738.76208 1.70037
2736.71365 1.69969
2734.66521 1.69867
2732.61677 1.69751
2730.56833 1.69743
2728.51989 1.69791
2726.47145 1.69754
2724.42302 1.69644
2722.37458 1.69540
2720.32614 1.69470
2718.27770 1.69419
2716.22926 1.69347
2714.18082 1.69241
2712.13239 1.69156
2710.08395 1.69072
2708.03551 1.68949
2705.98707 1.68873
2703.93863 1.68867
2701.89019 1.68843
2699.84176 1.68739
2697.79332 1.68605
2695.74488 1.68520
2693.69644 1.68465
2691.64800 1.68381
2689.59956 1.68321
2687.55113 1.68295
2685.50269 1.68204
2683.45425 1.68075
2681.40581 1.67949
2679.35737 1.67851
2677.30893 1.67874
2675.26050 1.67928
2673.21206 1.67849
2671.16362 1.67672
2669.11518 1.67511
2667.06674 1.67398
2665.01830 1.67285
2662.96987 1.67147
2660.92143 1.67051
2658.87299 1.67059
2656.82455 1.67098
2654.77611 1.67065
2652.72767 1.66965
2650.67924 1.66869
2648.63080 1.66775
2646.58236 1.66627
2644.53392 1.66502
2642.48548 1.66446
2640.43704 1.66374
2638.38860 1.66295
2636.34017 1.66233
2634.29173 1.66158
2632.24329 1.66114
2630.19485 1.66083
2628.14641 1.65978
2626.09797 1.65858
2624.04954 1.65780
2622.00110 1.65690
2619.95266 1.65611
2617.90422 1.65561
2615.85578 1.65503
2613.80734 1.65422
2611.75891 1.65298
2609.71047 1.65191
2607.66203 1.65173
2605.61359 1.65170
2603.56515 1.65070
2601.51671 1.64937
2599.46828 1.64867
2597.41984 1.64845
2595.37140 1.64853
2593.32296 1.64822
2591.27452 1.64691
2589.22608 1.64568
2587.17765 1.64533
2585.12921 1.64504
2583.08077 1.64409
2581.03233 1.64310
2578.98389 1.64287
2576.93545 1.64270
2574.88702 1.64180
2572.83858 1.64064
2570.79014 1.63968
2568.74170 1.63919
2566.69326 1.63950
2564.64482 1.63981
2562.59639 1.63873
2560.54795 1.63658
2558.49951 1.63495
2556.45107 1.63467
2554.40263 1.63535
2552.35419 1.63582
2550.30576 1.63521
2548.25732 1.63389
2546.20888 1.63262
2544.16044 1.63197
2542.11200 1.63173
2540.06356 1.63135
2538.01513 1.63128
2535.96669 1.63148
2533.91825 1.63144
2531.86981 1.63147
2529.82137 1.63168
2527.77293 1.63118
2525.72450 1.63029
2523.67606 1.63026
2521.62762 1.63046
2519.57918 1.62954
2517.53074 1.62815
2515.48230 1.62757
2513.43387 1.62735
2511.38543 1.62702
2509.33699 1.62713
2507.28855 1.62737
2505.24011 1.62670
2503.19167 1.62531
2501.14324 1.62463
2499.09480 1.62499
2497.04636 1.62526
2494.99792 1.62491
2492.94948 1.62437
2490.90104 1.62405
2488.85260 1.62354
2486.80417 1.62278
2484.75573 1.62245
2482.70729 1.62270
2480.65885 1.62310
2478.61041 1.62298
2476.56197 1.62203
2474.51354 1.62131
2472.46510 1.62167
2470.41666 1.62240
2468.36822 1.62229
2466.31978 1.62114
2464.27134 1.61997
2462.22291 1.61986
2460.17447 1.62058
2458.12603 1.62092
2456.07759 1.62066
2454.02915 1.62045
2451.98071 1.62012
2449.93228 1.61969
2447.88384 1.61953
2445.83540 1.61945
2443.78696 1.61945
2441.73852 1.61949
2439.69008 1.61979
2437.64165 1.62052
2435.59321 1.62111
2433.54477 1.62110
2431.49633 1.62037
2429.44789 1.61955
2427.39945 1.61943
2425.35102 1.61984
2423.30258 1.62030
2421.25414 1.62059
2419.20570 1.62085
2417.15726 1.62094
2415.10882 1.62015
2413.06039 1.61910
2411.01195 1.61902
2408.96351 1.61953
2406.91507 1.61976
2404.86663 1.61992
2402.81819 1.62051
2400.76976 1.62104
2398.72132 1.62062
2396.67288 1.61968
2394.62444 1.61954
2392.57600 1.62028
2390.52756 1.62072
2388.47913 1.62051
2386.43069 1.62019
2384.38225 1.62014
2382.33381 1.62008
2380.28537 1.61974
2378.23693 1.61942
2376.18850 1.61905
2374.14006 1.61770
2372.09162 1.61557
2370.04318 1.61419
2367.99474 1.61320
2365.94630 1.61276
2363.89787 1.61439
2361.84943 1.61665
2359.80099 1.61874
2357.75255 1.62045
2355.70411 1.62015
2353.65567 1.61904
2351.60723 1.61881
2349.55880 1.61902
2347.51036 1.61899
2345.46192 1.61962
2343.41348 1.62113
2341.36504 1.62220
2339.31660 1.62438
2337.26817 1.62499
2335.21973 1.62174
2333.17129 1.61941
2331.12285 1.62048
2329.07441 1.62324
2327.02597 1.62484
2324.97754 1.62439
2322.92910 1.62421
2320.88066 1.62533
2318.83222 1.62590
2316.78378 1.62501
2314.73534 1.62400
2312.68691 1.62462
2310.63847 1.62676
2308.59003 1.62845
2306.54159 1.62851
2304.49315 1.62809
2302.44471 1.62860
2300.39628 1.62946
2298.34784 1.62948
2296.29940 1.62883
2294.25096 1.62860
2292.20252 1.62905
2290.15408 1.62978
2288.10565 1.63070
2286.05721 1.63117
2284.00877 1.63090
2281.96033 1.63065
2279.91189 1.63075
2277.86345 1.63075
2275.81502 1.63013
2273.76658 1.62995
2271.71814 1.63097
2269.66970 1.63194
2267.62126 1.63220
2265.57282 1.63229
2263.52439 1.63255
2261.47595 1.63290
2259.42751 1.63319
2257.37907 1.63343
2255.33063 1.63346
2253.28219 1.63354
2251.23376 1.63408
2249.18532 1.63465
2247.13688 1.63469
2245.08844 1.63464
2243.04000 1.63493
2240.99156 1.63535
2238.94313 1.63565
2236.89469 1.63585
2234.84625 1.63624
2232.79781 1.63675
2230.74937 1.63702
2228.70093 1.63713
2226.65250 1.63700
2224.60406 1.63647
2222.55562 1.63633
2220.50718 1.63693
2218.45874 1.63748
2216.41030 1.63764
2214.36186 1.63780
2212.31343 1.63759
2210.26499 1.63675
2208.21655 1.63620
2206.16811 1.63659
2204.11967 1.63742
2202.07123 1.63757
2200.02280 1.63740
2197.97436 1.63825
2195.92592 1.63946
2193.87748 1.63953
2191.82904 1.63854
2189.78060 1.63811
2187.73217 1.63892
2185.68373 1.63936
2183.63529 1.63832
2181.58685 1.63748
2179.53841 1.63826
2177.48997 1.63967
2175.44154 1.64063
2173.39310 1.64051
2171.34466 1.63945
2169.29622 1.63881
2167.24778 1.63920
2165.19934 1.64006
2163.15091 1.64046
2161.10247 1.64030
2159.05403 1.64042
2157.00559 1.64078
2154.95715 1.64124
2152.90871 1.64136
2150.86028 1.64098
2148.81184 1.64102
2146.76340 1.64112
2144.71496 1.64081
2142.66652 1.64090
2140.61808 1.64138
2138.56965 1.64147
2136.52121 1.64146
2134.47277 1.64206
2132.42433 1.64284
2130.37589 1.64289
2128.32745 1.64256
2126.27902 1.64295
2124.23058 1.64374
2122.18214 1.64407
2120.13370 1.64433
2118.08526 1.64493
2116.03682 1.64524
2113.98839 1.64506
2111.93995 1.64494
2109.89151 1.64528
2107.84307 1.64597
2105.79463 1.64653
2103.74619 1.64645
2101.69776 1.64597
2099.64932 1.64546
2097.60088 1.64555
2095.55244 1.64649
2093.50400 1.64701
2091.45556 1.64673
2089.40713 1.64652
2087.35869 1.64664
2085.31025 1.64714
2083.26181 1.64773
2081.21337 1.64815
2079.16493 1.64875
2077.11649 1.64954
2075.06806 1.65010
2073.01962 1.65036
2070.97118 1.65075
2068.92274 1.65102
2066.87430 1.65119
2064.82586 1.65186
2062.77743 1.65265
2060.72899 1.65297
2058.68055 1.65324
2056.63211 1.65380
2054.58367 1.65410
2052.53523 1.65390
2050.48680 1.65350
2048.43836 1.65335
2046.38992 1.65373
2044.34148 1.65395
2042.29304 1.65364
2040.24460 1.65363
2038.19617 1.65382
2036.14773 1.65355
2034.09929 1.65342
2032.05085 1.65380
2030.00241 1.65414
2027.95397 1.65417
2025.90554 1.65439
2023.85710 1.65509
2021.80866 1.65545
2019.76022 1.65524
2017.71178 1.65504
2015.66334 1.65531
2013.61491 1.65582
2011.56647 1.65630
2009.51803 1.65658
2007.46959 1.65652
2005.42115 1.65649
2003.37271 1.65662
2001.32428 1.65675
1999.27584 1.65705
1997.22740 1.65738
1995.17896 1.65725
1993.13052 1.65668
1991.08208 1.65581
1989.03365 1.65532
1986.98521 1.65560
1984.93677 1.65593
1982.88833 1.65593
1980.83989 1.65583
1978.79145 1.65577
1976.74302 1.65534
1974.69458 1.65460
1972.64614 1.65455
1970.59770 1.65476
1968.54926 1.65405
1966.50082 1.65338
1964.45239 1.65378
1962.40395 1.65406
1960.35551 1.65368
1958.30707 1.65334
1956.25863 1.65301
1954.21019 1.65227
1952.16176 1.65165
1950.11332 1.65157
1948.06488 1.65152
1946.01644 1.65080
1943.96800 1.64953
1941.91956 1.64895
1939.87112 1.64895
1937.82269 1.64869
1935.77425 1.64830
1933.72581 1.64787
1931.67737 1.64761
1929.62893 1.64725
1927.58049 1.64639
1925.53206 1.64541
1923.48362 1.64430
1921.43518 1.64309
1919.38674 1.64202
1917.33830 1.64193
1915.28986 1.64268
1913.24143 1.64258
1911.19299 1.64172
1909.14455 1.64122
1907.09611 1.64118
1905.04767 1.64083
1902.99923 1.64003
1900.95080 1.63926
1898.90236 1.63886
1896.85392 1.63868
1894.80548 1.63817
1892.75704 1.63751
1890.70860 1.63736
1888.66017 1.63761
1886.61173 1.63699
1884.56329 1.63559
1882.51485 1.63489
1880.46641 1.63484
1878.41797 1.63431
1876.36954 1.63348
1874.32110 1.63293
1872.27266 1.63194
1870.22422 1.63026
1868.17578 1.62981
1866.12734 1.63060
1864.07891 1.63038
1862.03047 1.62969
1859.98203 1.62918
1857.93359 1.62835
1855.88515 1.62746
1853.83671 1.62705
1851.78828 1.62670
1849.73984 1.62561
1847.69140 1.62401
1845.64296 1.62251
1843.59452 1.62231
1841.54608 1.62359
1839.49765 1.62396
1837.44921 1.62317
1835.40077 1.62237
1833.35233 1.62153
1831.30389 1.62043
1829.25545 1.61966
1827.20702 1.61912
1825.15858 1.61865
1823.11014 1.61884
1821.06170 1.61898
1819.01326 1.61870
1816.96482 1.61858
1814.91639 1.61841
1812.86795 1.61756
1810.81951 1.61673
1808.77107 1.61676
1806.72263 1.61644
1804.67419 1.61516
1802.62575 1.61330
1800.57732 1.61183
1798.52888 1.61156
1796.48044 1.61182
1794.43200 1.61169
1792.38356 1.61082
1790.33512 1.61055
1788.28669 1.61091
1786.23825 1.61077
1784.18981 1.61046
1782.14137 1.61003
1780.09293 1.60924
1778.04449 1.60862
1775.99606 1.60781
1773.94762 1.60600
1771.89918 1.60422
1769.85074 1.60401
1767.80230 1.60410
1765.75386 1.60424
1763.70543 1.60397
1761.65699 1.60305
1759.60855 1.60244
1757.56011 1.60236
1755.51167 1.60259
1753.46323 1.60206
1751.41480 1.60057
1749.36636 1.59975
1747.31792 1.59988
1745.26948 1.59953
1743.22104 1.59853
1741.17260 1.59732
1739.12417 1.59636
1737.07573 1.59491
1735.02729 1.59198
1732.97885 1.59115
1730.93041 1.59319
1728.88197 1.59430
1726.83354 1.59444
1724.78510 1.59403
1722.73666 1.59368
1720.68822 1.59261
1718.63978 1.59000
1716.59134 1.58931
1714.54291 1.59164
1712.49447 1.59284
1710.44603 1.59263
1708.39759 1.59168
1706.34915 1.59100
1704.30071 1.59088
1702.25228 1.58927
1700.20384 1.58725
1698.15540 1.58865
1696.10696 1.59061
1694.05852 1.59272
1692.01008 1.59416
1689.96165 1.59432
1687.91321 1.59423
1685.86477 1.59347
1683.81633 1.59436
1681.76789 1.59837
1679.71945 1.60088
1677.67102 1.60164
1675.62258 1.60154
1673.57414 1.60245
1671.52570 1.60357
1669.47726 1.60546
1667.42882 1.60911
1665.38038 1.61060
1663.33195 1.61014
1661.28351 1.61098
1659.23507 1.61251
1657.18663 1.61183
1655.13819 1.60731
1653.08975 1.60400
1651.04132 1.60940
1648.99288 1.61122
1646.94444 1.61104
1644.89600 1.61352
1642.84756 1.61491
1640.79912 1.61427
1638.75069 1.61202
1636.70225 1.60853
1634.65381 1.60896
1632.60537 1.61142
1630.55693 1.61129
1628.50849 1.60946
1626.46006 1.60752
1624.41162 1.60550
1622.36318 1.60408
1620.31474 1.60358
1618.26630 1.60180
1616.21786 1.59993
1614.16943 1.60058
1612.12099 1.60066
1610.07255 1.59943
1608.02411 1.59846
1605.97567 1.59786
1603.92723 1.59715
1601.87880 1.59720
1599.83036 1.59771
1597.78192 1.59727
1595.73348 1.59599
1593.68504 1.59524
1591.63660 1.59526
1589.58817 1.59512
1587.53973 1.59487
1585.49129 1.59486
1583.44285 1.59450
1581.39441 1.59350
1579.34597 1.59122
1577.29754 1.58706
1575.24910 1.58507
1573.20066 1.58577
1571.15222 1.58423
1569.10378 1.58219
1567.05534 1.58198
1565.00691 1.58097
1562.95847 1.57885
1560.91003 1.57449
1558.86159 1.56757
1556.81315 1.56860
1554.76471 1.57022
1552.71628 1.56910
1550.66784 1.56719
1548.61940 1.56588
1546.57096 1.56376
1544.52252 1.55919
1542.47408 1.55344
1540.42565 1.55031
1538.37721 1.55350
1536.32877 1.55510
1534.28033 1.55374
1532.23189 1.55245
1530.18345 1.55153
1528.13501 1.54920
1526.08658 1.54599
1524.03814 1.54206
1521.98970 1.53760
1519.94126 1.53655
1517.89282 1.53673
1515.84438 1.53598
1513.79595 1.53489
1511.74751 1.53254
1509.69907 1.52808
1507.65063 1.52201
1505.60219 1.52378
1503.55375 1.52765
1501.50532 1.52739
1499.45688 1.52468
1497.40844 1.52197
1495.36000 1.52114
1493.31156 1.52027
1491.26312 1.51730
1489.21469 1.51410
1487.16625 1.51441
1485.11781 1.51515
1483.06937 1.51424
1481.02093 1.51294
1478.97249 1.51155
1476.92406 1.50846
1474.87562 1.50392
1472.82718 1.50106
1470.77874 1.50182
1468.73030 1.50216
1466.68186 1.50060
1464.63343 1.49918
1462.58499 1.49871
1460.53655 1.49638
1458.48811 1.49134
1456.43967 1.48899
1454.39123 1.49056
1452.34280 1.49063
1450.29436 1.48925
1448.24592 1.48718
1446.19748 1.48562
1444.14904 1.48468
1442.10060 1.48337
1440.05217 1.48113
1438.00373 1.47789
1435.95529 1.47563
1433.90685 1.47576
1431.85841 1.47546
1429.80997 1.47406
1427.76154 1.47299
1425.71310 1.47233
1423.66466 1.47158
1421.61622 1.47009
1419.56778 1.46729
1417.51934 1.46619
1415.47091 1.46722
1413.42247 1.46737
1411.37403 1.46656
1409.32559 1.46541
1407.27715 1.46383
1405.22871 1.46208
1403.18028 1.46082
1401.13184 1.45909
1399.08340 1.45654
1397.03496 1.45443
1394.98652 1.45327
1392.93808 1.45300
1390.88965 1.45256
1388.84121 1.45126
1386.79277 1.45015
1384.74433 1.44982
1382.69589 1.44914
1380.64745 1.44803
1378.59901 1.44675
1376.55058 1.44538
1374.50214 1.44450
1372.45370 1.44421
1370.40526 1.44343
1368.35682 1.44245
1366.30838 1.44199
1364.25995 1.44105
1362.21151 1.43955
1360.16307 1.43876
1358.11463 1.43822
1356.06619 1.43722
1354.01775 1.43627
1351.96932 1.43554
1349.92088 1.43462
1347.87244 1.43329
1345.82400 1.43127
1343.77556 1.42868
1341.72712 1.42582
1339.67869 1.42347
1337.63025 1.42224
1335.58181 1.42101
1333.53337 1.41900
1331.48493 1.41684
1329.43649 1.41519
1327.38806 1.41392
1325.33962 1.41242
1323.29118 1.41036
1321.24274 1.40789
1319.19430 1.40579
1317.14586 1.40445
1315.09743 1.40294
1313.04899 1.40082
1311.00055 1.39853
1308.95211 1.39628
1306.90367 1.39429
1304.85523 1.39269
1302.80680 1.39114
1300.75836 1.38950
1298.70992 1.38781
1296.66148 1.38610
1294.61304 1.38446
1292.56460 1.38276
1290.51617 1.38106
1288.46773 1.37933
1286.41929 1.37747
1284.37085 1.37589
1282.32241 1.37489
1280.27397 1.37408
1278.22554 1.37316
1276.17710 1.37219
1274.12866 1.37109
1272.08022 1.37000
1270.03178 1.36948
1267.98334 1.36953
1265.93491 1.36939
1263.88647 1.36884
1261.83803 1.36820
1259.78959 1.36746
1257.74115 1.36624
1255.69271 1.36465
1253.64428 1.36306
1251.59584 1.36134
1249.54740 1.35969
1247.49896 1.35862
1245.45052 1.35791
1243.40208 1.35708
1241.35364 1.35593
1239.30521 1.35459
1237.25677 1.35366
1235.20833 1.35310
1233.15989 1.35258
1231.11145 1.35219
1229.06301 1.35161
1227.01458 1.35083
1224.96614 1.35048
1222.91770 1.35021
1220.86926 1.34949
1218.82082 1.34872
1216.77238 1.34823
1214.72395 1.34809
1212.67551 1.34808
1210.62707 1.34762
1208.57863 1.34705
1206.53019 1.34722
1204.48175 1.34773
1202.43332 1.34783
1200.38488 1.34780
1198.33644 1.34792
1196.28800 1.34825
1194.23956 1.34877
1192.19112 1.34940
1190.14269 1.35014
1188.09425 1.35095
1186.04581 1.35152
1183.99737 1.35180
1181.94893 1.35228
1179.90049 1.35316
1177.85206 1.35432
1175.80362 1.35569
1173.75518 1.35717
1171.70674 1.35842
1169.65830 1.35970
1167.60986 1.36168
1165.56143 1.36399
1163.51299 1.36601
1161.46455 1.36788
1159.41611 1.36972
1157.36767 1.37164
1155.31923 1.37378
1153.27080 1.37600
1151.22236 1.37821
1149.17392 1.38050
1147.12548 1.38266
1145.07704 1.38474
1143.02860 1.38706
1140.98017 1.38942
1138.93173 1.39164
1136.88329 1.39395
1134.83485 1.39623
1132.78641 1.39861
1130.73797 1.40116
1128.68954 1.40374
1126.64110 1.40654
1124.59266 1.40950
1122.54422 1.41238
1120.49578 1.41502
1118.44734 1.41732
1116.39891 1.41943
1114.35047 1.42186
1112.30203 1.42492
1110.25359 1.42826
1108.20515 1.43113
1106.15671 1.43313
1104.10827 1.43473
1102.05984 1.43667
1100.01140 1.43908
1097.96296 1.44157
1095.91452 1.44417
1093.86608 1.44684
1091.81764 1.44932
1089.76921 1.45187
1087.72077 1.45455
1085.67233 1.45692
1083.62389 1.45926
1081.57545 1.46224
1079.52701 1.46557
1077.47858 1.46863
1075.43014 1.47172
1073.38170 1.47493
1071.33326 1.47741
1069.28482 1.47945
1067.23638 1.48259
1065.18795 1.48698
1063.13951 1.49135
1061.09107 1.49484
1059.04263 1.49796
1056.99419 1.50160
1054.94575 1.50592
1052.89732 1.51077
1050.84888 1.51560
1048.80044 1.51984
1046.75200 1.52374
1044.70356 1.52782
1042.65512 1.53229
1040.60669 1.53709
1038.55825 1.54212
1036.50981 1.54750
1034.46137 1.55294
1032.41293 1.55805
1030.36449 1.56321
1028.31606 1.56832
1026.26762 1.57304
1024.21918 1.57767
1022.17074 1.58224
1020.12230 1.58705
1018.07386 1.59230
1016.02543 1.59730
1013.97699 1.60175
1011.92855 1.60613
1009.88011 1.61073
1007.83167 1.61533
1005.78323 1.61973
1003.73480 1.62388
1001.68636 1.62755
999.63792 1.63039
997.58948 1.63305
995.54104 1.63656
993.49260 1.64082
991.44417 1.64491
989.39573 1.64811
987.34729 1.65033
985.29885 1.65237
983.25041 1.65506
981.20197 1.65784
979.15354 1.66011
977.10510 1.66204
975.05666 1.66415
973.00822 1.66678
970.95978 1.66950
968.91134 1.67164
966.86290 1.67354
964.81447 1.67619
962.76603 1.67930
960.71759 1.68230
958.66915 1.68568
956.62071 1.68973
954.57227 1.69347
952.52384 1.69631
950.47540 1.69890
948.42696 1.70166
946.37852 1.70507
944.33008 1.70872
942.28164 1.71153
940.23321 1.71417
938.18477 1.71717
936.13633 1.71946
934.08789 1.72133
932.03945 1.72405
929.99101 1.72739
927.94258 1.72981
925.89414 1.73111
923.84570 1.73255
921.79726 1.73385
919.74882 1.73409
917.70038 1.73333
915.65195 1.73177
913.60351 1.72993
911.55507 1.72837
909.50663 1.72651
907.45819 1.72477
905.40975 1.72494
903.36132 1.72556
901.31288 1.72443
899.26444 1.72256
897.21600 1.72019
895.16756 1.71668
893.11912 1.71414
891.07069 1.71339
889.02225 1.71225
886.97381 1.70939
884.92537 1.70577
882.87693 1.70354
880.82849 1.70306
878.78006 1.70268
876.73162 1.70186
874.68318 1.70065
872.63474 1.69935
870.58630 1.69917
868.53786 1.69944
866.48943 1.69868
864.44099 1.69807
862.39255 1.69838
860.34411 1.69866
858.29567 1.69919
856.24723 1.69970
854.19880 1.69899
852.15036 1.69868
850.10192 1.70020
848.05348 1.70231
846.00504 1.70457
843.95660 1.70638
841.90817 1.70579
839.85973 1.70441
837.81129 1.70551
835.76285 1.70846
833.71441 1.71141
831.66597 1.71290
829.61753 1.71253
827.56910 1.71299
825.52066 1.71503
823.47222 1.71574
821.42378 1.71553
819.37534 1.71719
817.32690 1.72046
815.27847 1.72313
813.23003 1.72237
811.18159 1.71896
809.13315 1.71708
807.08471 1.71640
805.03627 1.71485
802.98784 1.71491
800.93940 1.71633
798.89096 1.71491
796.84252 1.71207
794.79408 1.71048
792.74564 1.70932
790.69721 1.70856
788.64877 1.70747
786.60033 1.70379
784.55189 1.69877
782.50345 1.69538
780.45501 1.69496
778.40658 1.69744
776.35814 1.69866
774.30970 1.69528
772.26126 1.68996
770.21282 1.68647
768.16438 1.68568
766.11595 1.68487
764.06751 1.68406
762.01907 1.68630
759.97063 1.68914
757.92219 1.68960
755.87375 1.68996
753.82532 1.69142
751.77688 1.69178
749.72844 1.69073
747.68000 1.69138
745.63156 1.69420
743.58312 1.69670
741.53469 1.69797
739.48625 1.69798
737.43781 1.69775
735.38937 1.69942
733.34093 1.70229
731.29249 1.70489
729.24406 1.70777
727.19562 1.71052
725.14718 1.71338
723.09874 1.71703
721.05030 1.72127
719.00186 1.72511
716.95343 1.72686
714.90499 1.72639
712.85655 1.72513
710.80811 1.72514
708.75967 1.72784
706.71123 1.73212
704.66280 1.73268
702.61436 1.72752
700.56592 1.72054
698.51748 1.71527
696.46904 1.71511
694.42060 1.71994
692.37216 1.72547
690.32373 1.72489
688.27529 1.71662
686.22685 1.70897
684.17841 1.70302
682.12997 1.69514
680.08153 1.68921
678.03310 1.68858
675.98466 1.68998
673.93622 1.68826
671.88778 1.68324
669.83934 1.67878
667.79090 1.68336
665.74247 1.69154
663.69403 1.69090
661.64559 1.68589
659.59715 1.68264
657.54871 1.67824
655.50027 1.66917
653.45184 1.66229
651.40340 1.66453
649.35496 1.67083
647.30652 1.66778
645.25808 1.65414
643.20964 1.63766
641.16121 1.62004
639.11277 1.60794
637.06433 1.60867
635.01589 1.61128
632.96745 1.60224
630.91901 1.58777
628.87058 1.58005
626.82214 1.57622
624.77370 1.56445
622.72526 1.55016
620.67682 1.54497
618.62838 1.54866
616.57995 1.55693
614.53151 1.56448
612.48307 1.56081
610.43463 1.53682
608.38619 1.50947
606.33775 1.49787
604.28932 1.49465
602.24088 1.48688
600.19244 1.48044
598.14400 1.48767
