3996.50324 1.12239
3994.45480 1.12327
3992.40636 1.12338
3990.35792 1.12269
3988.30948 1.12155
3986.26104 1.12082
3984.21261 1.12074
3982.16417 1.12050
3980.11573 1.11987
3978.06729 1.11954
3976.01885 1.11965
3973.97041 1.11951
3971.92198 1.11926
3969.87354 1.11923
3967.82510 1.11879
3965.77666 1.11813
3963.72822 1.11834
3961.67978 1.11925
3959.63135 1.11957
3957.58291 1.11919
3955.53447 1.11876
3953.48603 1.11889
3951.43759 1.12025
3949.38915 1.12215
3947.34072 1.12242
3945.29228 1.12160
3943.24384 1.12123
3941.19540 1.12036
3939.14696 1.11920
3937.09852 1.11925
3935.05009 1.12113
3933.00165 1.12424
3930.95321 1.12545
3928.90477 1.12372
3926.85633 1.12293
3924.80789 1.12408
3922.75946 1.12402
3920.71102 1.12308
3918.66258 1.12326
3916.61414 1.12301
3914.56570 1.12101
3912.51726 1.11920
3910.46883 1.11891
3908.42039 1.12013
3906.37195 1.12319
3904.32351 1.12732
3902.27507 1.12929
3900.22663 1.12852
3898.17820 1.12631
3896.12976 1.12418
3894.08132 1.12397
3892.03288 1.12493
3889.98444 1.12391
3887.93600 1.12300
3885.88756 1.12476
3883.83913 1.12665
3881.79069 1.12716
3879.74225 1.12608
3877.69381 1.12381
3875.64537 1.12399
3873.59693 1.12700
3871.54850 1.13016
3869.50006 1.13120
3867.45162 1.12972
3865.40318 1.12939
3863.35474 1.12958
3861.30630 1.12734
3859.25787 1.12578
3857.20943 1.12729
3855.16099 1.13148
3853.11255 1.13509
3851.06411 1.13189
3849.01567 1.12773
3846.96724 1.12561
3844.91880 1.12595
3842.87036 1.12847
3840.82192 1.13178
3838.77348 1.13400
3836.72504 1.13335
3834.67661 1.13110
3832.62817 1.12892
3830.57973 1.12760
3828.53129 1.12767
3826.48285 1.12862
3824.43441 1.12964
3822.38598 1.13203
3820.33754 1.13454
3818.28910 1.13369
3816.24066 1.13148
3814.19222 1.12818
3812.14378 1.12579
3810.09535 1.12542
3808.04691 1.12706
3805.99847 1.12938
3803.95003 1.13170
3801.90159 1.13449
3799.85315 1.13367
3797.80472 1.13060
3795.75628 1.12846
3793.70784 1.12680
3791.65940 1.12567
3789.61096 1.12588
3787.56252 1.12751
3785.51409 1.12984
3783.46565 1.13138
3781.41721 1.13265
3779.36877 1.13357
3777.32033 1.13230
3775.27189 1.13125
3773.22346 1.13269
3771.17502 1.13569
3769.12658 1.13755
3767.07814 1.13804
3765.02970 1.13864
3762.98126 1.13941
3760.93283 1.14162
3758.88439 1.14554
3756.83595 1.14837
3754.78751 1.15157
3752.73907 1.15815
3750.69063 1.16610
3748.64219 1.16788
3746.59376 1.16751
3744.54532 1.16952
3742.49688 1.17288
3740.44844 1.17575
3738.40000 1.17976
3736.35156 1.18745
3734.30313 1.19529
3732.25469 1.19924
3730.20625 1.20323
3728.15781 1.21037
3726.10937 1.22166
3724.06093 1.23492
3722.01250 1.24945
3719.96406 1.26646
3717.91562 1.28652
3715.86718 1.30923
3713.81874 1.33762
3711.77030 1.38290
3709.72187 1.43729
3707.67343 1.48242
3705.62499 1.52730
3703.57655 1.58180
3701.52811 1.64744
3699.47967 1.69477
3697.43124 1.70624
3695.38280 1.69466
3693.33436 1.67256
3691.28592 1.64337
3689.23748 1.60121
3687.18904 1.56058
3685.14061 1.53630
3683.09217 1.52140
3681.04373 1.51524
3678.99529 1.51742
3676.94685 1.52851
3674.89841 1.55116
3672.84998 1.56772
3670.80154 1.57913
3668.75310 1.58679
3666.70466 1.58403
3664.65622 1.57996
3662.60778 1.58253
3660.55935 1.59257
3658.51091 1.60740
3656.46247 1.62576
3654.41403 1.64003
3652.36559 1.64649
3650.31715 1.64805
3648.26872 1.63371
3646.22028 1.61371
3644.17184 1.60339
3642.12340 1.59822
3640.07496 1.59599
3638.02652 1.59696
3635.97809 1.60051
3633.92965 1.60651
3631.88121 1.61559
3629.83277 1.62980
3627.78433 1.64937
3625.73589 1.66806
3623.68746 1.69335
3621.63902 1.72574
3619.59058 1.73711
3617.54214 1.70051
3615.49370 1.65777
3613.44526 1.62759
3611.39682 1.60761
3609.34839 1.59418
3607.29995 1.58051
3605.25151 1.56784
3603.20307 1.55876
3601.15463 1.55200
3599.10619 1.54462
3597.05776 1.53512
3595.00932 1.52472
3592.96088 1.51479
3590.91244 1.50807
3588.86400 1.50438
3586.81556 1.49809
3584.76713 1.48837
3582.71869 1.48064
3580.67025 1.47482
3578.62181 1.47044
3576.57337 1.46736
3574.52493 1.46415
3572.47650 1.46170
3570.42806 1.46233
3568.37962 1.46643
3566.33118 1.46719
3564.28274 1.46155
3562.23430 1.45687
3560.18587 1.45402
3558.13743 1.45137
3556.08899 1.44981
3554.04055 1.45071
3551.99211 1.45209
3549.94367 1.45272
3547.89524 1.45531
3545.84680 1.45892
3543.79836 1.45869
3541.74992 1.45656
3539.70148 1.45646
3537.65304 1.45812
3535.60461 1.45935
3533.55617 1.45992
3531.50773 1.46123
3529.45929 1.46360
3527.41085 1.46643
3525.36241 1.46921
3523.31398 1.47178
3521.26554 1.47290
3519.21710 1.47267
3517.16866 1.47278
3515.12022 1.47377
3513.07178 1.47546
3511.02335 1.47812
3508.97491 1.48080
3506.92647 1.48272
3504.87803 1.48506
3502.82959 1.48702
3500.78115 1.48748
3498.73272 1.48815
3496.68428 1.48951
3494.63584 1.49055
3492.58740 1.49186
3490.53896 1.49466
3488.49052 1.49876
3486.44209 1.50291
3484.39365 1.50632
3482.34521 1.50976
3480.29677 1.51267
3478.24833 1.51431
3476.19989 1.51658
3474.15146 1.51980
3472.10302 1.52297
3470.05458 1.52705
3468.00614 1.53143
3465.95770 1.53414
3463.90926 1.53657
3461.86082 1.54062
3459.81239 1.54498
3457.76395 1.54844
3455.71551 1.55157
3453.66707 1.55529
3451.61863 1.55995
3449.57019 1.56492
3447.52176 1.56989
3445.47332 1.57439
3443.42488 1.57757
3441.37644 1.58000
3439.32800 1.58357
3437.27956 1.58868
3435.23113 1.59354
3433.18269 1.59776
3431.13425 1.60160
3429.08581 1.60453
3427.03737 1.60688
3424.98893 1.60953
3422.94050 1.61281
3420.89206 1.61581
3418.84362 1.61755
3416.79518 1.61860
3414.74674 1.61953
3412.69830 1.62077
3410.64987 1.62298
3408.60143 1.62518
3406.55299 1.62707
3404.50455 1.62924
3402.45611 1.63151
3400.40767 1.63451
3398.35924 1.63807
3396.31080 1.64052
3394.26236 1.64188
3392.21392 1.64282
3390.16548 1.64330
3388.11704 1.64480
3386.06861 1.64701
3384.02017 1.64754
3381.97173 1.64734
3379.92329 1.64850
3377.87485 1.64940
3375.82641 1.64887
3373.77798 1.64842
3371.72954 1.64838
3369.68110 1.64862
3367.63266 1.64888
3365.58422 1.64730
3363.53578 1.64412
3361.48735 1.64188
3359.43891 1.64023
3357.39047 1.63797
3355.34203 1.63550
3353.29359 1.63309
3351.24515 1.63064
3349.19672 1.62733
3347.14828 1.62340
3345.09984 1.62005
3343.05140 1.61739
3341.00296 1.61492
3338.95452 1.61317
3336.90609 1.61166
3334.85765 1.60915
3332.80921 1.60644
3330.76077 1.60402
3328.71233 1.60111
3326.66389 1.59744
3324.61545 1.59417
3322.56702 1.59238
3320.51858 1.59124
3318.47014 1.58999
3316.42170 1.58908
3314.37326 1.58838
3312.32482 1.58696
3310.27639 1.58464
3308.22795 1.58242
3306.17951 1.58145
3304.13107 1.58137
3302.08263 1.58070
3300.03419 1.57882
3297.98576 1.57649
3295.93732 1.57517
3293.88888 1.57485
3291.84044 1.57414
3289.79200 1.57234
3287.74356 1.56943
3285.69513 1.56660
3283.64669 1.56511
3281.59825 1.56422
3279.54981 1.56330
3277.50137 1.56251
3275.45293 1.56152
3273.40450 1.56017
3271.35606 1.55894
3269.30762 1.55791
3267.25918 1.55686
3265.21074 1.55581
3263.16230 1.55438
3261.11387 1.55222
3259.06543 1.55039
3257.01699 1.54923
3254.96855 1.54741
3252.92011 1.54517
3250.87167 1.54326
3248.82324 1.54135
3246.77480 1.53981
3244.72636 1.53880
3242.67792 1.53719
3240.62948 1.53502
3238.58104 1.53304
3236.53261 1.53127
3234.48417 1.53038
3232.43573 1.53018
3230.38729 1.52921
3228.33885 1.52693
3226.29041 1.52414
3224.24198 1.52235
3222.19354 1.52164
3220.14510 1.52018
3218.09666 1.51752
3216.04822 1.51525
3213.99978 1.51371
3211.95135 1.51203
3209.90291 1.51030
3207.85447 1.50879
3205.80603 1.50710
3203.75759 1.50485
3201.70915 1.50240
3199.66072 1.50046
3197.61228 1.49918
3195.56384 1.49818
3193.51540 1.49742
3191.46696 1.49670
3189.41852 1.49495
3187.37008 1.49229
3185.32165 1.48974
3183.27321 1.48725
3181.22477 1.48494
3179.17633 1.48289
3177.12789 1.48073
3175.07945 1.47869
3173.03102 1.47689
3170.98258 1.47490
3168.93414 1.47259
3166.88570 1.47057
3164.83726 1.46892
3162.78882 1.46684
3160.74039 1.46451
3158.69195 1.46279
3156.64351 1.46161
3154.59507 1.46047
3152.54663 1.45885
3150.49819 1.45659
3148.44976 1.45426
3146.40132 1.45243
3144.35288 1.45065
3142.30444 1.44847
3140.25600 1.44675
3138.20756 1.44566
3136.15913 1.44462
3134.11069 1.44397
3132.06225 1.44307
3130.01381 1.44109
3127.96537 1.43902
3125.91693 1.43720
3123.86850 1.43493
3121.82006 1.43262
3119.77162 1.43084
3117.72318 1.42936
3115.67474 1.42840
3113.62630 1.42818
3111.57787 1.42789
3109.52943 1.42652
3107.48099 1.42444
3105.43255 1.42295
3103.38411 1.42240
3101.33567 1.42199
3099.28724 1.42110
3097.23880 1.41986
3095.19036 1.41864
3093.14192 1.41750
3091.09348 1.41665
3089.04504 1.41644
3086.99661 1.41609
3084.94817 1.41527
3082.89973 1.41519
3080.85129 1.41570
3078.80285 1.41555
3076.75441 1.41489
3074.70598 1.41468
3072.65754 1.41482
3070.60910 1.41501
3068.56066 1.41533
3066.51222 1.41546
3064.46378 1.41526
3062.41535 1.41553
3060.36691 1.41651
3058.31847 1.41737
3056.27003 1.41783
3054.22159 1.41860
3052.17315 1.42020
3050.12471 1.42254
3048.07628 1.42543
3046.02784 1.42923
3043.97940 1.43416
3041.93096 1.43939
3039.88252 1.44457
3037.83408 1.45072
3035.78565 1.45835
3033.73721 1.46718
3031.68877 1.47679
3029.64033 1.48647
3027.59189 1.49647
3025.54345 1.50742
3023.49502 1.51868
3021.44658 1.53017
3019.39814 1.54255
3017.34970 1.55574
3015.30126 1.57000
3013.25282 1.58581
3011.20439 1.60227
3009.15595 1.61859
3007.10751 1.63533
3005.05907 1.65224
3003.01063 1.66795
3000.96219 1.68205
2998.91376 1.69413
2996.86532 1.70394
2994.81688 1.71216
2992.76844 1.71882
2990.72000 1.72345
2988.67156 1.72664
2986.62313 1.72950
2984.57469 1.73243
2982.52625 1.73725
2980.47781 1.74704
2978.42937 1.76315
2976.38093 1.78596
2974.33250 1.81440
2972.28406 1.84644
2970.23562 1.88241
2968.18718 1.92098
2966.13874 1.95518
2964.09030 1.98044
2962.04187 1.99777
2959.99343 2.00624
2957.94499 2.00492
2955.89655 1.99711
2953.84811 1.98653
2951.79967 1.97507
2949.75124 1.96163
2947.70280 1.94523
2945.65436 1.92953
2943.60592 1.91868
2941.55748 1.91413
2939.50904 1.91539
2937.46061 1.92007
2935.41217 1.92383
2933.36373 1.92230
2931.31529 1.91594
2929.26685 1.90754
2927.21841 1.89629
2925.16998 1.88180
2923.12154 1.86671
2921.07310 1.85222
2919.02466 1.83789
2916.97622 1.82428
2914.92778 1.80964
2912.87934 1.79154
2910.83091 1.77290
2908.78247 1.75666
2906.73403 1.74231
2904.68559 1.72967
2902.63715 1.71818
2900.58871 1.70747
2898.54028 1.69838
2896.49184 1.69081
2894.44340 1.68384
2892.39496 1.67673
2890.34652 1.66882
2888.29808 1.66042
2886.24965 1.65475
2884.20121 1.65622
2882.15277 1.66680
2880.10433 1.68514
2878.05589 1.70649
2876.00745 1.72265
2873.95902 1.72571
2871.91058 1.71422
2869.86214 1.69456
2867.81370 1.67385
2865.76526 1.65391
2863.71682 1.63385
2861.66839 1.61378
2859.61995 1.59566
2857.57151 1.58202
2855.52307 1.57411
2853.47463 1.57233
2851.42619 1.57416
2849.37776 1.57008
2847.32932 1.55296
2845.28088 1.52863
2843.23244 1.50482
2841.18400 1.48264
2839.13556 1.46193
2837.08713 1.44302
2835.03869 1.42562
2832.99025 1.40989
2830.94181 1.39628
2828.89337 1.38429
2826.84493 1.37332
2824.79650 1.36368
2822.74806 1.35500
2820.69962 1.34654
2818.65118 1.33851
2816.60274 1.33137
2814.55430 1.32489
2812.50587 1.31856
2810.45743 1.31242
2808.40899 1.30692
2806.36055 1.30217
2804.31211 1.29770
2802.26367 1.29322
2800.21524 1.28909
2798.16680 1.28548
2796.11836 1.28243
2794.06992 1.28020
2792.02148 1.27841
2789.97304 1.27631
2787.92461 1.27372
2785.87617 1.27083
2783.82773 1.26846
2781.77929 1.26723
2779.73085 1.26652
2777.68241 1.26531
2775.63397 1.26332
2773.58554 1.26140
2771.53710 1.26011
2769.48866 1.25909
2767.44022 1.25820
2765.39178 1.25742
2763.34334 1.25655
2761.29491 1.25557
2759.24647 1.25455
2757.19803 1.25359
2755.14959 1.25278
2753.10115 1.25192
2751.05271 1.25090
2749.00428 1.25026
2746.95584 1.25028
2744.90740 1.25011
2742.85896 1.24899
2740.81052 1.24725
2738.76208 1.24549
2736.71365 1.24391
2734.66521 1.24229
2732.61677 1.24027
2730.56833 1.23787
2728.51989 1.23534
2726.47145 1.23248
2724.42302 1.22926
2722.37458 1.22635
2720.32614 1.22402
2718.27770 1.22208
2716.22926 1.22054
2714.18082 1.21901
2712.13239 1.21723
2710.08395 1.21562
2708.03551 1.21468
2705.98707 1.21443
2703.93863 1.21431
2701.89019 1.21365
2699.84176 1.21229
2697.79332 1.21090
2695.74488 1.20998
2693.69644 1.20933
2691.64800 1.20888
2689.59956 1.20842
2687.55113 1.20760
2685.50269 1.20658
2683.45425 1.20548
2681.40581 1.20432
2679.35737 1.20355
2677.30893 1.20322
2675.26050 1.20282
2673.21206 1.20242
2671.16362 1.20249
2669.11518 1.20284
2667.06674 1.20305
2665.01830 1.20312
2662.96987 1.20309
2660.92143 1.20266
2658.87299 1.20150
2656.82455 1.19969
2654.77611 1.19790
2652.72767 1.19675
2650.67924 1.19568
2648.63080 1.19418
2646.58236 1.19307
2644.53392 1.19276
2642.48548 1.19257
2640.43704 1.19200
2638.38860 1.19125
2636.34017 1.19060
2634.29173 1.19032
2632.24329 1.19089
2630.19485 1.19140
2628.14641 1.19064
2626.09797 1.18959
2624.04954 1.18922
2622.00110 1.18902
2619.95266 1.18872
2617.90422 1.18864
2615.85578 1.18881
2613.80734 1.18887
2611.75891 1.18856
2609.71047 1.18797
2607.66203 1.18746
2605.61359 1.18745
2603.56515 1.18804
2601.51671 1.18857
2599.46828 1.18825
2597.41984 1.18729
2595.37140 1.18628
2593.32296 1.18539
2591.27452 1.18458
2589.22608 1.18392
2587.17765 1.18349
2585.12921 1.18307
2583.08077 1.18237
2581.03233 1.18157
2578.98389 1.18107
2576.93545 1.18055
2574.88702 1.17975
2572.83858 1.17909
2570.79014 1.17876
2568.74170 1.17852
2566.69326 1.17818
2564.64482 1.17783
2562.59639 1.17767
2560.54795 1.17761
2558.49951 1.17758
2556.45107 1.17743
2554.40263 1.17670
2552.35419 1.17547
2550.30576 1.17435
2548.25732 1.17352
2546.20888 1.17259
2544.16044 1.17171
2542.11200 1.17129
2540.06356 1.17097
2538.01513 1.17038
2535.96669 1.16963
2533.91825 1.16885
2531.86981 1.16806
2529.82137 1.16744
2527.77293 1.16724
2525.72450 1.16716
2523.67606 1.16677
2521.62762 1.16606
2519.57918 1.16517
2517.53074 1.16435
2515.48230 1.16389
2513.43387 1.16381
2511.38543 1.16399
2509.33699 1.16409
2507.28855 1.16351
2505.24011 1.16236
2503.19167 1.16135
2501.14324 1.16038
2499.09480 1.15955
2497.04636 1.15934
2494.99792 1.15950
2492.94948 1.15973
2490.90104 1.15975
2488.85260 1.15932
2486.80417 1.15866
2484.75573 1.15778
2482.70729 1.15643
2480.65885 1.15535
2478.61041 1.15522
2476.56197 1.15555
2474.51354 1.15583
2472.46510 1.15592
2470.41666 1.15591
2468.36822 1.15580
2466.31978 1.15555
2464.27134 1.15554
2462.22291 1.15624
2460.17447 1.15716
2458.12603 1.15740
2456.07759 1.15713
2454.02915 1.15688
2451.98071 1.15656
2449.93228 1.15588
2447.88384 1.15515
2445.83540 1.15514
2443.78696 1.15577
2441.73852 1.15650
2439.69008 1.15686
2437.64165 1.15654
2435.59321 1.15593
2433.54477 1.15562
2431.49633 1.15574
2429.44789 1.15580
2427.39945 1.15522
2425.35102 1.15465
2423.30258 1.15490
2421.25414 1.15566
2419.20570 1.15626
2417.15726 1.15617
2415.10882 1.15571
2413.06039 1.15588
2411.01195 1.15691
2408.96351 1.15816
2406.91507 1.15886
2404.86663 1.15883
2402.81819 1.15876
2400.76976 1.15911
2398.72132 1.15980
2396.67288 1.16048
2394.62444 1.16063
2392.57600 1.16024
2390.52756 1.15982
2388.47913 1.16004
2386.43069 1.16124
2384.38225 1.16327
2382.33381 1.16579
2380.28537 1.16853
2378.23693 1.17134
2376.18850 1.17408
2374.14006 1.17689
2372.09162 1.18066
2370.04318 1.18545
2367.99474 1.18951
2365.94630 1.19257
2363.89787 1.19618
2361.84943 1.19917
2359.80099 1.19998
2357.75255 1.19935
2355.70411 1.19745
2353.65567 1.19486
2351.60723 1.19249
2349.55880 1.19142
2347.51036 1.19396
2345.46192 1.20116
2343.41348 1.20931
2341.36504 1.21489
2339.31660 1.21929
2337.26817 1.22368
2335.21973 1.22750
2333.17129 1.22929
2331.12285 1.22785
2329.07441 1.22299
2327.02597 1.21607
2324.97754 1.20837
2322.92910 1.20056
2320.88066 1.19374
2318.83222 1.18832
2316.78378 1.18390
2314.73534 1.18064
2312.68691 1.17841
2310.63847 1.17617
2308.59003 1.17351
2306.54159 1.17082
2304.49315 1.16825
2302.44471 1.16604
2300.39628 1.16436
2298.34784 1.16284
2296.29940 1.16134
2294.25096 1.16026
2292.20252 1.15965
2290.15408 1.15906
2288.10565 1.15774
2286.05721 1.15583
2284.00877 1.15489
2281.96033 1.15493
2279.91189 1.15479
2277.86345 1.15471
2275.81502 1.15496
2273.76658 1.15512
2271.71814 1.15510
2269.66970 1.15499
2267.62126 1.15456
2265.57282 1.15382
2263.52439 1.15334
2261.47595 1.15316
2259.42751 1.15305
2257.37907 1.15352
2255.33063 1.15446
2253.28219 1.15524
2251.23376 1.15595
2249.18532 1.15656
2247.13688 1.15666
2245.08844 1.15675
2243.04000 1.15741
2240.99156 1.15832
2238.94313 1.15911
2236.89469 1.15958
2234.84625 1.15939
2232.79781 1.15875
2230.74937 1.15837
2228.70093 1.15830
2226.65250 1.15812
2224.60406 1.15811
2222.55562 1.15856
2220.50718 1.15902
2218.45874 1.15944
2216.41030 1.16027
2214.36186 1.16105
2212.31343 1.16122
2210.26499 1.16131
2208.21655 1.16190
2206.16811 1.16280
2204.11967 1.16352
2202.07123 1.16399
2200.02280 1.16421
2197.97436 1.16435
2195.92592 1.16519
2193.87748 1.16638
2191.82904 1.16678
2189.78060 1.16673
2187.73217 1.16681
2185.68373 1.16663
2183.63529 1.16630
2181.58685 1.16612
2179.53841 1.16622
2177.48997 1.16686
2175.44154 1.16762
2173.39310 1.16796
2171.34466 1.16840
2169.29622 1.16925
2167.24778 1.17002
2165.19934 1.17078
2163.15091 1.17151
2161.10247 1.17198
2159.05403 1.17248
2157.00559 1.17304
2154.95715 1.17366
2152.90871 1.17414
2150.86028 1.17447
2148.81184 1.17544
2146.76340 1.17691
2144.71496 1.17772
2142.66652 1.17787
2140.61808 1.17814
2138.56965 1.17885
2136.52121 1.17999
2134.47277 1.18139
2132.42433 1.18262
2130.37589 1.18333
2128.32745 1.18378
2126.27902 1.18428
2124.23058 1.18447
2122.18214 1.18404
2120.13370 1.18342
2118.08526 1.18315
2116.03682 1.18317
2113.98839 1.18315
2111.93995 1.18321
2109.89151 1.18368
2107.84307 1.18434
2105.79463 1.18469
2103.74619 1.18480
2101.69776 1.18538
2099.64932 1.18664
2097.60088 1.18789
2095.55244 1.18873
2093.50400 1.18955
2091.45556 1.19064
2089.40713 1.19184
2087.35869 1.19289
2085.31025 1.19373
2083.26181 1.19444
2081.21337 1.19519
2079.16493 1.19612
2077.11649 1.19714
2075.06806 1.19799
2073.01962 1.19879
2070.97118 1.20007
2068.92274 1.20162
2066.87430 1.20310
2064.82586 1.20476
2062.77743 1.20660
2060.72899 1.20809
2058.68055 1.20885
2056.63211 1.20944
2054.58367 1.21070
2052.53523 1.21291
2050.48680 1.21556
2048.43836 1.21750
2046.38992 1.21863
2044.34148 1.21992
2042.29304 1.22150
2040.24460 1.22246
2038.19617 1.22319
2036.14773 1.22483
2034.09929 1.22676
2032.05085 1.22776
2030.00241 1.22788
2027.95397 1.22781
2025.90554 1.22773
2023.85710 1.22761
2021.80866 1.22785
2019.76022 1.22903
2017.71178 1.23078
2015.66334 1.23178
2013.61491 1.23228
2011.56647 1.23332
2009.51803 1.23476
2007.46959 1.23675
2005.42115 1.23924
2003.37271 1.24135
2001.32428 1.24275
1999.27584 1.24390
1997.22740 1.24494
1995.17896 1.24589
1993.13052 1.24690
1991.08208 1.24738
1989.03365 1.24760
1986.98521 1.24862
1984.93677 1.25046
1982.88833 1.25230
1980.83989 1.25329
1978.79145 1.25383
1976.74302 1.25477
1974.69458 1.25619
1972.64614 1.25713
1970.59770 1.25660
1968.54926 1.25518
1966.50082 1.25387
1964.45239 1.25316
1962.40395 1.25334
1960.35551 1.25381
1958.30707 1.25383
1956.25863 1.25347
1954.21019 1.25268
1952.16176 1.25146
1950.11332 1.25046
1948.06488 1.25058
1946.01644 1.25209
1943.96800 1.25345
1941.91956 1.25214
1939.87112 1.24951
1937.82269 1.24831
1935.77425 1.24784
1933.72581 1.24683
1931.67737 1.24571
1929.62893 1.24540
1927.58049 1.24621
1925.53206 1.24836
1923.48362 1.25132
1921.43518 1.25351
1919.38674 1.25580
1917.33830 1.25853
1915.28986 1.25955
1913.24143 1.26007
1911.19299 1.26183
1909.14455 1.26452
1907.09611 1.26766
1905.04767 1.27105
1902.99923 1.27363
1900.95080 1.27503
1898.90236 1.27673
1896.85392 1.27981
1894.80548 1.28328
1892.75704 1.28605
1890.70860 1.28947
1888.66017 1.29297
1886.61173 1.29444
1884.56329 1.29456
1882.51485 1.29471
1880.46641 1.29595
1878.41797 1.29811
1876.36954 1.30051
1874.32110 1.30290
1872.27266 1.30586
1870.22422 1.31027
1868.17578 1.31275
1866.12734 1.30931
1864.07891 1.30472
1862.03047 1.30153
1859.98203 1.29855
1857.93359 1.29512
1855.88515 1.29219
1853.83671 1.29000
1851.78828 1.28807
1849.73984 1.28727
1847.69140 1.28838
1845.64296 1.29030
1843.59452 1.28889
1841.54608 1.28432
1839.49765 1.28180
1837.44921 1.28124
1835.40077 1.28072
1833.35233 1.28209
1831.30389 1.28728
1829.25545 1.29262
1827.20702 1.29323
1825.15858 1.29201
1823.11014 1.29133
1821.06170 1.29159
1819.01326 1.29317
1816.96482 1.29538
1814.91639 1.29848
1812.86795 1.30310
1810.81951 1.30698
1808.77107 1.30744
1806.72263 1.30771
1804.67419 1.31107
1802.62575 1.31661
1800.57732 1.32115
1798.52888 1.32305
1796.48044 1.32496
1794.43200 1.32864
1792.38356 1.33371
1790.33512 1.33549
1788.28669 1.33439
1786.23825 1.33460
1784.18981 1.33709
1782.14137 1.34115
1780.09293 1.34596
1778.04449 1.35078
1775.99606 1.35662
1773.94762 1.36528
1771.89918 1.37495
1769.85074 1.38101
1767.80230 1.38607
1765.75386 1.39417
1763.70543 1.40717
1761.65699 1.42739
1759.60855 1.45014
1757.56011 1.47838
1755.51167 1.51596
1753.46323 1.55850
1751.41480 1.62448
1749.36636 1.73448
1747.31792 1.85927
1745.26948 1.97350
1743.22104 2.07840
1741.17260 2.16193
1739.12417 2.20693
1737.07573 2.21093
1735.02729 2.19097
1732.97885 2.15283
1730.93041 2.11910
1728.88197 2.09079
1726.83354 2.06740
1724.78510 2.04848
1722.73666 2.03306
1720.68822 2.02325
1718.63978 2.00850
1716.59134 1.96723
1714.54291 1.91203
1712.49447 1.86529
1710.44603 1.82311
1708.39759 1.78664
1706.34915 1.75255
1704.30071 1.72110
1702.25228 1.69713
1700.20384 1.67213
1698.15540 1.64888
1696.10696 1.62638
1694.05852 1.60482
1692.01008 1.59232
1689.96165 1.58384
1687.91321 1.57711
1685.86477 1.57170
1683.81633 1.56176
1681.76789 1.54972
1679.71945 1.53953
1677.67102 1.53006
1675.62258 1.52048
1673.57414 1.51228
1671.52570 1.50816
1669.47726 1.50330
1667.42882 1.49568
1665.38038 1.49132
1663.33195 1.49036
1661.28351 1.48870
1659.23507 1.48650
1657.18663 1.48721
1655.13819 1.49086
1653.08975 1.49388
1651.04132 1.49227
1648.99288 1.49268
1646.94444 1.49451
1644.89600 1.49204
1642.84756 1.48901
1640.79912 1.48862
1638.75069 1.49033
1636.70225 1.49161
1634.65381 1.48716
1632.60537 1.48278
1630.55693 1.48237
1628.50849 1.48440
1626.46006 1.48626
1624.41162 1.48657
1622.36318 1.48422
1620.31474 1.48098
1618.26630 1.47947
1616.21786 1.47752
1614.16943 1.47385
1612.12099 1.47121
1610.07255 1.46923
1608.02411 1.46578
1605.97567 1.46084
1603.92723 1.45517
1601.87880 1.44890
1599.83036 1.44322
1597.78192 1.43912
1595.73348 1.43517
1593.68504 1.42944
1591.63660 1.42292
1589.58817 1.41726
1587.53973 1.41279
1585.49129 1.40942
1583.44285 1.40661
1581.39441 1.40406
1579.34597 1.40320
1577.29754 1.40381
1575.24910 1.40073
1573.20066 1.39557
1571.15222 1.39295
1569.10378 1.39160
1567.05534 1.39054
1565.00691 1.39108
1562.95847 1.39260
1560.91003 1.39464
1558.86159 1.39713
1556.81315 1.39515
1554.76471 1.39067
1552.71628 1.38650
1550.66784 1.38421
1548.61940 1.38374
1546.57096 1.38601
1544.52252 1.39219
1542.47408 1.39998
1540.42565 1.40313
1538.37721 1.39674
1536.32877 1.39268
1534.28033 1.39279
1532.23189 1.39232
1530.18345 1.39115
1528.13501 1.39281
1526.08658 1.39617
1524.03814 1.39855
1521.98970 1.40077
1519.94126 1.40104
1517.89282 1.40021
1515.84438 1.39926
1513.79595 1.39925
1511.74751 1.40285
1509.69907 1.41039
1507.65063 1.42303
1505.60219 1.43153
1503.55375 1.43487
1501.50532 1.44397
1499.45688 1.46412
1497.40844 1.50281
1495.36000 1.55233
1493.31156 1.59376
1491.26312 1.64069
1489.21469 1.70437
1487.16625 1.74188
1485.11781 1.74759
1483.06937 1.74633
1481.02093 1.74599
1478.97249 1.74891
1476.92406 1.75553
1474.87562 1.76519
1472.82718 1.77520
1470.77874 1.78195
1468.73030 1.78776
1466.68186 1.79610
1464.63343 1.80414
1462.58499 1.80722
1460.53655 1.80988
1458.48811 1.81719
1456.43967 1.82743
1454.39123 1.83152
1452.34280 1.83351
1450.29436 1.83319
1448.24592 1.82489
1446.19748 1.80509
1444.14904 1.78016
1442.10060 1.75680
1440.05217 1.74156
1438.00373 1.73754
1435.95529 1.73904
1433.90685 1.73132
1431.85841 1.70934
1429.80997 1.67127
1427.76154 1.63033
1425.71310 1.59713
1423.66466 1.56856
1421.61622 1.54899
1419.56778 1.53889
1417.51934 1.53167
1415.47091 1.52576
1413.42247 1.52396
1411.37403 1.52765
1409.32559 1.53578
1407.27715 1.54733
1405.22871 1.56203
1403.18028 1.57532
1401.13184 1.58511
1399.08340 1.59426
1397.03496 1.60244
1394.98652 1.61154
1392.93808 1.62305
1390.88965 1.63499
1388.84121 1.64681
1386.79277 1.65358
1384.74433 1.65081
1382.69589 1.64368
1380.64745 1.63362
1378.59901 1.61824
1376.55058 1.59974
1374.50214 1.58030
1372.45370 1.56380
1370.40526 1.55608
1368.35682 1.55510
1366.30838 1.55565
1364.25995 1.55526
1362.21151 1.55205
1360.16307 1.54678
1358.11463 1.54286
1356.06619 1.53971
1354.01775 1.53470
1351.96932 1.52619
1349.92088 1.51475
1347.87244 1.50303
1345.82400 1.49493
1343.77556 1.49270
1341.72712 1.49523
1339.67869 1.49806
1337.63025 1.49623
1335.58181 1.49135
1333.53337 1.48724
1331.48493 1.48612
1329.43649 1.48846
1327.38806 1.49276
1325.33962 1.49804
1323.29118 1.50393
1321.24274 1.50989
1319.19430 1.51522
1317.14586 1.51874
1315.09743 1.52382
1313.04899 1.53516
1311.00055 1.54987
1308.95211 1.56302
1306.90367 1.57332
1304.85523 1.58077
1302.80680 1.58629
1300.75836 1.59059
1298.70992 1.59458
1296.66148 1.59997
1294.61304 1.60899
1292.56460 1.62309
1290.51617 1.64215
1288.46773 1.66574
1286.41929 1.69366
1284.37085 1.72702
1282.32241 1.76743
1280.27397 1.81363
1278.22554 1.86062
1276.17710 1.90126
1274.12866 1.93028
1272.08022 1.94448
1270.03178 1.94520
1267.98334 1.93959
1265.93491 1.93085
1263.88647 1.91977
1261.83803 1.91019
1259.78959 1.90486
1257.74115 1.90351
1255.69271 1.90679
1253.64428 1.91747
1251.59584 1.93582
1249.54740 1.95765
1247.49896 1.97894
1245.45052 1.99697
1243.40208 2.00749
1241.35364 2.00705
1239.30521 1.99698
1237.25677 1.98186
1235.20833 1.96461
1233.15989 1.94642
1231.11145 1.92935
1229.06301 1.91460
1227.01458 1.90135
1224.96614 1.88898
1222.91770 1.87705
1220.86926 1.86582
1218.82082 1.85832
1216.77238 1.85774
1214.72395 1.86478
1212.67551 1.87848
1210.62707 1.89796
1208.57863 1.92247
1206.53019 1.95046
1204.48175 1.98006
1202.43332 2.00876
1200.38488 2.03301
1198.33644 2.05170
1196.28800 2.06609
1194.23956 2.07601
1192.19112 2.08154
1190.14269 2.08354
1188.09425 2.08204
1186.04581 2.07924
1183.99737 2.07862
1181.94893 2.07856
1179.90049 2.07630
1177.85206 2.07312
1175.80362 2.06988
1173.75518 2.06637
1171.70674 2.06370
1169.65830 2.06284
1167.60986 2.06325
1165.56143 2.06495
1163.51299 2.06950
1161.46455 2.07381
1159.41611 2.07198
1157.36767 2.06293
1155.31923 2.04886
1153.27080 2.03355
1151.22236 2.01947
1149.17392 2.00477
1147.12548 1.98884
1145.07704 1.97442
1143.02860 1.96224
1140.98017 1.95208
1138.93173 1.94456
1136.88329 1.93879
1134.83485 1.93400
1132.78641 1.93046
1130.73797 1.92861
1128.68954 1.92910
1126.64110 1.93034
1124.59266 1.93051
1122.54422 1.93135
1120.49578 1.93414
1118.44734 1.93826
1116.39891 1.94213
1114.35047 1.94423
1112.30203 1.94466
1110.25359 1.94255
1108.20515 1.93919
1106.15671 1.93845
1104.10827 1.93998
1102.05984 1.94089
1100.01140 1.94120
1097.96296 1.94182
1095.91452 1.94253
1093.86608 1.94390
1091.81764 1.94608
1089.76921 1.94841
1087.72077 1.95133
1085.67233 1.95484
1083.62389 1.95731
1081.57545 1.95794
1079.52701 1.95756
1077.47858 1.95716
1075.43014 1.95736
1073.38170 1.95717
1071.33326 1.95497
1069.28482 1.95157
1067.23638 1.94805
1065.18795 1.94380
1063.13951 1.93836
1061.09107 1.93252
1059.04263 1.92697
1056.99419 1.92063
1054.94575 1.91420
1052.89732 1.90979
1050.84888 1.90697
1048.80044 1.90387
1046.75200 1.90094
1044.70356 1.90049
1042.65512 1.90174
1040.60669 1.90232
1038.55825 1.90168
1036.50981 1.90113
1034.46137 1.90374
1032.41293 1.90972
1030.36449 1.91696
1028.31606 1.92698
1026.26762 1.93946
1024.21918 1.94983
1022.17074 1.95595
1020.12230 1.95780
1018.07386 1.95618
1016.02543 1.95323
1013.97699 1.95170
1011.92855 1.95186
1009.88011 1.95307
1007.83167 1.95861
1005.78323 1.97013
1003.73480 1.98340
1001.68636 1.99319
999.63792 1.99815
997.58948 2.00257
995.54104 2.01058
993.49260 2.01809
991.44417 2.01969
989.39573 2.01860
987.34729 2.02041
985.29885 2.02445
983.25041 2.02767
981.20197 2.03018
979.15354 2.03248
977.10510 2.03479
975.05666 2.03786
973.00822 2.04075
970.95978 2.04161
968.91134 2.04067
966.86290 2.03890
964.81447 2.03583
962.76603 2.03134
960.71759 2.02692
958.66915 2.02318
956.62071 2.01861
954.57227 2.01449
952.52384 2.01506
950.47540 2.01904
948.42696 2.02079
946.37852 2.01937
944.33008 2.01658
942.28164 2.01240
940.23321 2.00710
938.18477 2.00343
936.13633 2.00234
934.08789 1.99988
932.03945 1.99568
929.99101 1.99458
927.94258 1.99796
925.89414 2.00264
923.84570 2.00705
921.79726 2.01336
919.74882 2.02141
917.70038 2.02846
915.65195 2.03347
913.60351 2.03594
911.55507 2.03391
909.50663 2.02380
907.45819 2.00715
905.40975 1.98917
903.36132 1.96992
901.31288 1.94883
899.26444 1.92725
897.21600 1.90476
895.16756 1.88156
893.11912 1.86022
891.07069 1.84273
889.02225 1.82953
886.97381 1.82033
884.92537 1.81474
882.87693 1.81177
880.82849 1.80856
878.78006 1.80309
876.73162 1.79688
874.68318 1.79068
872.63474 1.78320
870.58630 1.77709
868.53786 1.77435
866.48943 1.77152
864.44099 1.76796
862.39255 1.76685
860.34411 1.76826
858.29567 1.76919
856.24723 1.76976
854.19880 1.77313
852.15036 1.77953
850.10192 1.78495
848.05348 1.78720
846.00504 1.78835
843.95660 1.78860
841.90817 1.78819
839.85973 1.78984
837.81129 1.79235
835.76285 1.79348
833.71441 1.79502
831.66597 1.79695
829.61753 1.79798
827.56910 1.79901
825.52066 1.79744
823.47222 1.79128
821.42378 1.78565
819.37534 1.78386
817.32690 1.78351
815.27847 1.78382
813.23003 1.78756
811.18159 1.79622
809.13315 1.80620
807.08471 1.81349
805.03627 1.82192
802.98784 1.83511
800.93940 1.84741
798.89096 1.85404
796.84252 1.85661
794.79408 1.85509
792.74564 1.85098
790.69721 1.84928
788.64877 1.85148
786.60033 1.85533
784.55189 1.85621
782.50345 1.84943
780.45501 1.83714
778.40658 1.82722
776.35814 1.82370
774.30970 1.82463
772.26126 1.82462
770.21282 1.82003
768.16438 1.81350
766.11595 1.81060
764.06751 1.81399
762.01907 1.82052
759.97063 1.82957
757.92219 1.84645
755.87375 1.86907
753.82532 1.88935
751.77688 1.90306
749.72844 1.90408
747.68000 1.88835
745.63156 1.86366
743.58312 1.84097
741.53469 1.82454
739.48625 1.81277
737.43781 1.80163
735.38937 1.79139
733.34093 1.78671
731.29249 1.78311
729.24406 1.77312
727.19562 1.76028
725.14718 1.74943
723.09874 1.74384
721.05030 1.74788
719.00186 1.75748
716.95343 1.76431
714.90499 1.76960
712.85655 1.77736
710.80811 1.78920
708.75967 1.80769
706.71123 1.82754
704.66280 1.83820
702.61436 1.84497
700.56592 1.85778
698.51748 1.86936
696.46904 1.86811
694.42060 1.85667
692.37216 1.84453
690.32373 1.83389
688.27529 1.82285
686.22685 1.81276
684.17841 1.80934
682.12997 1.81548
680.08153 1.82175
678.03310 1.81713
675.98466 1.80723
673.93622 1.80256
671.88778 1.80121
669.83934 1.80006
667.79090 1.79978
665.74247 1.79857
663.69403 1.79756
661.64559 1.79622
659.59715 1.79484
657.54871 1.79852
655.50027 1.80784
653.45184 1.81557
651.40340 1.82305
649.35496 1.83932
647.30652 1.85109
645.25808 1.84002
643.20964 1.82285
641.16121 1.81931
639.11277 1.82100
637.06433 1.82246
635.01589 1.83025
632.96745 1.83999
630.91901 1.85187
628.87058 1.85163
626.82214 1.82000
624.77370 1.79298
622.72526 1.79688
620.67682 1.81233
618.62838 1.81884
616.57995 1.81314
614.53151 1.81804
612.48307 1.83165
610.43463 1.82776
608.38619 1.81561
606.33775 1.79740
604.28932 1.77506
602.24088 1.77896
600.19244 1.81078
598.14400 1.83101
