3996.50324 1.19867
3994.45480 1.19917
3992.40636 1.19952
3990.35792 1.19927
3988.30948 1.19870
3986.26104 1.19768
3984.21261 1.19685
3982.16417 1.19676
3980.11573 1.19673
3978.06729 1.19633
3976.01885 1.19618
3973.97041 1.19639
3971.92198 1.19645
3969.87354 1.19671
3967.82510 1.19741
3965.77666 1.19797
3963.72822 1.19824
3961.67978 1.19843
3959.63135 1.19823
3957.58291 1.19818
3955.53447 1.19877
3953.48603 1.19906
3951.43759 1.19896
3949.38915 1.19937
3947.34072 1.19945
3945.29228 1.19838
3943.24384 1.19832
3941.19540 1.19946
3939.14696 1.19950
3937.09852 1.19890
3935.05009 1.19834
3933.00165 1.19868
3930.95321 1.20059
3928.90477 1.20129
3926.85633 1.20017
3924.80789 1.19995
3922.75946 1.20027
3920.71102 1.19959
3918.66258 1.19976
3916.61414 1.20122
3914.56570 1.20149
3912.51726 1.20025
3910.46883 1.19920
3908.42039 1.19850
3906.37195 1.19814
3904.32351 1.20007
3902.27507 1.20304
3900.22663 1.20475
3898.17820 1.20579
3896.12976 1.20436
3894.08132 1.20193
3892.03288 1.20359
3889.98444 1.20688
3887.93600 1.20557
3885.88756 1.20481
3883.83913 1.20638
3881.79069 1.20594
3879.74225 1.20624
3877.69381 1.20543
3875.64537 1.20311
3873.59693 1.20284
3871.54850 1.20423
3869.50006 1.20726
3867.45162 1.20792
3865.40318 1.20650
3863.35474 1.20835
3861.30630 1.21009
3859.25787 1.20858
3857.20943 1.20504
3855.16099 1.20168
3853.11255 1.20829
3851.06411 1.21602
3849.01567 1.21367
3846.96724 1.20927
3844.91880 1.20688
3842.87036 1.20673
3840.82192 1.20679
3838.77348 1.20824
3836.72504 1.21132
3834.67661 1.21173
3832.62817 1.21132
3830.57973 1.21144
3828.53129 1.21065
3826.48285 1.20995
3824.43441 1.20848
3822.38598 1.20707
3820.33754 1.21044
3818.28910 1.21212
3816.24066 1.21320
3814.19222 1.21562
3812.14378 1.21429
3810.09535 1.21127
3808.04691 1.21052
3805.99847 1.21231
3803.95003 1.21117
3801.90159 1.21147
3799.85315 1.21610
3797.80472 1.21684
3795.75628 1.21633
3793.70784 1.21599
3791.65940 1.21530
3789.61096 1.21517
3787.56252 1.21503
3785.51409 1.21608
3783.46565 1.21797
3781.41721 1.21849
3779.36877 1.22013
3777.32033 1.22266
3775.27189 1.22252
3773.22346 1.22118
3771.17502 1.22236
3769.12658 1.22675
3767.07814 1.22917
3765.02970 1.22944
3762.98126 1.22922
3760.93283 1.22920
3758.88439 1.23244
3756.83595 1.23606
3754.78751 1.23640
3752.73907 1.23632
3750.69063 1.24261
3748.64219 1.24960
3746.59376 1.25010
3744.54532 1.25431
3742.49688 1.26162
3740.44844 1.26329
3738.40000 1.26323
3736.35156 1.26833
3734.30313 1.28017
3732.25469 1.29003
3730.20625 1.29565
3728.15781 1.30087
3726.10937 1.30946
3724.06093 1.32210
3722.01250 1.33782
3719.96406 1.35556
3717.91562 1.37388
3715.86718 1.39168
3713.81874 1.41219
3711.77030 1.44914
3709.72187 1.49971
3707.67343 1.54141
3705.62499 1.57904
3703.57655 1.62154
3701.52811 1.66908
3699.47967 1.70012
3697.43124 1.70565
3695.38280 1.69520
3693.33436 1.67746
3691.28592 1.65625
3689.23748 1.63412
3687.18904 1.61757
3685.14061 1.60806
3683.09217 1.60288
3681.04373 1.60233
3678.99529 1.60652
3676.94685 1.61880
3674.89841 1.64251
3672.84998 1.65757
3670.80154 1.66665
3668.75310 1.67397
3666.70466 1.67247
3664.65622 1.66993
3662.60778 1.67238
3660.55935 1.67861
3658.51091 1.68708
3656.46247 1.69774
3654.41403 1.70338
3652.36559 1.70093
3650.31715 1.69567
3648.26872 1.69079
3646.22028 1.68679
3644.17184 1.68493
3642.12340 1.68565
3640.07496 1.68869
3638.02652 1.69330
3635.97809 1.69862
3633.92965 1.70288
3631.88121 1.70497
3629.83277 1.71025
3627.78433 1.72761
3625.73589 1.74380
3623.68746 1.75784
3621.63902 1.77222
3619.59058 1.77359
3617.54214 1.75239
3615.49370 1.72867
3613.44526 1.71070
3611.39682 1.69669
3609.34839 1.68599
3607.29995 1.67671
3605.25151 1.66818
3603.20307 1.66096
3601.15463 1.65307
3599.10619 1.64229
3597.05776 1.63061
3595.00932 1.61921
3592.96088 1.60785
3590.91244 1.59775
3588.86400 1.58692
3586.81556 1.57324
3584.76713 1.56019
3582.71869 1.54902
3580.67025 1.53881
3578.62181 1.52944
3576.57337 1.52076
3574.52493 1.51226
3572.47650 1.50380
3570.42806 1.49601
3568.37962 1.48936
3566.33118 1.48279
3564.28274 1.47634
3562.23430 1.47160
3560.18587 1.46865
3558.13743 1.46546
3556.08899 1.46162
3554.04055 1.45874
3551.99211 1.45598
3549.94367 1.45225
3547.89524 1.44908
3545.84680 1.44763
3543.79836 1.44611
3541.74992 1.44367
3539.70148 1.44201
3537.65304 1.44173
3535.60461 1.44157
3533.55617 1.44128
3531.50773 1.44159
3529.45929 1.44213
3527.41085 1.44237
3525.36241 1.44255
3523.31398 1.44331
3521.26554 1.44427
3519.21710 1.44490
3517.16866 1.44497
3515.12022 1.44478
3513.07178 1.44487
3511.02335 1.44528
3508.97491 1.44612
3506.92647 1.44715
3504.87803 1.44852
3502.82959 1.45031
3500.78115 1.45126
3498.73272 1.45170
3496.68428 1.45239
3494.63584 1.45189
3492.58740 1.45050
3490.53896 1.45036
3488.49052 1.45133
3486.44209 1.45176
3484.39365 1.45163
3482.34521 1.45252
3480.29677 1.45395
3478.24833 1.45403
3476.19989 1.45375
3474.15146 1.45428
3472.10302 1.45435
3470.05458 1.45418
3468.00614 1.45507
3465.95770 1.45648
3463.90926 1.45780
3461.86082 1.45900
3459.81239 1.45999
3457.76395 1.46075
3455.71551 1.46111
3453.66707 1.46155
3451.61863 1.46245
3449.57019 1.46344
3447.52176 1.46451
3445.47332 1.46521
3443.42488 1.46522
3441.37644 1.46509
3439.32800 1.46522
3437.27956 1.46545
3435.23113 1.46528
3433.18269 1.46467
3431.13425 1.46468
3429.08581 1.46582
3427.03737 1.46711
3424.98893 1.46754
3422.94050 1.46697
3420.89206 1.46669
3418.84362 1.46772
3416.79518 1.46897
3414.74674 1.46871
3412.69830 1.46744
3410.64987 1.46673
3408.60143 1.46629
3406.55299 1.46604
3404.50455 1.46634
3402.45611 1.46680
3400.40767 1.46761
3398.35924 1.46898
3396.31080 1.47008
3394.26236 1.47007
3392.21392 1.46921
3390.16548 1.46834
3388.11704 1.46786
3386.06861 1.46757
3384.02017 1.46736
3381.97173 1.46719
3379.92329 1.46725
3377.87485 1.46781
3375.82641 1.46863
3373.77798 1.46924
3371.72954 1.46884
3369.68110 1.46762
3367.63266 1.46653
3365.58422 1.46570
3363.53578 1.46505
3361.48735 1.46485
3359.43891 1.46495
3357.39047 1.46506
3355.34203 1.46493
3353.29359 1.46439
3351.24515 1.46402
3349.19672 1.46397
3347.14828 1.46421
3345.09984 1.46503
3343.05140 1.46562
3341.00296 1.46499
3338.95452 1.46370
3336.90609 1.46253
3334.85765 1.46174
3332.80921 1.46135
3330.76077 1.46109
3328.71233 1.46090
3326.66389 1.46078
3324.61545 1.46061
3322.56702 1.46027
3320.51858 1.45977
3318.47014 1.45914
3316.42170 1.45820
3314.37326 1.45697
3312.32482 1.45580
3310.27639 1.45497
3308.22795 1.45431
3306.17951 1.45325
3304.13107 1.45234
3302.08263 1.45227
3300.03419 1.45229
3297.98576 1.45209
3295.93732 1.45196
3293.88888 1.45189
3291.84044 1.45208
3289.79200 1.45236
3287.74356 1.45186
3285.69513 1.45070
3283.64669 1.44997
3281.59825 1.44993
3279.54981 1.45002
3277.50137 1.44997
3275.45293 1.44980
3273.40450 1.44936
3271.35606 1.44837
3269.30762 1.44685
3267.25918 1.44571
3265.21074 1.44521
3263.16230 1.44455
3261.11387 1.44364
3259.06543 1.44269
3257.01699 1.44140
3254.96855 1.44019
3252.92011 1.43975
3250.87167 1.43955
3248.82324 1.43888
3246.77480 1.43770
3244.72636 1.43654
3242.67792 1.43590
3240.62948 1.43543
3238.58104 1.43484
3236.53261 1.43425
3234.48417 1.43358
3232.43573 1.43225
3230.38729 1.43054
3228.33885 1.42958
3226.29041 1.42938
3224.24198 1.42890
3222.19354 1.42818
3220.14510 1.42755
3218.09666 1.42632
3216.04822 1.42480
3213.99978 1.42365
3211.95135 1.42202
3209.90291 1.41983
3207.85447 1.41807
3205.80603 1.41679
3203.75759 1.41618
3201.70915 1.41647
3199.66072 1.41664
3197.61228 1.41616
3195.56384 1.41521
3193.51540 1.41363
3191.46696 1.41210
3189.41852 1.41092
3187.37008 1.40924
3185.32165 1.40750
3183.27321 1.40648
3181.22477 1.40561
3179.17633 1.40464
3177.12789 1.40377
3175.07945 1.40267
3173.03102 1.40132
3170.98258 1.40001
3168.93414 1.39844
3166.88570 1.39665
3164.83726 1.39498
3162.78882 1.39361
3160.74039 1.39269
3158.69195 1.39178
3156.64351 1.39048
3154.59507 1.38879
3152.54663 1.38705
3150.49819 1.38564
3148.44976 1.38422
3146.40132 1.38244
3144.35288 1.38070
3142.30444 1.37927
3140.25600 1.37813
3138.20756 1.37745
3136.15913 1.37660
3134.11069 1.37494
3132.06225 1.37322
3130.01381 1.37201
3127.96537 1.37088
3125.91693 1.36964
3123.86850 1.36813
3121.82006 1.36635
3119.77162 1.36499
3117.72318 1.36408
3115.67474 1.36294
3113.62630 1.36204
3111.57787 1.36163
3109.52943 1.36118
3107.48099 1.36066
3105.43255 1.36042
3103.38411 1.36061
3101.33567 1.36054
3099.28724 1.35959
3097.23880 1.35838
3095.19036 1.35757
3093.14192 1.35691
3091.09348 1.35611
3089.04504 1.35534
3086.99661 1.35471
3084.94817 1.35425
3082.89973 1.35405
3080.85129 1.35420
3078.80285 1.35448
3076.75441 1.35450
3074.70598 1.35414
3072.65754 1.35351
3070.60910 1.35312
3068.56066 1.35308
3066.51222 1.35263
3064.46378 1.35152
3062.41535 1.35064
3060.36691 1.35045
3058.31847 1.35056
3056.27003 1.35052
3054.22159 1.35002
3052.17315 1.34910
3050.12471 1.34815
3048.07628 1.34737
3046.02784 1.34669
3043.97940 1.34616
3041.93096 1.34565
3039.88252 1.34464
3037.83408 1.34319
3035.78565 1.34210
3033.73721 1.34140
3031.68877 1.34048
3029.64033 1.33975
3027.59189 1.33978
3025.54345 1.33991
3023.49502 1.33929
3021.44658 1.33826
3019.39814 1.33744
3017.34970 1.33705
3015.30126 1.33683
3013.25282 1.33616
3011.20439 1.33529
3009.15595 1.33466
3007.10751 1.33424
3005.05907 1.33430
3003.01063 1.33467
3000.96219 1.33506
2998.91376 1.33540
2996.86532 1.33533
2994.81688 1.33503
2992.76844 1.33503
2990.72000 1.33521
2988.67156 1.33556
2986.62313 1.33636
2984.57469 1.33712
2982.52625 1.33774
2980.47781 1.33852
2978.42937 1.33901
2976.38093 1.33949
2974.33250 1.34068
2972.28406 1.34242
2970.23562 1.34412
2968.18718 1.34550
2966.13874 1.34681
2964.09030 1.34791
2962.04187 1.34844
2959.99343 1.34834
2957.94499 1.34770
2955.89655 1.34676
2953.84811 1.34548
2951.79967 1.34386
2949.75124 1.34246
2947.70280 1.34175
2945.65436 1.34199
2943.60592 1.34306
2941.55748 1.34436
2939.50904 1.34576
2937.46061 1.34757
2935.41217 1.34991
2933.36373 1.35238
2931.31529 1.35412
2929.26685 1.35484
2927.21841 1.35500
2925.16998 1.35471
2923.12154 1.35361
2921.07310 1.35164
2919.02466 1.34926
2916.97622 1.34694
2914.92778 1.34411
2912.87934 1.34024
2910.83091 1.33646
2908.78247 1.33337
2906.73403 1.33011
2904.68559 1.32641
2902.63715 1.32312
2900.58871 1.32057
2898.54028 1.31816
2896.49184 1.31574
2894.44340 1.31351
2892.39496 1.31142
2890.34652 1.30929
2888.29808 1.30719
2886.24965 1.30555
2884.20121 1.30455
2882.15277 1.30388
2880.10433 1.30343
2878.05589 1.30358
2876.00745 1.30446
2873.95902 1.30526
2871.91058 1.30514
2869.86214 1.30459
2867.81370 1.30403
2865.76526 1.30319
2863.71682 1.30220
2861.66839 1.30172
2859.61995 1.30221
2857.57151 1.30298
2855.52307 1.30292
2853.47463 1.30197
2851.42619 1.30041
2849.37776 1.29814
2847.32932 1.29533
2845.28088 1.29233
2843.23244 1.28922
2841.18400 1.28606
2839.13556 1.28304
2837.08713 1.28010
2835.03869 1.27728
2832.99025 1.27479
2830.94181 1.27266
2828.89337 1.27079
2826.84493 1.26923
2824.79650 1.26798
2822.74806 1.26667
2820.69962 1.26517
2818.65118 1.26370
2816.60274 1.26233
2814.55430 1.26087
2812.50587 1.25905
2810.45743 1.25711
2808.40899 1.25546
2806.36055 1.25427
2804.31211 1.25358
2802.26367 1.25285
2800.21524 1.25189
2798.16680 1.25118
2796.11836 1.25058
2794.06992 1.24975
2792.02148 1.24891
2789.97304 1.24808
2787.92461 1.24700
2785.87617 1.24572
2783.82773 1.24446
2781.77929 1.24347
2779.73085 1.24279
2777.68241 1.24213
2775.63397 1.24123
2773.58554 1.23995
2771.53710 1.23858
2769.48866 1.23770
2767.44022 1.23734
2765.39178 1.23708
2763.34334 1.23668
2761.29491 1.23607
2759.24647 1.23534
2757.19803 1.23451
2755.14959 1.23349
2753.10115 1.23271
2751.05271 1.23226
2749.00428 1.23163
2746.95584 1.23098
2744.90740 1.23056
2742.85896 1.23016
2740.81052 1.22957
2738.76208 1.22872
2736.71365 1.22803
2734.66521 1.22757
2732.61677 1.22709
2730.56833 1.22680
2728.51989 1.22662
2726.47145 1.22650
2724.42302 1.22633
2722.37458 1.22594
2720.32614 1.22581
2718.27770 1.22611
2716.22926 1.22630
2714.18082 1.22594
2712.13239 1.22527
2710.08395 1.22473
2708.03551 1.22437
2705.98707 1.22430
2703.93863 1.22416
2701.89019 1.22334
2699.84176 1.22230
2697.79332 1.22141
2695.74488 1.22031
2693.69644 1.21919
2691.64800 1.21824
2689.59956 1.21747
2687.55113 1.21702
2685.50269 1.21669
2683.45425 1.21623
2681.40581 1.21596
2679.35737 1.21587
2677.30893 1.21531
2675.26050 1.21433
2673.21206 1.21380
2671.16362 1.21395
2669.11518 1.21413
2667.06674 1.21401
2665.01830 1.21383
2662.96987 1.21370
2660.92143 1.21365
2658.87299 1.21366
2656.82455 1.21358
2654.77611 1.21357
2652.72767 1.21352
2650.67924 1.21316
2648.63080 1.21292
2646.58236 1.21321
2644.53392 1.21369
2642.48548 1.21382
2640.43704 1.21320
2638.38860 1.21194
2636.34017 1.21076
2634.29173 1.21006
2632.24329 1.20973
2630.19485 1.20936
2628.14641 1.20874
2626.09797 1.20820
2624.04954 1.20785
2622.00110 1.20747
2619.95266 1.20694
2617.90422 1.20628
2615.85578 1.20584
2613.80734 1.20564
2611.75891 1.20543
2609.71047 1.20518
2607.66203 1.20523
2605.61359 1.20591
2603.56515 1.20703
2601.51671 1.20808
2599.46828 1.20815
2597.41984 1.20668
2595.37140 1.20481
2593.32296 1.20383
2591.27452 1.20363
2589.22608 1.20397
2587.17765 1.20468
2585.12921 1.20524
2583.08077 1.20558
2581.03233 1.20563
2578.98389 1.20522
2576.93545 1.20471
2574.88702 1.20447
2572.83858 1.20451
2570.79014 1.20456
2568.74170 1.20435
2566.69326 1.20397
2564.64482 1.20356
2562.59639 1.20325
2560.54795 1.20327
2558.49951 1.20332
2556.45107 1.20305
2554.40263 1.20262
2552.35419 1.20218
2550.30576 1.20182
2548.25732 1.20146
2546.20888 1.20064
2544.16044 1.19959
2542.11200 1.19899
2540.06356 1.19898
2538.01513 1.19918
2535.96669 1.19910
2533.91825 1.19890
2531.86981 1.19887
2529.82137 1.19872
2527.77293 1.19845
2525.72450 1.19816
2523.67606 1.19778
2521.62762 1.19783
2519.57918 1.19833
2517.53074 1.19870
2515.48230 1.19906
2513.43387 1.19961
2511.38543 1.19983
2509.33699 1.19960
2507.28855 1.19961
2505.24011 1.20008
2503.19167 1.20052
2501.14324 1.20056
2499.09480 1.20058
2497.04636 1.20080
2494.99792 1.20090
2492.94948 1.20078
2490.90104 1.20061
2488.85260 1.20040
2486.80417 1.20010
2484.75573 1.19983
2482.70729 1.19956
2480.65885 1.19897
2478.61041 1.19816
2476.56197 1.19737
2474.51354 1.19639
2472.46510 1.19538
2470.41666 1.19465
2468.36822 1.19434
2466.31978 1.19468
2464.27134 1.19531
2462.22291 1.19588
2460.17447 1.19654
2458.12603 1.19685
2456.07759 1.19663
2454.02915 1.19646
2451.98071 1.19618
2449.93228 1.19568
2447.88384 1.19574
2445.83540 1.19621
2443.78696 1.19625
2441.73852 1.19585
2439.69008 1.19557
2437.64165 1.19576
2435.59321 1.19634
2433.54477 1.19715
2431.49633 1.19789
2429.44789 1.19818
2427.39945 1.19829
2425.35102 1.19862
2423.30258 1.19941
2421.25414 1.20054
2419.20570 1.20135
2417.15726 1.20152
2415.10882 1.20141
2413.06039 1.20148
2411.01195 1.20170
2408.96351 1.20187
2406.91507 1.20214
2404.86663 1.20251
2402.81819 1.20311
2400.76976 1.20377
2398.72132 1.20393
2396.67288 1.20401
2394.62444 1.20450
2392.57600 1.20505
2390.52756 1.20533
2388.47913 1.20527
2386.43069 1.20532
2384.38225 1.20618
2382.33381 1.20744
2380.28537 1.20799
2378.23693 1.20767
2376.18850 1.20739
2374.14006 1.20781
2372.09162 1.20849
2370.04318 1.20911
2367.99474 1.21026
2365.94630 1.21185
2363.89787 1.21316
2361.84943 1.21474
2359.80099 1.21734
2357.75255 1.22034
2355.70411 1.22300
2353.65567 1.22515
2351.60723 1.22674
2349.55880 1.22742
2347.51036 1.22886
2345.46192 1.23433
2343.41348 1.24371
2341.36504 1.25318
2339.31660 1.26345
2337.26817 1.27602
2335.21973 1.28731
2333.17129 1.29119
2331.12285 1.28519
2329.07441 1.27304
2327.02597 1.26058
2324.97754 1.24983
2322.92910 1.24096
2320.88066 1.23446
2318.83222 1.22989
2316.78378 1.22620
2314.73534 1.22325
2312.68691 1.22150
2310.63847 1.22029
2308.59003 1.21864
2306.54159 1.21704
2304.49315 1.21596
2302.44471 1.21495
2300.39628 1.21400
2298.34784 1.21372
2296.29940 1.21375
2294.25096 1.21331
2292.20252 1.21272
2290.15408 1.21284
2288.10565 1.21366
2286.05721 1.21459
2284.00877 1.21543
2281.96033 1.21617
2279.91189 1.21693
2277.86345 1.21792
2275.81502 1.21885
2273.76658 1.21954
2271.71814 1.22041
2269.66970 1.22166
2267.62126 1.22295
2265.57282 1.22400
2263.52439 1.22463
2261.47595 1.22499
2259.42751 1.22550
2257.37907 1.22651
2255.33063 1.22804
2253.28219 1.22957
2251.23376 1.23077
2249.18532 1.23196
2247.13688 1.23350
2245.08844 1.23523
2243.04000 1.23668
2240.99156 1.23755
2238.94313 1.23798
2236.89469 1.23828
2234.84625 1.23820
2232.79781 1.23761
2230.74937 1.23716
2228.70093 1.23690
2226.65250 1.23667
2224.60406 1.23687
2222.55562 1.23709
2220.50718 1.23653
2218.45874 1.23547
2216.41030 1.23463
2214.36186 1.23438
2212.31343 1.23443
2210.26499 1.23413
2208.21655 1.23343
2206.16811 1.23298
2204.11967 1.23279
2202.07123 1.23254
2200.02280 1.23223
2197.97436 1.23151
2195.92592 1.23046
2193.87748 1.22996
2191.82904 1.23018
2189.78060 1.23073
2187.73217 1.23137
2185.68373 1.23181
2183.63529 1.23196
2181.58685 1.23231
2179.53841 1.23302
2177.48997 1.23374
2175.44154 1.23427
2173.39310 1.23443
2171.34466 1.23465
2169.29622 1.23569
2167.24778 1.23730
2165.19934 1.23902
2163.15091 1.24103
2161.10247 1.24324
2159.05403 1.24532
2157.00559 1.24719
2154.95715 1.24894
2152.90871 1.25126
2150.86028 1.25453
2148.81184 1.25737
2146.76340 1.25883
2144.71496 1.25989
2142.66652 1.26144
2140.61808 1.26322
2138.56965 1.26468
2136.52121 1.26563
2134.47277 1.26623
2132.42433 1.26618
2130.37589 1.26503
2128.32745 1.26334
2126.27902 1.26216
2124.23058 1.26182
2122.18214 1.26190
2120.13370 1.26230
2118.08526 1.26318
2116.03682 1.26391
2113.98839 1.26396
2111.93995 1.26397
2109.89151 1.26450
2107.84307 1.26523
2105.79463 1.26597
2103.74619 1.26695
2101.69776 1.26827
2099.64932 1.26993
2097.60088 1.27185
2095.55244 1.27396
2093.50400 1.27596
2091.45556 1.27729
2089.40713 1.27778
2087.35869 1.27799
2085.31025 1.27876
2083.26181 1.28010
2081.21337 1.28149
2079.16493 1.28251
2077.11649 1.28265
2075.06806 1.28280
2073.01962 1.28411
2070.97118 1.28578
2068.92274 1.28695
2066.87430 1.28809
2064.82586 1.28946
2062.77743 1.29126
2060.72899 1.29390
2058.68055 1.29689
2056.63211 1.29982
2054.58367 1.30299
2052.53523 1.30642
2050.48680 1.31007
2048.43836 1.31444
2046.38992 1.32002
2044.34148 1.32678
2042.29304 1.33407
2040.24460 1.34098
2038.19617 1.34813
2036.14773 1.35653
2034.09929 1.36460
2032.05085 1.37043
2030.00241 1.37455
2027.95397 1.37807
2025.90554 1.38094
2023.85710 1.38264
2021.80866 1.38409
2019.76022 1.38738
2017.71178 1.39328
2015.66334 1.40005
2013.61491 1.40630
2011.56647 1.41279
2009.51803 1.41999
2007.46959 1.42651
2005.42115 1.43106
2003.37271 1.43469
2001.32428 1.43862
1999.27584 1.44201
1997.22740 1.44386
1995.17896 1.44479
1993.13052 1.44581
1991.08208 1.44592
1989.03365 1.44472
1986.98521 1.44418
1984.93677 1.44471
1982.88833 1.44563
1980.83989 1.44693
1978.79145 1.44789
1976.74302 1.44790
1974.69458 1.44710
1972.64614 1.44561
1970.59770 1.44354
1968.54926 1.44110
1966.50082 1.43867
1964.45239 1.43647
1962.40395 1.43420
1960.35551 1.43185
1958.30707 1.42996
1956.25863 1.42897
1954.21019 1.42965
1952.16176 1.43234
1950.11332 1.43546
1948.06488 1.43735
1946.01644 1.43764
1943.96800 1.43703
1941.91956 1.43608
1939.87112 1.43461
1937.82269 1.43316
1935.77425 1.43283
1933.72581 1.43365
1931.67737 1.43471
1929.62893 1.43542
1927.58049 1.43556
1925.53206 1.43553
1923.48362 1.43656
1921.43518 1.43874
1919.38674 1.44199
1917.33830 1.44751
1915.28986 1.45479
1913.24143 1.46321
1911.19299 1.47296
1909.14455 1.48374
1907.09611 1.49444
1905.04767 1.50388
1902.99923 1.51226
1900.95080 1.51967
1898.90236 1.52608
1896.85392 1.53224
1894.80548 1.53903
1892.75704 1.54629
1890.70860 1.55420
1888.66017 1.56132
1886.61173 1.56537
1884.56329 1.56781
1882.51485 1.56990
1880.46641 1.57187
1878.41797 1.57359
1876.36954 1.57462
1874.32110 1.57516
1872.27266 1.57559
1870.22422 1.57532
1868.17578 1.57297
1866.12734 1.56877
1864.07891 1.56403
1862.03047 1.55826
1859.98203 1.55070
1857.93359 1.54097
1855.88515 1.52919
1853.83671 1.51664
1851.78828 1.50462
1849.73984 1.49396
1847.69140 1.48499
1845.64296 1.47726
1843.59452 1.47007
1841.54608 1.46459
1839.49765 1.46114
1837.44921 1.45896
1835.40077 1.45778
1833.35233 1.45775
1831.30389 1.45991
1829.25545 1.46423
1827.20702 1.46709
1825.15858 1.46889
1823.11014 1.47160
1821.06170 1.47484
1819.01326 1.47791
1816.96482 1.48040
1814.91639 1.48257
1812.86795 1.48530
1810.81951 1.48954
1808.77107 1.49396
1806.72263 1.49675
1804.67419 1.49841
1802.62575 1.50005
1800.57732 1.50224
1798.52888 1.50443
1796.48044 1.50609
1794.43200 1.50763
1792.38356 1.50923
1790.33512 1.50949
1788.28669 1.50750
1786.23825 1.50432
1784.18981 1.50103
1782.14137 1.49802
1780.09293 1.49572
1778.04449 1.49403
1775.99606 1.49168
1773.94762 1.48756
1771.89918 1.48057
1769.85074 1.47272
1767.80230 1.46550
1765.75386 1.45882
1763.70543 1.45331
1761.65699 1.44855
1759.60855 1.44486
1757.56011 1.44257
1755.51167 1.44115
1753.46323 1.44034
1751.41480 1.44091
1749.36636 1.44273
1747.31792 1.44374
1745.26948 1.44398
1743.22104 1.44417
1741.17260 1.44485
1739.12417 1.44631
1737.07573 1.44729
1735.02729 1.44846
1732.97885 1.45159
1730.93041 1.45384
1728.88197 1.45564
1726.83354 1.45817
1724.78510 1.46171
1722.73666 1.46531
1720.68822 1.46742
1718.63978 1.47098
1716.59134 1.48060
1714.54291 1.48801
1712.49447 1.49026
1710.44603 1.49198
1708.39759 1.49459
1706.34915 1.49837
1704.30071 1.50109
1702.25228 1.50169
1700.20384 1.50563
1698.15540 1.51273
1696.10696 1.51758
1694.05852 1.52159
1692.01008 1.52558
1689.96165 1.53155
1687.91321 1.53730
1685.86477 1.54041
1683.81633 1.54404
1681.76789 1.54517
1679.71945 1.54270
1677.67102 1.53924
1675.62258 1.53567
1673.57414 1.53264
1671.52570 1.52990
1669.47726 1.52627
1667.42882 1.52204
1665.38038 1.51875
1663.33195 1.51757
1661.28351 1.51815
1659.23507 1.51873
1657.18663 1.51892
1655.13819 1.51847
1653.08975 1.52047
1651.04132 1.52416
1648.99288 1.52543
1646.94444 1.52761
1644.89600 1.52859
1642.84756 1.52756
1640.79912 1.52711
1638.75069 1.52737
1636.70225 1.53019
1634.65381 1.53782
1632.60537 1.54303
1630.55693 1.54635
1628.50849 1.55082
1626.46006 1.55610
1624.41162 1.56238
1622.36318 1.57066
1620.31474 1.57654
1618.26630 1.58084
1616.21786 1.58650
1614.16943 1.58879
1612.12099 1.58784
1610.07255 1.58711
1608.02411 1.58684
1605.97567 1.58572
1603.92723 1.58364
1601.87880 1.58036
1599.83036 1.57548
1597.78192 1.56950
1595.73348 1.56278
1593.68504 1.55511
1591.63660 1.54727
1589.58817 1.53983
1587.53973 1.53310
1585.49129 1.52662
1583.44285 1.51922
1581.39441 1.51088
1579.34597 1.50273
1577.29754 1.49429
1575.24910 1.48618
1573.20066 1.48121
1571.15222 1.47634
1569.10378 1.46933
1567.05534 1.46230
1565.00691 1.45589
1562.95847 1.44965
1560.91003 1.44394
1558.86159 1.44113
1556.81315 1.44399
1554.76471 1.44419
1552.71628 1.44363
1550.66784 1.44503
1548.61940 1.44745
1546.57096 1.44881
1544.52252 1.44970
1542.47408 1.45145
1540.42565 1.45863
1538.37721 1.46786
1536.32877 1.47190
1534.28033 1.47868
1532.23189 1.48950
1530.18345 1.49566
1528.13501 1.49885
1526.08658 1.50192
1524.03814 1.50311
1521.98970 1.50226
1519.94126 1.50029
1517.89282 1.49808
1515.84438 1.49613
1513.79595 1.49457
1511.74751 1.49291
1509.69907 1.49091
1507.65063 1.48971
1505.60219 1.49080
1503.55375 1.49102
1501.50532 1.49158
1499.45688 1.49366
1497.40844 1.49643
1495.36000 1.49767
1493.31156 1.49753
1491.26312 1.49807
1489.21469 1.49970
1487.16625 1.49910
1485.11781 1.49678
1483.06937 1.49554
1481.02093 1.49592
1478.97249 1.49628
1476.92406 1.49565
1474.87562 1.49485
1472.82718 1.49479
1470.77874 1.49462
1468.73030 1.49403
1466.68186 1.49414
1464.63343 1.49512
1462.58499 1.49547
1460.53655 1.49546
1458.48811 1.49715
1456.43967 1.50201
1454.39123 1.50399
1452.34280 1.50320
1450.29436 1.50227
1448.24592 1.50300
1446.19748 1.50494
1444.14904 1.50593
1442.10060 1.50609
1440.05217 1.50591
1438.00373 1.50587
1435.95529 1.50633
1433.90685 1.50593
1431.85841 1.50546
1429.80997 1.50553
1427.76154 1.50450
1425.71310 1.50316
1423.66466 1.50330
1421.61622 1.50447
1419.56778 1.50673
1417.51934 1.50887
1415.47091 1.50853
1413.42247 1.50710
1411.37403 1.50536
1409.32559 1.50362
1407.27715 1.50210
1405.22871 1.50111
1403.18028 1.50065
1401.13184 1.50003
1399.08340 1.49890
1397.03496 1.49744
1394.98652 1.49528
1392.93808 1.49221
1390.88965 1.48968
1388.84121 1.48807
1386.79277 1.48631
1384.74433 1.48430
1382.69589 1.48350
1380.64745 1.48386
1378.59901 1.48374
1376.55058 1.48266
1374.50214 1.48182
1372.45370 1.48183
1370.40526 1.48159
1368.35682 1.47980
1366.30838 1.47762
1364.25995 1.47780
1362.21151 1.47973
1360.16307 1.48036
1358.11463 1.48036
1356.06619 1.48057
1354.01775 1.47983
1351.96932 1.47767
1349.92088 1.47521
1347.87244 1.47429
1345.82400 1.47584
1343.77556 1.47846
1341.72712 1.48074
1339.67869 1.48288
1337.63025 1.48498
1335.58181 1.48663
1333.53337 1.48764
1331.48493 1.48847
1329.43649 1.48931
1327.38806 1.48924
1325.33962 1.48868
1323.29118 1.48925
1321.24274 1.49091
1319.19430 1.49233
1317.14586 1.49331
1315.09743 1.49476
1313.04899 1.49670
1311.00055 1.49755
1308.95211 1.49658
1306.90367 1.49518
1304.85523 1.49519
1302.80680 1.49767
1300.75836 1.50129
1298.70992 1.50427
1296.66148 1.50656
1294.61304 1.50892
1292.56460 1.51277
1290.51617 1.51830
1288.46773 1.52408
1286.41929 1.52953
1284.37085 1.53416
1282.32241 1.53675
1280.27397 1.53774
1278.22554 1.53890
1276.17710 1.54025
1274.12866 1.54019
1272.08022 1.53733
1270.03178 1.53198
1267.98334 1.52541
1265.93491 1.51772
1263.88647 1.50943
1261.83803 1.50193
1259.78959 1.49514
1257.74115 1.48853
1255.69271 1.48322
1253.64428 1.48005
1251.59584 1.47703
1249.54740 1.47176
1247.49896 1.46479
1245.45052 1.45827
1243.40208 1.45169
1241.35364 1.44219
1239.30521 1.42904
1237.25677 1.41400
1235.20833 1.39901
1233.15989 1.38582
1231.11145 1.37534
1229.06301 1.36671
1227.01458 1.35924
1224.96614 1.35455
1222.91770 1.35384
1220.86926 1.35547
1218.82082 1.35752
1216.77238 1.35992
1214.72395 1.36313
1212.67551 1.36694
1210.62707 1.37089
1208.57863 1.37472
1206.53019 1.37846
1204.48175 1.38251
1202.43332 1.38695
1200.38488 1.39129
1198.33644 1.39600
1196.28800 1.40248
1194.23956 1.41077
1192.19112 1.41929
1190.14269 1.42654
1188.09425 1.43210
1186.04581 1.43661
1183.99737 1.44052
1181.94893 1.44420
1179.90049 1.44858
1177.85206 1.45378
1175.80362 1.45900
1173.75518 1.46408
1171.70674 1.47014
1169.65830 1.47856
1167.60986 1.49013
1165.56143 1.50597
1163.51299 1.52604
1161.46455 1.54515
1159.41611 1.55350
1157.36767 1.54617
1155.31923 1.53009
1153.27080 1.51568
1151.22236 1.50720
1149.17392 1.50350
1147.12548 1.50209
1145.07704 1.50135
1143.02860 1.50094
1140.98017 1.50105
1138.93173 1.50172
1136.88329 1.50235
1134.83485 1.50254
1132.78641 1.50298
1130.73797 1.50435
1128.68954 1.50647
1126.64110 1.50919
1124.59266 1.51299
1122.54422 1.51840
1120.49578 1.52541
1118.44734 1.53365
1116.39891 1.54254
1114.35047 1.55022
1112.30203 1.55316
1110.25359 1.54977
1108.20515 1.54294
1106.15671 1.53640
1104.10827 1.53145
1102.05984 1.52784
1100.01140 1.52546
1097.96296 1.52438
1095.91452 1.52352
1093.86608 1.52196
1091.81764 1.51998
1089.76921 1.51709
1087.72077 1.51243
1085.67233 1.50690
1083.62389 1.50147
1081.57545 1.49621
1079.52701 1.49140
1077.47858 1.48746
1075.43014 1.48518
1073.38170 1.48575
1071.33326 1.48999
1069.28482 1.49796
1067.23638 1.50891
1065.18795 1.52194
1063.13951 1.53547
1061.09107 1.54760
1059.04263 1.55785
1056.99419 1.56592
1054.94575 1.57188
1052.89732 1.57684
1050.84888 1.58153
1048.80044 1.58654
1046.75200 1.59167
1044.70356 1.59658
1042.65512 1.60136
1040.60669 1.60664
1038.55825 1.61335
1036.50981 1.62052
1034.46137 1.62812
1032.41293 1.63853
1030.36449 1.65210
1028.31606 1.66717
1026.26762 1.68197
1024.21918 1.69372
1022.17074 1.70082
1020.12230 1.70385
1018.07386 1.70376
1016.02543 1.70211
1013.97699 1.70071
1011.92855 1.70026
1009.88011 1.70120
1007.83167 1.70543
1005.78323 1.71487
1003.73480 1.72789
1001.68636 1.74041
999.63792 1.75114
997.58948 1.76126
995.54104 1.77052
993.49260 1.77851
991.44417 1.78589
989.39573 1.79334
987.34729 1.80137
985.29885 1.80932
983.25041 1.81530
981.20197 1.81953
979.15354 1.82455
977.10510 1.83107
975.05666 1.83771
973.00822 1.84344
970.95978 1.84713
968.91134 1.84929
966.86290 1.85198
964.81447 1.85485
962.76603 1.85681
960.71759 1.85964
958.66915 1.86580
956.62071 1.87404
954.57227 1.88129
952.52384 1.88730
950.47540 1.89267
948.42696 1.89668
946.37852 1.89947
944.33008 1.90171
942.28164 1.90273
940.23321 1.90208
938.18477 1.89967
936.13633 1.89622
934.08789 1.89386
932.03945 1.89399
929.99101 1.89573
927.94258 1.89657
925.89414 1.89670
923.84570 1.89821
921.79726 1.89950
919.74882 1.89858
917.70038 1.89812
915.65195 1.89967
913.60351 1.90038
911.55507 1.89962
909.50663 1.89903
907.45819 1.89814
905.40975 1.89703
903.36132 1.89680
901.31288 1.89659
899.26444 1.89500
897.21600 1.89333
895.16756 1.89384
893.11912 1.89615
891.07069 1.89920
889.02225 1.90142
886.97381 1.90322
884.92537 1.90759
882.87693 1.91284
880.82849 1.91539
878.78006 1.91491
876.73162 1.91220
874.68318 1.90738
872.63474 1.90013
870.58630 1.89116
868.53786 1.88220
866.48943 1.87379
864.44099 1.86784
862.39255 1.86708
860.34411 1.86944
858.29567 1.87301
856.24723 1.87759
854.19880 1.88097
852.15036 1.88306
850.10192 1.88593
848.05348 1.88983
846.00504 1.89333
843.95660 1.89519
841.90817 1.89670
839.85973 1.89950
837.81129 1.90315
835.76285 1.90788
833.71441 1.91281
831.66597 1.91597
829.61753 1.91897
827.56910 1.92343
825.52066 1.92856
823.47222 1.93433
821.42378 1.93998
819.37534 1.94343
817.32690 1.94444
815.27847 1.94520
813.23003 1.94821
811.18159 1.95131
809.13315 1.94607
807.08471 1.92821
805.03627 1.90614
802.98784 1.89164
800.93940 1.88885
798.89096 1.89405
796.84252 1.90134
794.79408 1.90899
792.74564 1.91886
790.69721 1.92635
788.64877 1.92162
786.60033 1.90466
784.55189 1.88332
782.50345 1.86351
780.45501 1.85302
778.40658 1.85726
776.35814 1.87166
774.30970 1.88965
772.26126 1.90365
770.21282 1.90860
768.16438 1.91238
766.11595 1.91976
764.06751 1.92492
762.01907 1.92585
759.97063 1.92572
757.92219 1.92670
755.87375 1.92839
753.82532 1.92838
751.77688 1.92426
749.72844 1.91561
747.68000 1.90676
745.63156 1.90082
743.58312 1.89708
741.53469 1.89682
739.48625 1.89913
737.43781 1.89992
735.38937 1.89754
733.34093 1.89527
731.29249 1.89917
729.24406 1.90835
727.19562 1.91453
725.14718 1.91509
723.09874 1.91417
721.05030 1.91494
719.00186 1.91849
716.95343 1.92271
714.90499 1.92656
712.85655 1.93481
710.80811 1.95058
708.75967 1.96793
706.71123 1.97876
704.66280 1.98622
702.61436 1.99396
700.56592 1.99548
698.51748 1.99244
696.46904 1.99076
694.42060 1.98976
692.37216 1.98814
690.32373 1.98026
688.27529 1.96550
686.22685 1.95771
684.17841 1.95862
682.12997 1.95294
680.08153 1.94124
678.03310 1.93663
675.98466 1.93722
673.93622 1.93338
671.88778 1.93201
669.83934 1.94192
667.79090 1.94648
665.74247 1.93414
663.69403 1.92632
661.64559 1.92017
659.59715 1.90992
657.54871 1.90257
655.50027 1.90211
653.45184 1.91079
651.40340 1.92417
649.35496 1.93882
647.30652 1.96193
645.25808 1.97716
643.20964 1.96343
641.16121 1.93825
639.11277 1.92655
637.06433 1.91913
635.01589 1.90338
632.96745 1.89754
630.91901 1.91086
628.87058 1.92799
626.82214 1.92437
624.77370 1.89521
622.72526 1.87646
620.67682 1.86653
618.62838 1.82196
616.57995 1.76917
614.53151 1.75350
612.48307 1.76959
610.43463 1.78932
608.38619 1.79064
606.33775 1.77919
604.28932 1.78068
602.24088 1.79433
600.19244 1.79198
598.14400 1.77977
