3996.50324 1.08365
3994.45480 1.08369
3992.40636 1.08392
3990.35792 1.08405
3988.30948 1.08424
3986.26104 1.08409
3984.21261 1.08345
3982.16417 1.08319
3980.11573 1.08346
3978.06729 1.08359
3976.01885 1.08334
3973.97041 1.08309
3971.92198 1.08304
3969.87354 1.08316
3967.82510 1.08332
3965.77666 1.08325
3963.72822 1.08280
3961.67978 1.08248
3959.63135 1.08297
3957.58291 1.08412
3955.53447 1.08490
3953.48603 1.08454
3951.43759 1.08382
3949.38915 1.08380
3947.34072 1.08426
3945.29228 1.08415
3943.24384 1.08419
3941.19540 1.08524
3939.14696 1.08573
3937.09852 1.08513
3935.05009 1.08432
3933.00165 1.08431
3930.95321 1.08536
3928.90477 1.08604
3926.85633 1.08592
3924.80789 1.08621
3922.75946 1.08673
3920.71102 1.08622
3918.66258 1.08550
3916.61414 1.08597
3914.56570 1.08685
3912.51726 1.08692
3910.46883 1.08665
3908.42039 1.08585
3906.37195 1.08409
3904.32351 1.08315
3902.27507 1.08449
3900.22663 1.08650
3898.17820 1.08823
3896.12976 1.08829
3894.08132 1.08692
3892.03288 1.08703
3889.98444 1.08807
3887.93600 1.08646
3885.88756 1.08512
3883.83913 1.08595
3881.79069 1.08632
3879.74225 1.08795
3877.69381 1.08864
3875.64537 1.08680
3873.59693 1.08519
3871.54850 1.08471
3869.50006 1.08653
3867.45162 1.08785
3865.40318 1.08666
3863.35474 1.08707
3861.30630 1.08860
3859.25787 1.08786
3857.20943 1.08484
3855.16099 1.08140
3853.11255 1.08496
3851.06411 1.09103
3849.01567 1.09097
3846.96724 1.08907
3844.91880 1.08758
3842.87036 1.08689
3840.82192 1.08595
3838.77348 1.08579
3836.72504 1.08823
3834.67661 1.08990
3832.62817 1.08990
3830.57973 1.08955
3828.53129 1.08892
3826.48285 1.08854
3824.43441 1.08764
3822.38598 1.08625
3820.33754 1.08843
3818.28910 1.09054
3816.24066 1.09133
3814.19222 1.09295
3812.14378 1.09267
3810.09535 1.09054
3808.04691 1.08909
3805.99847 1.09047
3803.95003 1.09070
3801.90159 1.09044
3799.85315 1.09314
3797.80472 1.09458
3795.75628 1.09559
3793.70784 1.09656
3791.65940 1.09635
3789.61096 1.09615
3787.56252 1.09621
3785.51409 1.09652
3783.46565 1.09709
3781.41721 1.09694
3779.36877 1.09728
3777.32033 1.09898
3775.27189 1.09971
3773.22346 1.09891
3771.17502 1.09809
3769.12658 1.09942
3767.07814 1.10170
3765.02970 1.10310
3762.98126 1.10356
3760.93283 1.10374
3758.88439 1.10603
3756.83595 1.10862
3754.78751 1.10852
3752.73907 1.10687
3750.69063 1.10845
3748.64219 1.11305
3746.59376 1.11461
3744.54532 1.11832
3742.49688 1.12444
3740.44844 1.12644
3738.40000 1.12611
3736.35156 1.12743
3734.30313 1.13342
3732.25469 1.14105
3730.20625 1.14636
3728.15781 1.15081
3726.10937 1.15740
3724.06093 1.16654
3722.01250 1.17780
3719.96406 1.19172
3717.91562 1.20729
3715.86718 1.22265
3713.81874 1.23947
3711.77030 1.26796
3709.72187 1.30891
3707.67343 1.34564
3705.62499 1.37960
3703.57655 1.41796
3701.52811 1.46183
3699.47967 1.49221
3697.43124 1.49830
3695.38280 1.48788
3693.33436 1.46876
3691.28592 1.44162
3689.23748 1.40588
3687.18904 1.37877
3685.14061 1.36478
3683.09217 1.35475
3681.04373 1.34799
3678.99529 1.34532
3676.94685 1.34749
3674.89841 1.36049
3672.84998 1.37335
3670.80154 1.37814
3668.75310 1.37835
3666.70466 1.37602
3664.65622 1.37291
3662.60778 1.37261
3660.55935 1.37725
3658.51091 1.38494
3656.46247 1.39341
3654.41403 1.39990
3652.36559 1.40079
3650.31715 1.39231
3648.26872 1.37540
3646.22028 1.36566
3644.17184 1.36158
3642.12340 1.35873
3640.07496 1.35738
3638.02652 1.35827
3635.97809 1.36110
3633.92965 1.36513
3631.88121 1.36975
3629.83277 1.37883
3627.78433 1.39958
3625.73589 1.42341
3623.68746 1.44996
3621.63902 1.47657
3619.59058 1.47982
3617.54214 1.44928
3615.49370 1.41901
3613.44526 1.39866
3611.39682 1.38542
3609.34839 1.37669
3607.29995 1.37056
3605.25151 1.36664
3603.20307 1.36222
3601.15463 1.35685
3599.10619 1.35195
3597.05776 1.34747
3595.00932 1.34301
3592.96088 1.33847
3590.91244 1.33412
3588.86400 1.32944
3586.81556 1.32456
3584.76713 1.32096
3582.71869 1.31776
3580.67025 1.31388
3578.62181 1.30962
3576.57337 1.30563
3574.52493 1.30193
3572.47650 1.29882
3570.42806 1.29581
3568.37962 1.29204
3566.33118 1.28828
3564.28274 1.28655
3562.23430 1.28604
3560.18587 1.28571
3558.13743 1.28509
3556.08899 1.28403
3554.04055 1.28263
3551.99211 1.28150
3549.94367 1.28098
3547.89524 1.28043
3545.84680 1.28036
3543.79836 1.28088
3541.74992 1.28105
3539.70148 1.28074
3537.65304 1.28036
3535.60461 1.28004
3533.55617 1.27990
3531.50773 1.28002
3529.45929 1.28007
3527.41085 1.28033
3525.36241 1.28058
3523.31398 1.28064
3521.26554 1.28099
3519.21710 1.28161
3517.16866 1.28255
3515.12022 1.28353
3513.07178 1.28447
3511.02335 1.28546
3508.97491 1.28569
3506.92647 1.28509
3504.87803 1.28474
3502.82959 1.28569
3500.78115 1.28744
3498.73272 1.28847
3496.68428 1.28913
3494.63584 1.28996
3492.58740 1.29035
3490.53896 1.29011
3488.49052 1.29002
3486.44209 1.29026
3484.39365 1.29002
3482.34521 1.28949
3480.29677 1.28978
3478.24833 1.29108
3476.19989 1.29241
3474.15146 1.29302
3472.10302 1.29295
3470.05458 1.29315
3468.00614 1.29428
3465.95770 1.29525
3463.90926 1.29492
3461.86082 1.29451
3459.81239 1.29522
3457.76395 1.29625
3455.71551 1.29696
3453.66707 1.29780
3451.61863 1.29879
3449.57019 1.29937
3447.52176 1.29970
3445.47332 1.30040
3443.42488 1.30131
3441.37644 1.30192
3439.32800 1.30229
3437.27956 1.30270
3435.23113 1.30276
3433.18269 1.30244
3431.13425 1.30249
3429.08581 1.30307
3427.03737 1.30372
3424.98893 1.30428
3422.94050 1.30451
3420.89206 1.30443
3418.84362 1.30469
3416.79518 1.30514
3414.74674 1.30528
3412.69830 1.30544
3410.64987 1.30610
3408.60143 1.30665
3406.55299 1.30630
3404.50455 1.30554
3402.45611 1.30520
3400.40767 1.30513
3398.35924 1.30529
3396.31080 1.30575
3394.26236 1.30581
3392.21392 1.30576
3390.16548 1.30667
3388.11704 1.30788
3386.06861 1.30809
3384.02017 1.30781
3381.97173 1.30782
3379.92329 1.30779
3377.87485 1.30733
3375.82641 1.30628
3373.77798 1.30512
3371.72954 1.30401
3369.68110 1.30316
3367.63266 1.30301
3365.58422 1.30294
3363.53578 1.30225
3361.48735 1.30130
3359.43891 1.30105
3357.39047 1.30178
3355.34203 1.30286
3353.29359 1.30375
3351.24515 1.30432
3349.19672 1.30405
3347.14828 1.30298
3345.09984 1.30226
3343.05140 1.30238
3341.00296 1.30276
3338.95452 1.30283
3336.90609 1.30285
3334.85765 1.30311
3332.80921 1.30309
3330.76077 1.30274
3328.71233 1.30244
3326.66389 1.30211
3324.61545 1.30195
3322.56702 1.30199
3320.51858 1.30205
3318.47014 1.30222
3316.42170 1.30195
3314.37326 1.30106
3312.32482 1.30077
3310.27639 1.30127
3308.22795 1.30118
3306.17951 1.30036
3304.13107 1.29946
3302.08263 1.29853
3300.03419 1.29759
3297.98576 1.29674
3295.93732 1.29581
3293.88888 1.29469
3291.84044 1.29369
3289.79200 1.29337
3287.74356 1.29378
3285.69513 1.29423
3283.64669 1.29396
3281.59825 1.29286
3279.54981 1.29206
3277.50137 1.29203
3275.45293 1.29189
3273.40450 1.29144
3271.35606 1.29065
3269.30762 1.28907
3267.25918 1.28726
3265.21074 1.28629
3263.16230 1.28604
3261.11387 1.28571
3259.06543 1.28552
3257.01699 1.28547
3254.96855 1.28505
3252.92011 1.28410
3250.87167 1.28255
3248.82324 1.28073
3246.77480 1.27920
3244.72636 1.27814
3242.67792 1.27731
3240.62948 1.27654
3238.58104 1.27607
3236.53261 1.27584
3234.48417 1.27525
3232.43573 1.27468
3230.38729 1.27469
3228.33885 1.27446
3226.29041 1.27372
3224.24198 1.27339
3222.19354 1.27354
3220.14510 1.27380
3218.09666 1.27407
3216.04822 1.27409
3213.99978 1.27402
3211.95135 1.27399
3209.90291 1.27365
3207.85447 1.27313
3205.80603 1.27242
3203.75759 1.27136
3201.70915 1.27058
3199.66072 1.27032
3197.61228 1.26986
3195.56384 1.26910
3193.51540 1.26849
3191.46696 1.26797
3189.41852 1.26731
3187.37008 1.26630
3185.32165 1.26494
3183.27321 1.26353
3181.22477 1.26225
3179.17633 1.26118
3177.12789 1.26047
3175.07945 1.25981
3173.03102 1.25860
3170.98258 1.25695
3168.93414 1.25550
3166.88570 1.25443
3164.83726 1.25347
3162.78882 1.25229
3160.74039 1.25066
3158.69195 1.24896
3156.64351 1.24764
3154.59507 1.24623
3152.54663 1.24433
3150.49819 1.24280
3148.44976 1.24222
3146.40132 1.24175
3144.35288 1.24096
3142.30444 1.24036
3140.25600 1.24012
3138.20756 1.23996
3136.15913 1.23934
3134.11069 1.23821
3132.06225 1.23734
3130.01381 1.23683
3127.96537 1.23631
3125.91693 1.23596
3123.86850 1.23548
3121.82006 1.23460
3119.77162 1.23403
3117.72318 1.23382
3115.67474 1.23341
3113.62630 1.23289
3111.57787 1.23209
3109.52943 1.23069
3107.48099 1.22924
3105.43255 1.22849
3103.38411 1.22833
3101.33567 1.22836
3099.28724 1.22854
3097.23880 1.22875
3095.19036 1.22886
3093.14192 1.22870
3091.09348 1.22826
3089.04504 1.22794
3086.99661 1.22759
3084.94817 1.22709
3082.89973 1.22675
3080.85129 1.22612
3078.80285 1.22489
3076.75441 1.22369
3074.70598 1.22290
3072.65754 1.22220
3070.60910 1.22138
3068.56066 1.22096
3066.51222 1.22105
3064.46378 1.22082
3062.41535 1.22003
3060.36691 1.21930
3058.31847 1.21906
3056.27003 1.21935
3054.22159 1.21967
3052.17315 1.21927
3050.12471 1.21857
3048.07628 1.21808
3046.02784 1.21747
3043.97940 1.21673
3041.93096 1.21600
3039.88252 1.21536
3037.83408 1.21484
3035.78565 1.21442
3033.73721 1.21400
3031.68877 1.21332
3029.64033 1.21229
3027.59189 1.21130
3025.54345 1.21103
3023.49502 1.21122
3021.44658 1.21079
3019.39814 1.20996
3017.34970 1.20931
3015.30126 1.20848
3013.25282 1.20713
3011.20439 1.20557
3009.15595 1.20442
3007.10751 1.20388
3005.05907 1.20371
3003.01063 1.20362
3000.96219 1.20337
2998.91376 1.20304
2996.86532 1.20254
2994.81688 1.20182
2992.76844 1.20161
2990.72000 1.20229
2988.67156 1.20326
2986.62313 1.20404
2984.57469 1.20440
2982.52625 1.20451
2980.47781 1.20488
2978.42937 1.20552
2976.38093 1.20607
2974.33250 1.20674
2972.28406 1.20789
2970.23562 1.20903
2968.18718 1.20995
2966.13874 1.21088
2964.09030 1.21180
2962.04187 1.21265
2959.99343 1.21314
2957.94499 1.21308
2955.89655 1.21279
2953.84811 1.21246
2951.79967 1.21159
2949.75124 1.21015
2947.70280 1.20906
2945.65436 1.20899
2943.60592 1.20985
2941.55748 1.21111
2939.50904 1.21232
2937.46061 1.21352
2935.41217 1.21488
2933.36373 1.21655
2931.31529 1.21846
2929.26685 1.21990
2927.21841 1.22044
2925.16998 1.22026
2923.12154 1.21961
2921.07310 1.21859
2919.02466 1.21696
2916.97622 1.21460
2914.92778 1.21185
2912.87934 1.20918
2910.83091 1.20652
2908.78247 1.20349
2906.73403 1.20044
2904.68559 1.19778
2902.63715 1.19513
2900.58871 1.19267
2898.54028 1.19097
2896.49184 1.18991
2894.44340 1.18895
2892.39496 1.18787
2890.34652 1.18650
2888.29808 1.18490
2886.24965 1.18344
2884.20121 1.18238
2882.15277 1.18196
2880.10433 1.18204
2878.05589 1.18217
2876.00745 1.18223
2873.95902 1.18219
2871.91058 1.18188
2869.86214 1.18150
2867.81370 1.18131
2865.76526 1.18127
2863.71682 1.18132
2861.66839 1.18122
2859.61995 1.18095
2857.57151 1.18085
2855.52307 1.18107
2853.47463 1.18125
2851.42619 1.18060
2849.37776 1.17873
2847.32932 1.17613
2845.28088 1.17353
2843.23244 1.17106
2841.18400 1.16836
2839.13556 1.16548
2837.08713 1.16300
2835.03869 1.16123
2832.99025 1.15980
2830.94181 1.15828
2828.89337 1.15665
2826.84493 1.15488
2824.79650 1.15321
2822.74806 1.15162
2820.69962 1.14991
2818.65118 1.14850
2816.60274 1.14777
2814.55430 1.14740
2812.50587 1.14699
2810.45743 1.14655
2808.40899 1.14613
2806.36055 1.14569
2804.31211 1.14508
2802.26367 1.14421
2800.21524 1.14324
2798.16680 1.14243
2796.11836 1.14203
2794.06992 1.14172
2792.02148 1.14117
2789.97304 1.14056
2787.92461 1.14004
2785.87617 1.13974
2783.82773 1.13931
2781.77929 1.13815
2779.73085 1.13671
2777.68241 1.13578
2775.63397 1.13540
2773.58554 1.13535
2771.53710 1.13536
2769.48866 1.13496
2767.44022 1.13380
2765.39178 1.13209
2763.34334 1.13038
2761.29491 1.12911
2759.24647 1.12836
2757.19803 1.12790
2755.14959 1.12754
2753.10115 1.12731
2751.05271 1.12723
2749.00428 1.12756
2746.95584 1.12826
2744.90740 1.12845
2742.85896 1.12786
2740.81052 1.12714
2738.76208 1.12646
2736.71365 1.12568
2734.66521 1.12489
2732.61677 1.12436
2730.56833 1.12418
2728.51989 1.12436
2726.47145 1.12482
2724.42302 1.12505
2722.37458 1.12485
2720.32614 1.12457
2718.27770 1.12441
2716.22926 1.12436
2714.18082 1.12434
2712.13239 1.12451
2710.08395 1.12462
2708.03551 1.12413
2705.98707 1.12344
2703.93863 1.12311
2701.89019 1.12318
2699.84176 1.12327
2697.79332 1.12324
2695.74488 1.12336
2693.69644 1.12362
2691.64800 1.12381
2689.59956 1.12382
2687.55113 1.12365
2685.50269 1.12349
2683.45425 1.12331
2681.40581 1.12292
2679.35737 1.12250
2677.30893 1.12219
2675.26050 1.12194
2673.21206 1.12178
2671.16362 1.12155
2669.11518 1.12120
2667.06674 1.12098
2665.01830 1.12106
2662.96987 1.12113
2660.92143 1.12060
2658.87299 1.11964
2656.82455 1.11897
2654.77611 1.11864
2652.72767 1.11816
2650.67924 1.11736
2648.63080 1.11635
2646.58236 1.11523
2644.53392 1.11423
2642.48548 1.11375
2640.43704 1.11381
2638.38860 1.11387
2636.34017 1.11367
2634.29173 1.11351
2632.24329 1.11356
2630.19485 1.11373
2628.14641 1.11393
2626.09797 1.11401
2624.04954 1.11402
2622.00110 1.11403
2619.95266 1.11400
2617.90422 1.11379
2615.85578 1.11357
2613.80734 1.11381
2611.75891 1.11441
2609.71047 1.11487
2607.66203 1.11542
2605.61359 1.11642
2603.56515 1.11726
2601.51671 1.11745
2599.46828 1.11699
2597.41984 1.11633
2595.37140 1.11620
2593.32296 1.11641
2591.27452 1.11623
2589.22608 1.11562
2587.17765 1.11494
2585.12921 1.11412
2583.08077 1.11306
2581.03233 1.11213
2578.98389 1.11167
2576.93545 1.11181
2574.88702 1.11222
2572.83858 1.11235
2570.79014 1.11219
2568.74170 1.11208
2566.69326 1.11221
2564.64482 1.11237
2562.59639 1.11236
2560.54795 1.11235
2558.49951 1.11241
2556.45107 1.11255
2554.40263 1.11268
2552.35419 1.11274
2550.30576 1.11286
2548.25732 1.11318
2546.20888 1.11371
2544.16044 1.11419
2542.11200 1.11422
2540.06356 1.11380
2538.01513 1.11330
2535.96669 1.11317
2533.91825 1.11352
2531.86981 1.11382
2529.82137 1.11356
2527.77293 1.11311
2525.72450 1.11316
2523.67606 1.11373
2521.62762 1.11425
2519.57918 1.11440
2517.53074 1.11445
2515.48230 1.11457
2513.43387 1.11445
2511.38543 1.11429
2509.33699 1.11467
2507.28855 1.11530
2505.24011 1.11544
2503.19167 1.11488
2501.14324 1.11397
2499.09480 1.11322
2497.04636 1.11301
2494.99792 1.11335
2492.94948 1.11372
2490.90104 1.11362
2488.85260 1.11309
2486.80417 1.11249
2484.75573 1.11195
2482.70729 1.11159
2480.65885 1.11152
2478.61041 1.11147
2476.56197 1.11120
2474.51354 1.11095
2472.46510 1.11072
2470.41666 1.11006
2468.36822 1.10927
2466.31978 1.10895
2464.27134 1.10899
2462.22291 1.10907
2460.17447 1.10923
2458.12603 1.10971
2456.07759 1.11036
2454.02915 1.11104
2451.98071 1.11159
2449.93228 1.11201
2447.88384 1.11246
2445.83540 1.11258
2443.78696 1.11236
2441.73852 1.11216
2439.69008 1.11197
2437.64165 1.11197
2435.59321 1.11214
2433.54477 1.11231
2431.49633 1.11284
2429.44789 1.11354
2427.39945 1.11356
2425.35102 1.11303
2423.30258 1.11270
2421.25414 1.11254
2419.20570 1.11226
2417.15726 1.11178
2415.10882 1.11130
2413.06039 1.11114
2411.01195 1.11131
2408.96351 1.11163
2406.91507 1.11163
2404.86663 1.11102
2402.81819 1.11047
2400.76976 1.11088
2398.72132 1.11202
2396.67288 1.11317
2394.62444 1.11403
2392.57600 1.11476
2390.52756 1.11577
2388.47913 1.11688
2386.43069 1.11762
2384.38225 1.11800
2382.33381 1.11786
2380.28537 1.11714
2378.23693 1.11628
2376.18850 1.11547
2374.14006 1.11451
2372.09162 1.11304
2370.04318 1.11134
2367.99474 1.10994
2365.94630 1.10858
2363.89787 1.10774
2361.84943 1.10862
2359.80099 1.11071
2357.75255 1.11333
2355.70411 1.11680
2353.65567 1.12032
2351.60723 1.12287
2349.55880 1.12407
2347.51036 1.12441
2345.46192 1.12626
2343.41348 1.13163
2341.36504 1.13852
2339.31660 1.14614
2337.26817 1.15489
2335.21973 1.16156
2333.17129 1.16269
2331.12285 1.15836
2329.07441 1.15139
2327.02597 1.14453
2324.97754 1.13857
2322.92910 1.13388
2320.88066 1.13035
2318.83222 1.12740
2316.78378 1.12534
2314.73534 1.12444
2312.68691 1.12426
2310.63847 1.12419
2308.59003 1.12414
2306.54159 1.12431
2304.49315 1.12442
2302.44471 1.12434
2300.39628 1.12447
2298.34784 1.12518
2296.29940 1.12615
2294.25096 1.12679
2292.20252 1.12731
2290.15408 1.12843
2288.10565 1.12989
2286.05721 1.13110
2284.00877 1.13224
2281.96033 1.13356
2279.91189 1.13475
2277.86345 1.13554
2275.81502 1.13658
2273.76658 1.13803
2271.71814 1.13913
2269.66970 1.13989
2267.62126 1.14045
2265.57282 1.14062
2263.52439 1.14041
2261.47595 1.13995
2259.42751 1.13965
2257.37907 1.13965
2255.33063 1.13970
2253.28219 1.13996
2251.23376 1.14072
2249.18532 1.14164
2247.13688 1.14258
2245.08844 1.14408
2243.04000 1.14610
2240.99156 1.14816
2238.94313 1.15009
2236.89469 1.15153
2234.84625 1.15190
2232.79781 1.15116
2230.74937 1.15013
2228.70093 1.14924
2226.65250 1.14830
2224.60406 1.14760
2222.55562 1.14732
2220.50718 1.14695
2218.45874 1.14635
2216.41030 1.14566
2214.36186 1.14468
2212.31343 1.14366
2210.26499 1.14319
2208.21655 1.14288
2206.16811 1.14220
2204.11967 1.14183
2202.07123 1.14224
2200.02280 1.14291
2197.97436 1.14343
2195.92592 1.14382
2193.87748 1.14426
2191.82904 1.14474
2189.78060 1.14523
2187.73217 1.14625
2185.68373 1.14788
2183.63529 1.14950
2181.58685 1.15123
2179.53841 1.15319
2177.48997 1.15441
2175.44154 1.15428
2173.39310 1.15347
2171.34466 1.15297
2169.29622 1.15310
2167.24778 1.15398
2165.19934 1.15564
2163.15091 1.15773
2161.10247 1.15983
2159.05403 1.16134
2157.00559 1.16226
2154.95715 1.16329
2152.90871 1.16436
2150.86028 1.16501
2148.81184 1.16545
2146.76340 1.16636
2144.71496 1.16786
2142.66652 1.16945
2140.61808 1.17065
2138.56965 1.17132
2136.52121 1.17142
2134.47277 1.17068
2132.42433 1.16944
2130.37589 1.16858
2128.32745 1.16844
2126.27902 1.16881
2124.23058 1.16919
2122.18214 1.16924
2120.13370 1.16900
2118.08526 1.16850
2116.03682 1.16843
2113.98839 1.16946
2111.93995 1.17062
2109.89151 1.17101
2107.84307 1.17148
2105.79463 1.17279
2103.74619 1.17424
2101.69776 1.17530
2099.64932 1.17645
2097.60088 1.17772
2095.55244 1.17876
2093.50400 1.17959
2091.45556 1.18013
2089.40713 1.18052
2087.35869 1.18081
2085.31025 1.18057
2083.26181 1.18007
2081.21337 1.17987
2079.16493 1.17992
2077.11649 1.18053
2075.06806 1.18195
2073.01962 1.18356
2070.97118 1.18459
2068.92274 1.18490
2066.87430 1.18485
2064.82586 1.18511
2062.77743 1.18615
2060.72899 1.18771
2058.68055 1.18967
2056.63211 1.19214
2054.58367 1.19456
2052.53523 1.19625
2050.48680 1.19780
2048.43836 1.20010
2046.38992 1.20329
2044.34148 1.20733
2042.29304 1.21213
2040.24460 1.21718
2038.19617 1.22157
2036.14773 1.22503
2034.09929 1.22798
2032.05085 1.23071
2030.00241 1.23312
2027.95397 1.23489
2025.90554 1.23593
2023.85710 1.23681
2021.80866 1.23845
2019.76022 1.24107
2017.71178 1.24449
2015.66334 1.24897
2013.61491 1.25424
2011.56647 1.25949
2009.51803 1.26452
2007.46959 1.26951
2005.42115 1.27423
2003.37271 1.27828
2001.32428 1.28145
1999.27584 1.28343
1997.22740 1.28413
1995.17896 1.28432
1993.13052 1.28502
1991.08208 1.28614
1989.03365 1.28713
1986.98521 1.28813
1984.93677 1.28865
1982.88833 1.28791
1980.83989 1.28624
1978.79145 1.28448
1976.74302 1.28301
1974.69458 1.28163
1972.64614 1.28020
1970.59770 1.27880
1968.54926 1.27767
1966.50082 1.27710
1964.45239 1.27688
1962.40395 1.27682
1960.35551 1.27699
1958.30707 1.27683
1956.25863 1.27607
1954.21019 1.27547
1952.16176 1.27575
1950.11332 1.27697
1948.06488 1.27864
1946.01644 1.28004
1943.96800 1.28117
1941.91956 1.28246
1939.87112 1.28345
1937.82269 1.28410
1935.77425 1.28508
1933.72581 1.28612
1931.67737 1.28680
1929.62893 1.28728
1927.58049 1.28779
1925.53206 1.28855
1923.48362 1.28938
1921.43518 1.28965
1919.38674 1.28995
1917.33830 1.29160
1915.28986 1.29411
1913.24143 1.29666
1911.19299 1.29995
1909.14455 1.30450
1907.09611 1.30965
1905.04767 1.31457
1902.99923 1.31864
1900.95080 1.32181
1898.90236 1.32480
1896.85392 1.32799
1894.80548 1.33140
1892.75704 1.33453
1890.70860 1.33718
1888.66017 1.34024
1886.61173 1.34416
1884.56329 1.34920
1882.51485 1.35455
1880.46641 1.35856
1878.41797 1.36152
1876.36954 1.36377
1874.32110 1.36471
1872.27266 1.36456
1870.22422 1.36376
1868.17578 1.36312
1866.12734 1.36292
1864.07891 1.36202
1862.03047 1.36001
1859.98203 1.35645
1857.93359 1.35086
1855.88515 1.34427
1853.83671 1.33822
1851.78828 1.33264
1849.73984 1.32666
1847.69140 1.32038
1845.64296 1.31444
1843.59452 1.30974
1841.54608 1.30696
1839.49765 1.30443
1837.44921 1.30205
1835.40077 1.30105
1833.35233 1.30121
1831.30389 1.30260
1829.25545 1.30606
1827.20702 1.30948
1825.15858 1.31190
1823.11014 1.31433
1821.06170 1.31628
1819.01326 1.31804
1816.96482 1.32083
1814.91639 1.32480
1812.86795 1.32915
1810.81951 1.33320
1808.77107 1.33619
1806.72263 1.33857
1804.67419 1.34094
1802.62575 1.34311
1800.57732 1.34543
1798.52888 1.34759
1796.48044 1.34894
1794.43200 1.34978
1792.38356 1.35027
1790.33512 1.35054
1788.28669 1.35057
1786.23825 1.35029
1784.18981 1.34984
1782.14137 1.34882
1780.09293 1.34721
1778.04449 1.34563
1775.99606 1.34410
1773.94762 1.34248
1771.89918 1.34086
1769.85074 1.33943
1767.80230 1.33776
1765.75386 1.33539
1763.70543 1.33221
1761.65699 1.32864
1759.60855 1.32619
1757.56011 1.32475
1755.51167 1.32424
1753.46323 1.32418
1751.41480 1.32369
1749.36636 1.32352
1747.31792 1.32409
1745.26948 1.32415
1743.22104 1.32342
1741.17260 1.32304
1739.12417 1.32417
1737.07573 1.32550
1735.02729 1.32582
1732.97885 1.32624
1730.93041 1.32710
1728.88197 1.32764
1726.83354 1.32822
1724.78510 1.32930
1722.73666 1.33064
1720.68822 1.33103
1718.63978 1.33050
1716.59134 1.33194
1714.54291 1.33590
1712.49447 1.33920
1710.44603 1.34188
1708.39759 1.34447
1706.34915 1.34730
1704.30071 1.34948
1702.25228 1.34969
1700.20384 1.34923
1698.15540 1.35064
1696.10696 1.35379
1694.05852 1.35739
1692.01008 1.36014
1689.96165 1.36276
1687.91321 1.36494
1685.86477 1.36590
1683.81633 1.36840
1681.76789 1.37242
1679.71945 1.37433
1677.67102 1.37455
1675.62258 1.37311
1673.57414 1.37064
1671.52570 1.36839
1669.47726 1.36656
1667.42882 1.36578
1665.38038 1.36473
1663.33195 1.36255
1661.28351 1.36086
1659.23507 1.36085
1657.18663 1.36115
1655.13819 1.36061
1653.08975 1.36080
1651.04132 1.36368
1648.99288 1.36505
1646.94444 1.36614
1644.89600 1.36821
1642.84756 1.37006
1640.79912 1.37208
1638.75069 1.37369
1636.70225 1.37504
1634.65381 1.37928
1632.60537 1.38313
1630.55693 1.38477
1628.50849 1.38595
1626.46006 1.38764
1624.41162 1.39004
1622.36318 1.39404
1620.31474 1.39792
1618.26630 1.40105
1616.21786 1.40562
1614.16943 1.41010
1612.12099 1.41249
1610.07255 1.41330
1608.02411 1.41257
1605.97567 1.41035
1603.92723 1.40672
1601.87880 1.40170
1599.83036 1.39614
1597.78192 1.39078
1595.73348 1.38595
1593.68504 1.38199
1591.63660 1.37890
1589.58817 1.37608
1587.53973 1.37242
1585.49129 1.36687
1583.44285 1.35994
1581.39441 1.35333
1579.34597 1.34805
1577.29754 1.34300
1575.24910 1.33817
1573.20066 1.33533
1571.15222 1.33213
1569.10378 1.32823
1567.05534 1.32671
1565.00691 1.32722
1562.95847 1.32735
1560.91003 1.32461
1558.86159 1.31802
1556.81315 1.31702
1554.76471 1.31827
1552.71628 1.31919
1550.66784 1.32101
1548.61940 1.32342
1546.57096 1.32533
1544.52252 1.32692
1542.47408 1.32872
1540.42565 1.33248
1538.37721 1.33793
1536.32877 1.34046
1534.28033 1.34253
1532.23189 1.34638
1530.18345 1.34959
1528.13501 1.35085
1526.08658 1.34986
1524.03814 1.34658
1521.98970 1.34279
1519.94126 1.34172
1517.89282 1.34179
1515.84438 1.34017
1513.79595 1.33758
1511.74751 1.33506
1509.69907 1.33255
1507.65063 1.33055
1505.60219 1.33324
1503.55375 1.33628
1501.50532 1.33828
1499.45688 1.34110
1497.40844 1.34550
1495.36000 1.34982
1493.31156 1.35166
1491.26312 1.35139
1489.21469 1.35100
1487.16625 1.35196
1485.11781 1.35227
1483.06937 1.35109
1481.02093 1.34887
1478.97249 1.34640
1476.92406 1.34382
1474.87562 1.34096
1472.82718 1.33821
1470.77874 1.33766
1468.73030 1.33854
1466.68186 1.33963
1464.63343 1.34137
1462.58499 1.34295
1460.53655 1.34350
1458.48811 1.34340
1456.43967 1.34332
1454.39123 1.34289
1452.34280 1.34151
1450.29436 1.33941
1448.24592 1.33717
1446.19748 1.33589
1444.14904 1.33588
1442.10060 1.33646
1440.05217 1.33725
1438.00373 1.33809
1435.95529 1.33879
1433.90685 1.33871
1431.85841 1.33780
1429.80997 1.33617
1427.76154 1.33334
1425.71310 1.32903
1423.66466 1.32399
1421.61622 1.32036
1419.56778 1.31849
1417.51934 1.31729
1415.47091 1.31585
1413.42247 1.31414
1411.37403 1.31307
1409.32559 1.31289
1407.27715 1.31293
1405.22871 1.31301
1403.18028 1.31291
1401.13184 1.31199
1399.08340 1.31046
1397.03496 1.30976
1394.98652 1.31078
1392.93808 1.31314
1390.88965 1.31556
1388.84121 1.31736
1386.79277 1.31925
1384.74433 1.32192
1382.69589 1.32440
1380.64745 1.32583
1378.59901 1.32656
1376.55058 1.32744
1374.50214 1.32891
1372.45370 1.33084
1370.40526 1.33260
1368.35682 1.33422
1366.30838 1.33560
1364.25995 1.33659
1362.21151 1.33766
1360.16307 1.33782
1358.11463 1.33585
1356.06619 1.33264
1354.01775 1.33008
1351.96932 1.32842
1349.92088 1.32629
1347.87244 1.32401
1345.82400 1.32275
1343.77556 1.32220
1341.72712 1.32178
1339.67869 1.32151
1337.63025 1.32118
1335.58181 1.32068
1333.53337 1.32047
1331.48493 1.32075
1329.43649 1.32112
1327.38806 1.32122
1325.33962 1.32113
1323.29118 1.32082
1321.24274 1.32051
1319.19430 1.32102
1317.14586 1.32197
1315.09743 1.32200
1313.04899 1.32187
1311.00055 1.32357
1308.95211 1.32726
1306.90367 1.33155
1304.85523 1.33522
1302.80680 1.33697
1300.75836 1.33614
1298.70992 1.33441
1296.66148 1.33411
1294.61304 1.33598
1292.56460 1.33929
1290.51617 1.34263
1288.46773 1.34532
1286.41929 1.34792
1284.37085 1.35107
1282.32241 1.35460
1280.27397 1.35761
1278.22554 1.35946
1276.17710 1.35988
1274.12866 1.35908
1272.08022 1.35849
1270.03178 1.35918
1267.98334 1.36032
1265.93491 1.36100
1263.88647 1.36140
1261.83803 1.36177
1259.78959 1.36177
1257.74115 1.36094
1255.69271 1.35980
1253.64428 1.36000
1251.59584 1.36220
1249.54740 1.36500
1247.49896 1.36617
1245.45052 1.36522
1243.40208 1.36315
1241.35364 1.36041
1239.30521 1.35696
1237.25677 1.35324
1235.20833 1.35021
1233.15989 1.34782
1231.11145 1.34499
1229.06301 1.34201
1227.01458 1.34087
1224.96614 1.34274
1222.91770 1.34679
1220.86926 1.35150
1218.82082 1.35657
1216.77238 1.36222
1214.72395 1.36695
1212.67551 1.36950
1210.62707 1.37093
1208.57863 1.37272
1206.53019 1.37521
1204.48175 1.37801
1202.43332 1.38073
1200.38488 1.38357
1198.33644 1.38701
1196.28800 1.39087
1194.23956 1.39421
1192.19112 1.39660
1190.14269 1.39857
1188.09425 1.40083
1186.04581 1.40479
1183.99737 1.41160
1181.94893 1.42045
1179.90049 1.42990
1177.85206 1.43957
1175.80362 1.44970
1173.75518 1.46012
1171.70674 1.47073
1169.65830 1.48172
1167.60986 1.49327
1165.56143 1.50525
1163.51299 1.51636
1161.46455 1.52396
1159.41611 1.52517
1157.36767 1.52008
1155.31923 1.51300
1153.27080 1.50823
1151.22236 1.50673
1149.17392 1.50688
1147.12548 1.50727
1145.07704 1.50830
1143.02860 1.51053
1140.98017 1.51369
1138.93173 1.51788
1136.88329 1.52303
1134.83485 1.52908
1132.78641 1.53659
1130.73797 1.54609
1128.68954 1.55771
1126.64110 1.57114
1124.59266 1.58605
1122.54422 1.60172
1120.49578 1.61664
1118.44734 1.63037
1116.39891 1.64296
1114.35047 1.65295
1112.30203 1.65872
1110.25359 1.66009
1108.20515 1.65860
1106.15671 1.65589
1104.10827 1.65274
1102.05984 1.64927
1100.01140 1.64545
1097.96296 1.64100
1095.91452 1.63558
1093.86608 1.62989
1091.81764 1.62436
1089.76921 1.61854
1087.72077 1.61281
1085.67233 1.60748
1083.62389 1.60172
1081.57545 1.59549
1079.52701 1.58955
1077.47858 1.58405
1075.43014 1.57953
1073.38170 1.57707
1071.33326 1.57701
1069.28482 1.57886
1067.23638 1.58257
1065.18795 1.58790
1063.13951 1.59387
1061.09107 1.60033
1059.04263 1.60699
1056.99419 1.61270
1054.94575 1.61665
1052.89732 1.61820
1050.84888 1.61695
1048.80044 1.61416
1046.75200 1.61185
1044.70356 1.61090
1042.65512 1.61098
1040.60669 1.61158
1038.55825 1.61355
1036.50981 1.61790
1034.46137 1.62427
1032.41293 1.63247
1030.36449 1.64315
1028.31606 1.65596
1026.26762 1.66945
1024.21918 1.68146
1022.17074 1.68840
1020.12230 1.68862
1018.07386 1.68477
1016.02543 1.67900
1013.97699 1.67237
1011.92855 1.66662
1009.88011 1.66280
1007.83167 1.66146
1005.78323 1.66280
1003.73480 1.66652
1001.68636 1.67155
999.63792 1.67626
997.58948 1.67997
995.54104 1.68237
993.49260 1.68369
991.44417 1.68482
989.39573 1.68604
987.34729 1.68704
985.29885 1.68814
983.25041 1.69028
981.20197 1.69320
979.15354 1.69582
977.10510 1.69905
975.05666 1.70412
973.00822 1.70927
970.95978 1.71333
968.91134 1.71739
966.86290 1.72112
964.81447 1.72373
962.76603 1.72665
960.71759 1.73115
958.66915 1.73609
956.62071 1.73992
954.57227 1.74211
952.52384 1.74366
950.47540 1.74556
948.42696 1.74785
946.37852 1.75156
944.33008 1.75662
942.28164 1.76104
940.23321 1.76321
938.18477 1.76353
936.13633 1.76433
934.08789 1.76556
932.03945 1.76444
929.99101 1.76090
927.94258 1.75715
925.89414 1.75380
923.84570 1.75221
921.79726 1.75385
919.74882 1.75618
917.70038 1.75690
915.65195 1.75709
913.60351 1.75743
911.55507 1.75605
909.50663 1.75058
907.45819 1.74177
905.40975 1.73242
903.36132 1.72426
901.31288 1.71658
899.26444 1.70749
897.21600 1.69649
895.16756 1.68376
893.11912 1.67145
891.07069 1.66216
889.02225 1.65613
886.97381 1.65393
884.92537 1.65447
882.87693 1.65398
880.82849 1.65186
878.78006 1.65028
876.73162 1.64872
874.68318 1.64664
872.63474 1.64568
870.58630 1.64491
868.53786 1.64251
866.48943 1.63960
864.44099 1.63877
862.39255 1.64185
860.34411 1.64689
858.29567 1.64920
856.24723 1.64754
854.19880 1.64424
852.15036 1.64100
850.10192 1.63881
848.05348 1.63706
846.00504 1.63557
843.95660 1.63654
841.90817 1.63979
839.85973 1.64425
837.81129 1.64999
835.76285 1.65533
833.71441 1.65843
831.66597 1.65899
829.61753 1.65730
827.56910 1.65555
825.52066 1.65549
823.47222 1.65680
821.42378 1.65922
819.37534 1.66255
817.32690 1.66802
815.27847 1.67524
813.23003 1.68008
811.18159 1.68017
809.13315 1.67723
807.08471 1.67585
805.03627 1.67964
802.98784 1.68708
800.93940 1.69457
798.89096 1.70190
796.84252 1.70968
794.79408 1.71565
792.74564 1.71882
790.69721 1.72190
788.64877 1.72649
786.60033 1.72907
784.55189 1.72687
782.50345 1.72571
780.45501 1.73149
778.40658 1.74153
776.35814 1.74976
774.30970 1.75404
772.26126 1.75755
770.21282 1.76064
768.16438 1.76004
766.11595 1.75807
764.06751 1.76023
762.01907 1.76584
759.97063 1.76934
757.92219 1.76852
755.87375 1.76484
753.82532 1.76058
751.77688 1.75560
749.72844 1.74889
747.68000 1.74252
745.63156 1.73979
743.58312 1.74064
741.53469 1.74086
739.48625 1.73792
737.43781 1.73131
735.38937 1.72442
733.34093 1.72236
731.29249 1.72289
729.24406 1.72196
727.19562 1.71967
725.14718 1.71736
723.09874 1.71721
721.05030 1.71853
719.00186 1.71816
716.95343 1.71663
714.90499 1.71652
712.85655 1.71903
710.80811 1.72214
708.75967 1.72483
706.71123 1.73016
704.66280 1.73883
702.61436 1.74925
700.56592 1.76188
698.51748 1.77477
696.46904 1.78324
694.42060 1.78686
692.37216 1.78586
690.32373 1.77948
688.27529 1.76805
686.22685 1.75130
684.17841 1.73182
682.12997 1.71727
680.08153 1.71055
678.03310 1.70763
675.98466 1.70620
673.93622 1.70504
671.88778 1.70456
669.83934 1.70817
667.79090 1.71780
665.74247 1.72171
663.69403 1.71944
661.64559 1.71531
659.59715 1.71414
657.54871 1.71866
655.50027 1.72249
653.45184 1.72246
651.40340 1.71919
649.35496 1.71756
647.30652 1.72211
645.25808 1.73448
643.20964 1.74436
641.16121 1.73411
639.11277 1.71369
637.06433 1.70629
635.01589 1.71242
632.96745 1.71803
630.91901 1.72138
628.87058 1.72016
626.82214 1.70502
624.77370 1.68808
622.72526 1.68439
620.67682 1.67910
618.62838 1.66866
616.57995 1.66861
614.53151 1.66948
612.48307 1.66072
610.43463 1.65028
608.38619 1.64469
606.33775 1.64350
604.28932 1.63858
602.24088 1.62385
600.19244 1.61417
598.14400 1.61893
