3996.50324 0.07544
3994.45480 0.07529
3992.40636 0.07527
3990.35792 0.07539
3988.30948 0.07559
3986.26104 0.07571
3984.21261 0.07573
3982.16417 0.07577
3980.11573 0.07588
3978.06729 0.07594
3976.01885 0.07592
3973.97041 0.07594
3971.92198 0.07599
3969.87354 0.07599
3967.82510 0.07607
3965.77666 0.07619
3963.72822 0.07615
3961.67978 0.07599
3959.63135 0.07593
3957.58291 0.07600
3955.53447 0.07608
3953.48603 0.07605
3951.43759 0.07581
3949.38915 0.07548
3947.34072 0.07544
3945.29228 0.07558
3943.24384 0.07564
3941.19540 0.07580
3939.14696 0.07600
3937.09852 0.07599
3935.05009 0.07566
3933.00165 0.07512
3930.95321 0.07491
3928.90477 0.07521
3926.85633 0.07535
3924.80789 0.07515
3922.75946 0.07516
3920.71102 0.07532
3918.66258 0.07529
3916.61414 0.07533
3914.56570 0.07568
3912.51726 0.07600
3910.46883 0.07605
3908.42039 0.07583
3906.37195 0.07530
3904.32351 0.07459
3902.27507 0.07425
3900.22663 0.07438
3898.17820 0.07476
3896.12976 0.07513
3894.08132 0.07517
3892.03288 0.07500
3889.98444 0.07518
3887.93600 0.07534
3885.88756 0.07503
3883.83913 0.07470
3881.79069 0.07462
3879.74225 0.07480
3877.69381 0.07520
3875.64537 0.07516
3873.59693 0.07464
3871.54850 0.07410
3869.50006 0.07393
3867.45162 0.07418
3865.40318 0.07424
3863.35474 0.07420
3861.30630 0.07459
3859.25787 0.07485
3857.20943 0.07460
3855.16099 0.07388
3853.11255 0.07327
3851.06411 0.07381
3849.01567 0.07452
3846.96724 0.07488
3844.91880 0.07483
3842.87036 0.07439
3840.82192 0.07383
3838.77348 0.07345
3836.72504 0.07356
3834.67661 0.07394
3832.62817 0.07432
3830.57973 0.07454
3828.53129 0.07453
3826.48285 0.07437
3824.43441 0.07419
3822.38598 0.07379
3820.33754 0.07336
3818.28910 0.07350
3816.24066 0.07388
3814.19222 0.07444
3812.14378 0.07485
3810.09535 0.07492
3808.04691 0.07464
3805.99847 0.07424
3803.95003 0.07384
3801.90159 0.07337
3799.85315 0.07351
3797.80472 0.07403
3795.75628 0.07439
3793.70784 0.07468
3791.65940 0.07487
3789.61096 0.07484
3787.56252 0.07456
3785.51409 0.07416
3783.46565 0.07390
3781.41721 0.07368
3779.36877 0.07352
3777.32033 0.07374
3775.27189 0.07392
3773.22346 0.07367
3771.17502 0.07317
3769.12658 0.07285
3767.07814 0.07277
3765.02970 0.07267
3762.98126 0.07254
3760.93283 0.07217
3758.88439 0.07153
3756.83595 0.07106
3754.78751 0.07054
3752.73907 0.06948
3750.69063 0.06822
3748.64219 0.06794
3746.59376 0.06800
3744.54532 0.06768
3742.49688 0.06716
3740.44844 0.06672
3738.40000 0.06611
3736.35156 0.06494
3734.30313 0.06378
3732.25469 0.06321
3730.20625 0.06263
3728.15781 0.06161
3726.10937 0.06003
3724.06093 0.05822
3722.01250 0.05631
3719.96406 0.05414
3717.91562 0.05170
3715.86718 0.04907
3713.81874 0.04596
3711.77030 0.04141
3709.72187 0.03653
3707.67343 0.03293
3705.62499 0.02970
3703.57655 0.02619
3701.52811 0.02252
3699.47967 0.02019
3697.43124 0.01967
3695.38280 0.02020
3693.33436 0.02125
3691.28592 0.02273
3689.23748 0.02505
3687.18904 0.02751
3685.14061 0.02909
3683.09217 0.03010
3681.04373 0.03053
3678.99529 0.03038
3676.94685 0.02961
3674.89841 0.02811
3672.84998 0.02706
3670.80154 0.02636
3668.75310 0.02589
3666.70466 0.02606
3664.65622 0.02631
3662.60778 0.02615
3660.55935 0.02555
3658.51091 0.02469
3656.46247 0.02367
3654.41403 0.02291
3652.36559 0.02257
3650.31715 0.02249
3648.26872 0.02324
3646.22028 0.02434
3644.17184 0.02492
3642.12340 0.02522
3640.07496 0.02535
3638.02652 0.02530
3635.97809 0.02509
3633.92965 0.02475
3631.88121 0.02423
3629.83277 0.02345
3627.78433 0.02242
3625.73589 0.02148
3623.68746 0.02026
3621.63902 0.01880
3619.59058 0.01832
3617.54214 0.01993
3615.49370 0.02199
3613.44526 0.02357
3611.39682 0.02468
3609.34839 0.02546
3607.29995 0.02627
3605.25151 0.02705
3603.20307 0.02762
3601.15463 0.02805
3599.10619 0.02853
3597.05776 0.02917
3595.00932 0.02987
3592.96088 0.03056
3590.91244 0.03104
3588.86400 0.03131
3586.81556 0.03176
3584.76713 0.03248
3582.71869 0.03306
3580.67025 0.03351
3578.62181 0.03385
3576.57337 0.03409
3574.52493 0.03434
3572.47650 0.03454
3570.42806 0.03449
3568.37962 0.03416
3566.33118 0.03410
3564.28274 0.03455
3562.23430 0.03492
3560.18587 0.03515
3558.13743 0.03537
3556.08899 0.03550
3554.04055 0.03542
3551.99211 0.03531
3549.94367 0.03526
3547.89524 0.03505
3545.84680 0.03476
3543.79836 0.03478
3541.74992 0.03495
3539.70148 0.03496
3537.65304 0.03482
3535.60461 0.03473
3533.55617 0.03468
3531.50773 0.03458
3529.45929 0.03439
3527.41085 0.03416
3525.36241 0.03395
3523.31398 0.03375
3521.26554 0.03366
3519.21710 0.03368
3517.16866 0.03367
3515.12022 0.03359
3513.07178 0.03346
3511.02335 0.03326
3508.97491 0.03305
3506.92647 0.03291
3504.87803 0.03273
3502.82959 0.03258
3500.78115 0.03255
3498.73272 0.03250
3496.68428 0.03240
3494.63584 0.03232
3492.58740 0.03222
3490.53896 0.03201
3488.49052 0.03171
3486.44209 0.03141
3484.39365 0.03117
3482.34521 0.03092
3480.29677 0.03071
3478.24833 0.03060
3476.19989 0.03044
3474.15146 0.03021
3472.10302 0.02999
3470.05458 0.02971
3468.00614 0.02942
3465.95770 0.02923
3463.90926 0.02907
3461.86082 0.02880
3459.81239 0.02851
3457.76395 0.02828
3455.71551 0.02808
3453.66707 0.02784
3451.61863 0.02755
3449.57019 0.02723
3447.52176 0.02692
3445.47332 0.02664
3443.42488 0.02645
3441.37644 0.02630
3439.32800 0.02609
3437.27956 0.02578
3435.23113 0.02550
3433.18269 0.02525
3431.13425 0.02503
3429.08581 0.02486
3427.03737 0.02472
3424.98893 0.02457
3422.94050 0.02439
3420.89206 0.02422
3418.84362 0.02412
3416.79518 0.02407
3414.74674 0.02401
3412.69830 0.02395
3410.64987 0.02382
3408.60143 0.02370
3406.55299 0.02360
3404.50455 0.02348
3402.45611 0.02336
3400.40767 0.02320
3398.35924 0.02301
3396.31080 0.02288
3394.26236 0.02281
3392.21392 0.02276
3390.16548 0.02274
3388.11704 0.02266
3386.06861 0.02254
3384.02017 0.02251
3381.97173 0.02252
3379.92329 0.02246
3377.87485 0.02242
3375.82641 0.02245
3373.77798 0.02247
3371.72954 0.02247
3369.68110 0.02246
3367.63266 0.02245
3365.58422 0.02253
3363.53578 0.02269
3361.48735 0.02281
3359.43891 0.02290
3357.39047 0.02302
3355.34203 0.02315
3353.29359 0.02328
3351.24515 0.02341
3349.19672 0.02359
3347.14828 0.02380
3345.09984 0.02399
3343.05140 0.02413
3341.00296 0.02427
3338.95452 0.02437
3336.90609 0.02445
3334.85765 0.02460
3332.80921 0.02475
3330.76077 0.02489
3328.71233 0.02505
3326.66389 0.02527
3324.61545 0.02546
3322.56702 0.02556
3320.51858 0.02563
3318.47014 0.02570
3316.42170 0.02576
3314.37326 0.02580
3312.32482 0.02588
3310.27639 0.02602
3308.22795 0.02616
3306.17951 0.02621
3304.13107 0.02622
3302.08263 0.02626
3300.03419 0.02637
3297.98576 0.02652
3295.93732 0.02660
3293.88888 0.02662
3291.84044 0.02666
3289.79200 0.02677
3287.74356 0.02695
3285.69513 0.02713
3283.64669 0.02722
3281.59825 0.02728
3279.54981 0.02733
3277.50137 0.02738
3275.45293 0.02745
3273.40450 0.02753
3271.35606 0.02761
3269.30762 0.02767
3267.25918 0.02774
3265.21074 0.02781
3263.16230 0.02790
3261.11387 0.02804
3259.06543 0.02816
3257.01699 0.02823
3254.96855 0.02835
3252.92011 0.02850
3250.87167 0.02862
3248.82324 0.02875
3246.77480 0.02885
3244.72636 0.02892
3242.67792 0.02903
3240.62948 0.02917
3238.58104 0.02931
3236.53261 0.02943
3234.48417 0.02949
3232.43573 0.02950
3230.38729 0.02957
3228.33885 0.02972
3226.29041 0.02991
3224.24198 0.03004
3222.19354 0.03009
3220.14510 0.03019
3218.09666 0.03037
3216.04822 0.03053
3213.99978 0.03064
3211.95135 0.03076
3209.90291 0.03088
3207.85447 0.03099
3205.80603 0.03111
3203.75759 0.03127
3201.70915 0.03145
3199.66072 0.03159
3197.61228 0.03168
3195.56384 0.03176
3193.51540 0.03181
3191.46696 0.03186
3189.41852 0.03199
3187.37008 0.03219
3185.32165 0.03238
3183.27321 0.03256
3181.22477 0.03274
3179.17633 0.03289
3177.12789 0.03306
3175.07945 0.03321
3173.03102 0.03335
3170.98258 0.03350
3168.93414 0.03368
3166.88570 0.03384
3164.83726 0.03397
3162.78882 0.03413
3160.74039 0.03432
3158.69195 0.03445
3156.64351 0.03455
3154.59507 0.03464
3152.54663 0.03477
3150.49819 0.03495
3148.44976 0.03513
3146.40132 0.03528
3144.35288 0.03543
3142.30444 0.03561
3140.25600 0.03575
3138.20756 0.03584
3136.15913 0.03592
3134.11069 0.03598
3132.06225 0.03605
3130.01381 0.03622
3127.96537 0.03639
3125.91693 0.03654
3123.86850 0.03673
3121.82006 0.03693
3119.77162 0.03708
3117.72318 0.03721
3115.67474 0.03729
3113.62630 0.03731
3111.57787 0.03733
3109.52943 0.03745
3107.48099 0.03763
3105.43255 0.03776
3103.38411 0.03781
3101.33567 0.03785
3099.28724 0.03792
3097.23880 0.03803
3095.19036 0.03814
3093.14192 0.03824
3091.09348 0.03831
3089.04504 0.03833
3086.99661 0.03836
3084.94817 0.03843
3082.89973 0.03844
3080.85129 0.03840
3078.80285 0.03841
3076.75441 0.03847
3074.70598 0.03849
3072.65754 0.03848
3070.60910 0.03846
3068.56066 0.03843
3066.51222 0.03842
3064.46378 0.03844
3062.41535 0.03841
3060.36691 0.03833
3058.31847 0.03825
3056.27003 0.03821
3054.22159 0.03814
3052.17315 0.03800
3050.12471 0.03780
3048.07628 0.03755
3046.02784 0.03722
3043.97940 0.03680
3041.93096 0.03636
3039.88252 0.03593
3037.83408 0.03542
3035.78565 0.03481
3033.73721 0.03411
3031.68877 0.03336
3029.64033 0.03262
3027.59189 0.03188
3025.54345 0.03109
3023.49502 0.03029
3021.44658 0.02950
3019.39814 0.02867
3017.34970 0.02781
3015.30126 0.02692
3013.25282 0.02595
3011.20439 0.02499
3009.15595 0.02407
3007.10751 0.02316
3005.05907 0.02227
3003.01063 0.02148
3000.96219 0.02079
2998.91376 0.02022
2996.86532 0.01977
2994.81688 0.01940
2992.76844 0.01911
2990.72000 0.01890
2988.67156 0.01877
2986.62313 0.01864
2984.57469 0.01852
2982.52625 0.01831
2980.47781 0.01790
2978.42937 0.01725
2976.38093 0.01637
2974.33250 0.01533
2972.28406 0.01424
2970.23562 0.01311
2968.18718 0.01200
2966.13874 0.01109
2964.09030 0.01046
2962.04187 0.01005
2959.99343 0.00986
2957.94499 0.00989
2955.89655 0.01007
2953.84811 0.01032
2951.79967 0.01059
2949.75124 0.01092
2947.70280 0.01134
2945.65436 0.01176
2943.60592 0.01206
2941.55748 0.01219
2939.50904 0.01215
2937.46061 0.01202
2935.41217 0.01192
2933.36373 0.01196
2931.31529 0.01214
2929.26685 0.01237
2927.21841 0.01270
2925.16998 0.01313
2923.12154 0.01359
2921.07310 0.01405
2919.02466 0.01452
2916.97622 0.01499
2914.92778 0.01550
2912.87934 0.01616
2910.83091 0.01687
2908.78247 0.01751
2906.73403 0.01810
2904.68559 0.01864
2902.63715 0.01913
2900.58871 0.01961
2898.54028 0.02003
2896.49184 0.02038
2894.44340 0.02071
2892.39496 0.02105
2890.34652 0.02144
2888.29808 0.02186
2886.24965 0.02214
2884.20121 0.02207
2882.15277 0.02154
2880.10433 0.02065
2878.05589 0.01966
2876.00745 0.01894
2873.95902 0.01881
2871.91058 0.01931
2869.86214 0.02020
2867.81370 0.02119
2865.76526 0.02219
2863.71682 0.02324
2861.66839 0.02433
2859.61995 0.02537
2857.57151 0.02618
2855.52307 0.02666
2853.47463 0.02677
2851.42619 0.02666
2849.37776 0.02691
2847.32932 0.02799
2845.28088 0.02961
2843.23244 0.03127
2841.18400 0.03291
2839.13556 0.03452
2837.08713 0.03606
2835.03869 0.03753
2832.99025 0.03891
2830.94181 0.04015
2828.89337 0.04128
2826.84493 0.04233
2824.79650 0.04328
2822.74806 0.04416
2820.69962 0.04503
2818.65118 0.04587
2816.60274 0.04663
2814.55430 0.04733
2812.50587 0.04802
2810.45743 0.04871
2808.40899 0.04933
2806.36055 0.04987
2804.31211 0.05039
2802.26367 0.05091
2800.21524 0.05139
2798.16680 0.05182
2796.11836 0.05219
2794.06992 0.05246
2792.02148 0.05267
2789.97304 0.05293
2787.92461 0.05325
2785.87617 0.05360
2783.82773 0.05389
2781.77929 0.05405
2779.73085 0.05413
2777.68241 0.05429
2775.63397 0.05454
2773.58554 0.05478
2771.53710 0.05494
2769.48866 0.05507
2767.44022 0.05518
2765.39178 0.05528
2763.34334 0.05539
2761.29491 0.05552
2759.24647 0.05565
2757.19803 0.05577
2755.14959 0.05588
2753.10115 0.05599
2751.05271 0.05612
2749.00428 0.05620
2746.95584 0.05620
2744.90740 0.05622
2742.85896 0.05636
2740.81052 0.05659
2738.76208 0.05682
2736.71365 0.05703
2734.66521 0.05724
2732.61677 0.05751
2730.56833 0.05783
2728.51989 0.05816
2726.47145 0.05855
2724.42302 0.05898
2722.37458 0.05938
2720.32614 0.05970
2718.27770 0.05997
2716.22926 0.06018
2714.18082 0.06039
2712.13239 0.06064
2710.08395 0.06087
2708.03551 0.06100
2705.98707 0.06103
2703.93863 0.06105
2701.89019 0.06114
2699.84176 0.06133
2697.79332 0.06153
2695.74488 0.06166
2693.69644 0.06175
2691.64800 0.06182
2689.59956 0.06188
2687.55113 0.06200
2685.50269 0.06215
2683.45425 0.06230
2681.40581 0.06247
2679.35737 0.06258
2677.30893 0.06263
2675.26050 0.06269
2673.21206 0.06274
2671.16362 0.06274
2669.11518 0.06268
2667.06674 0.06265
2665.01830 0.06264
2662.96987 0.06265
2660.92143 0.06271
2658.87299 0.06288
2656.82455 0.06314
2654.77611 0.06340
2652.72767 0.06357
2650.67924 0.06373
2648.63080 0.06395
2646.58236 0.06411
2644.53392 0.06416
2642.48548 0.06418
2640.43704 0.06427
2638.38860 0.06438
2636.34017 0.06448
2634.29173 0.06452
2632.24329 0.06443
2630.19485 0.06436
2628.14641 0.06447
2626.09797 0.06463
2624.04954 0.06468
2622.00110 0.06471
2619.95266 0.06476
2617.90422 0.06477
2615.85578 0.06474
2613.80734 0.06473
2611.75891 0.06478
2609.71047 0.06487
2607.66203 0.06494
2605.61359 0.06495
2603.56515 0.06486
2601.51671 0.06478
2599.46828 0.06483
2597.41984 0.06497
2595.37140 0.06512
2593.32296 0.06525
2591.27452 0.06538
2589.22608 0.06548
2587.17765 0.06554
2585.12921 0.06560
2583.08077 0.06571
2581.03233 0.06583
2578.98389 0.06591
2576.93545 0.06599
2574.88702 0.06611
2572.83858 0.06621
2570.79014 0.06626
2568.74170 0.06629
2566.69326 0.06635
2564.64482 0.06640
2562.59639 0.06642
2560.54795 0.06643
2558.49951 0.06644
2556.45107 0.06646
2554.40263 0.06657
2552.35419 0.06676
2550.30576 0.06693
2548.25732 0.06706
2546.20888 0.06721
2544.16044 0.06734
2542.11200 0.06741
2540.06356 0.06746
2538.01513 0.06755
2535.96669 0.06767
2533.91825 0.06779
2531.86981 0.06791
2529.82137 0.06801
2527.77293 0.06804
2525.72450 0.06805
2523.67606 0.06811
2521.62762 0.06822
2519.57918 0.06836
2517.53074 0.06849
2515.48230 0.06857
2513.43387 0.06858
2511.38543 0.06855
2509.33699 0.06853
2507.28855 0.06863
2505.24011 0.06881
2503.19167 0.06897
2501.14324 0.06912
2499.09480 0.06926
2497.04636 0.06929
2494.99792 0.06926
2492.94948 0.06923
2490.90104 0.06922
2488.85260 0.06929
2486.80417 0.06940
2484.75573 0.06954
2482.70729 0.06975
2480.65885 0.06993
2478.61041 0.06995
2476.56197 0.06989
2474.51354 0.06985
2472.46510 0.06984
2470.41666 0.06984
2468.36822 0.06986
2466.31978 0.06990
2464.27134 0.06990
2462.22291 0.06978
2460.17447 0.06964
2458.12603 0.06960
2456.07759 0.06964
2454.02915 0.06968
2451.98071 0.06973
2449.93228 0.06984
2447.88384 0.06996
2445.83540 0.06996
2443.78696 0.06986
2441.73852 0.06974
2439.69008 0.06968
2437.64165 0.06974
2435.59321 0.06983
2433.54477 0.06988
2431.49633 0.06986
2429.44789 0.06986
2427.39945 0.06995
2425.35102 0.07004
2423.30258 0.07000
2421.25414 0.06988
2419.20570 0.06978
2417.15726 0.06980
2415.10882 0.06987
2413.06039 0.06984
2411.01195 0.06968
2408.96351 0.06948
2406.91507 0.06937
2404.86663 0.06937
2402.81819 0.06938
2400.76976 0.06933
2398.72132 0.06922
2396.67288 0.06911
2394.62444 0.06908
2392.57600 0.06914
2390.52756 0.06921
2388.47913 0.06918
2386.43069 0.06899
2384.38225 0.06866
2382.33381 0.06827
2380.28537 0.06784
2378.23693 0.06740
2376.18850 0.06698
2374.14006 0.06654
2372.09162 0.06597
2370.04318 0.06524
2367.99474 0.06464
2365.94630 0.06418
2363.89787 0.06365
2361.84943 0.06322
2359.80099 0.06310
2357.75255 0.06319
2355.70411 0.06347
2353.65567 0.06385
2351.60723 0.06420
2349.55880 0.06435
2347.51036 0.06398
2345.46192 0.06293
2343.41348 0.06176
2341.36504 0.06097
2339.31660 0.06035
2337.26817 0.05975
2335.21973 0.05922
2333.17129 0.05898
2331.12285 0.05918
2329.07441 0.05984
2327.02597 0.06080
2324.97754 0.06189
2322.92910 0.06301
2320.88066 0.06401
2318.83222 0.06482
2316.78378 0.06548
2314.73534 0.06597
2312.68691 0.06631
2310.63847 0.06665
2308.59003 0.06706
2306.54159 0.06748
2304.49315 0.06788
2302.44471 0.06823
2300.39628 0.06849
2298.34784 0.06873
2296.29940 0.06897
2294.25096 0.06914
2292.20252 0.06924
2290.15408 0.06933
2288.10565 0.06954
2286.05721 0.06985
2284.00877 0.07000
2281.96033 0.07000
2279.91189 0.07002
2277.86345 0.07003
2275.81502 0.06999
2273.76658 0.06997
2271.71814 0.06997
2269.66970 0.06999
2267.62126 0.07005
2265.57282 0.07017
2263.52439 0.07025
2261.47595 0.07028
2259.42751 0.07030
2257.37907 0.07022
2255.33063 0.07007
2253.28219 0.06995
2251.23376 0.06983
2249.18532 0.06973
2247.13688 0.06972
2245.08844 0.06970
2243.04000 0.06960
2240.99156 0.06945
2238.94313 0.06932
2236.89469 0.06925
2234.84625 0.06928
2232.79781 0.06938
2230.74937 0.06944
2228.70093 0.06945
2226.65250 0.06948
2224.60406 0.06948
2222.55562 0.06941
2220.50718 0.06934
2218.45874 0.06927
2216.41030 0.06914
2214.36186 0.06902
2212.31343 0.06899
2210.26499 0.06897
2208.21655 0.06888
2206.16811 0.06874
2204.11967 0.06863
2202.07123 0.06855
2200.02280 0.06852
2197.97436 0.06849
2195.92592 0.06836
2193.87748 0.06817
2191.82904 0.06811
2189.78060 0.06812
2187.73217 0.06811
2185.68373 0.06814
2183.63529 0.06819
2181.58685 0.06821
2179.53841 0.06820
2177.48997 0.06810
2175.44154 0.06798
2173.39310 0.06793
2171.34466 0.06786
2169.29622 0.06773
2167.24778 0.06761
2165.19934 0.06749
2163.15091 0.06737
2161.10247 0.06730
2159.05403 0.06722
2157.00559 0.06714
2154.95715 0.06704
2152.90871 0.06697
2150.86028 0.06692
2148.81184 0.06677
2146.76340 0.06654
2144.71496 0.06642
2142.66652 0.06639
2140.61808 0.06635
2138.56965 0.06625
2136.52121 0.06607
2134.47277 0.06586
2132.42433 0.06567
2130.37589 0.06556
2128.32745 0.06550
2126.27902 0.06542
2124.23058 0.06539
2122.18214 0.06546
2120.13370 0.06555
2118.08526 0.06559
2116.03682 0.06559
2113.98839 0.06559
2111.93995 0.06558
2109.89151 0.06551
2107.84307 0.06541
2105.79463 0.06536
2103.74619 0.06534
2101.69776 0.06526
2099.64932 0.06507
2097.60088 0.06488
2095.55244 0.06475
2093.50400 0.06463
2091.45556 0.06447
2089.40713 0.06429
2087.35869 0.06414
2085.31025 0.06401
2083.26181 0.06391
2081.21337 0.06380
2079.16493 0.06366
2077.11649 0.06351
2075.06806 0.06339
2073.01962 0.06327
2070.97118 0.06309
2068.92274 0.06286
2066.87430 0.06265
2064.82586 0.06241
2062.77743 0.06214
2060.72899 0.06193
2058.68055 0.06182
2056.63211 0.06174
2054.58367 0.06156
2052.53523 0.06125
2050.48680 0.06088
2048.43836 0.06060
2046.38992 0.06045
2044.34148 0.06027
2042.29304 0.06005
2040.24460 0.05992
2038.19617 0.05981
2036.14773 0.05959
2034.09929 0.05933
2032.05085 0.05919
2030.00241 0.05917
2027.95397 0.05918
2025.90554 0.05919
2023.85710 0.05921
2021.80866 0.05918
2019.76022 0.05902
2017.71178 0.05878
2015.66334 0.05864
2013.61491 0.05858
2011.56647 0.05844
2009.51803 0.05824
2007.46959 0.05798
2005.42115 0.05765
2003.37271 0.05737
2001.32428 0.05718
1999.27584 0.05703
1997.22740 0.05689
1995.17896 0.05677
1993.13052 0.05664
1991.08208 0.05657
1989.03365 0.05655
1986.98521 0.05641
1984.93677 0.05617
1982.88833 0.05594
1980.83989 0.05581
1978.79145 0.05574
1976.74302 0.05562
1974.69458 0.05544
1972.64614 0.05532
1970.59770 0.05539
1968.54926 0.05557
1966.50082 0.05573
1964.45239 0.05583
1962.40395 0.05580
1960.35551 0.05574
1958.30707 0.05574
1956.25863 0.05579
1954.21019 0.05589
1952.16176 0.05605
1950.11332 0.05617
1948.06488 0.05616
1946.01644 0.05596
1943.96800 0.05579
1941.91956 0.05596
1939.87112 0.05630
1937.82269 0.05645
1935.77425 0.05651
1933.72581 0.05665
1931.67737 0.05679
1929.62893 0.05683
1927.58049 0.05673
1925.53206 0.05645
1923.48362 0.05606
1921.43518 0.05578
1919.38674 0.05549
1917.33830 0.05514
1915.28986 0.05501
1913.24143 0.05495
1911.19299 0.05472
1909.14455 0.05438
1907.09611 0.05399
1905.04767 0.05357
1902.99923 0.05326
1900.95080 0.05308
1898.90236 0.05288
1896.85392 0.05250
1894.80548 0.05209
1892.75704 0.05175
1890.70860 0.05135
1888.66017 0.05094
1886.61173 0.05076
1884.56329 0.05075
1882.51485 0.05073
1880.46641 0.05059
1878.41797 0.05034
1876.36954 0.05006
1874.32110 0.04978
1872.27266 0.04945
1870.22422 0.04895
1868.17578 0.04867
1866.12734 0.04906
1864.07891 0.04958
1862.03047 0.04994
1859.98203 0.05029
1857.93359 0.05068
1855.88515 0.05103
1853.83671 0.05129
1851.78828 0.05152
1849.73984 0.05161
1847.69140 0.05148
1845.64296 0.05125
1843.59452 0.05142
1841.54608 0.05196
1839.49765 0.05226
1837.44921 0.05233
1835.40077 0.05239
1833.35233 0.05223
1831.30389 0.05161
1829.25545 0.05098
1827.20702 0.05091
1825.15858 0.05105
1823.11014 0.05113
1821.06170 0.05110
1819.01326 0.05091
1816.96482 0.05065
1814.91639 0.05029
1812.86795 0.04976
1810.81951 0.04932
1808.77107 0.04927
1806.72263 0.04924
1804.67419 0.04886
1802.62575 0.04824
1800.57732 0.04774
1798.52888 0.04753
1796.48044 0.04732
1794.43200 0.04692
1792.38356 0.04638
1790.33512 0.04619
1788.28669 0.04630
1786.23825 0.04628
1784.18981 0.04602
1782.14137 0.04559
1780.09293 0.04509
1778.04449 0.04459
1775.99606 0.04399
1773.94762 0.04312
1771.89918 0.04217
1769.85074 0.04159
1767.80230 0.04111
1765.75386 0.04035
1763.70543 0.03916
1761.65699 0.03738
1759.60855 0.03547
1757.56011 0.03324
1755.51167 0.03048
1753.46323 0.02764
1751.41480 0.02374
1749.36636 0.01843
1747.31792 0.01383
1745.26948 0.01063
1743.22104 0.00835
1741.17260 0.00689
1739.12417 0.00621
1737.07573 0.00615
1735.02729 0.00644
1732.97885 0.00703
1730.93041 0.00760
1728.88197 0.00811
1726.83354 0.00856
1724.78510 0.00894
1722.73666 0.00927
1720.68822 0.00948
1718.63978 0.00981
1716.59134 0.01078
1714.54291 0.01225
1712.49447 0.01364
1710.44603 0.01503
1708.39759 0.01634
1706.34915 0.01768
1704.30071 0.01901
1702.25228 0.02009
1700.20384 0.02128
1698.15540 0.02244
1696.10696 0.02364
1694.05852 0.02484
1692.01008 0.02557
1689.96165 0.02607
1687.91321 0.02648
1685.86477 0.02681
1683.81633 0.02743
1681.76789 0.02820
1679.71945 0.02887
1677.67102 0.02951
1675.62258 0.03017
1673.57414 0.03074
1671.52570 0.03103
1669.47726 0.03138
1667.42882 0.03194
1665.38038 0.03226
1663.33195 0.03233
1661.28351 0.03246
1659.23507 0.03262
1657.18663 0.03257
1655.13819 0.03230
1653.08975 0.03207
1651.04132 0.03219
1648.99288 0.03216
1646.94444 0.03202
1644.89600 0.03221
1642.84756 0.03243
1640.79912 0.03246
1638.75069 0.03233
1636.70225 0.03224
1634.65381 0.03257
1632.60537 0.03290
1630.55693 0.03293
1628.50849 0.03278
1626.46006 0.03264
1624.41162 0.03262
1622.36318 0.03279
1620.31474 0.03304
1618.26630 0.03315
1616.21786 0.03330
1614.16943 0.03359
1612.12099 0.03379
1610.07255 0.03394
1608.02411 0.03422
1605.97567 0.03461
1603.92723 0.03506
1601.87880 0.03557
1599.83036 0.03604
1597.78192 0.03638
1595.73348 0.03671
1593.68504 0.03720
1591.63660 0.03776
1589.58817 0.03826
1587.53973 0.03866
1585.49129 0.03896
1583.44285 0.03921
1581.39441 0.03944
1579.34597 0.03952
1577.29754 0.03946
1575.24910 0.03974
1573.20066 0.04022
1571.15222 0.04046
1569.10378 0.04059
1567.05534 0.04069
1565.00691 0.04064
1562.95847 0.04049
1560.91003 0.04031
1558.86159 0.04007
1556.81315 0.04026
1554.76471 0.04068
1552.71628 0.04107
1550.66784 0.04128
1548.61940 0.04133
1546.57096 0.04111
1544.52252 0.04053
1542.47408 0.03981
1540.42565 0.03953
1538.37721 0.04011
1536.32877 0.04049
1534.28033 0.04048
1532.23189 0.04052
1530.18345 0.04063
1528.13501 0.04047
1526.08658 0.04016
1524.03814 0.03994
1521.98970 0.03974
1519.94126 0.03972
1517.89282 0.03979
1515.84438 0.03988
1513.79595 0.03988
1511.74751 0.03955
1509.69907 0.03887
1507.65063 0.03776
1505.60219 0.03702
1503.55375 0.03674
1501.50532 0.03598
1499.45688 0.03435
1497.40844 0.03142
1495.36000 0.02803
1493.31156 0.02548
1491.26312 0.02287
1489.21469 0.01975
1487.16625 0.01812
1485.11781 0.01788
1483.06937 0.01793
1481.02093 0.01795
1478.97249 0.01783
1476.92406 0.01756
1474.87562 0.01717
1472.82718 0.01678
1470.77874 0.01652
1468.73030 0.01630
1466.68186 0.01599
1464.63343 0.01570
1462.58499 0.01559
1460.53655 0.01549
1458.48811 0.01523
1456.43967 0.01488
1454.39123 0.01474
1452.34280 0.01467
1450.29436 0.01468
1448.24592 0.01497
1446.19748 0.01566
1444.14904 0.01659
1442.10060 0.01751
1440.05217 0.01813
1438.00373 0.01830
1435.95529 0.01824
1433.90685 0.01856
1431.85841 0.01953
1429.80997 0.02132
1427.76154 0.02342
1425.71310 0.02529
1423.66466 0.02700
1421.61622 0.02825
1419.56778 0.02891
1417.51934 0.02940
1415.47091 0.02980
1413.42247 0.02993
1411.37403 0.02967
1409.32559 0.02912
1407.27715 0.02836
1405.22871 0.02741
1403.18028 0.02659
1401.13184 0.02600
1399.08340 0.02545
1397.03496 0.02498
1394.98652 0.02446
1392.93808 0.02382
1390.88965 0.02317
1388.84121 0.02255
1386.79277 0.02220
1384.74433 0.02235
1382.69589 0.02272
1380.64745 0.02325
1378.59901 0.02409
1376.55058 0.02513
1374.50214 0.02628
1372.45370 0.02730
1370.40526 0.02779
1368.35682 0.02785
1366.30838 0.02782
1364.25995 0.02784
1362.21151 0.02805
1360.16307 0.02839
1358.11463 0.02865
1356.06619 0.02886
1354.01775 0.02919
1351.96932 0.02977
1349.92088 0.03057
1347.87244 0.03140
1345.82400 0.03199
1343.77556 0.03216
1341.72712 0.03197
1339.67869 0.03176
1337.63025 0.03190
1335.58181 0.03226
1333.53337 0.03257
1331.48493 0.03265
1329.43649 0.03247
1327.38806 0.03215
1325.33962 0.03177
1323.29118 0.03134
1321.24274 0.03091
1319.19430 0.03053
1317.14586 0.03029
1315.09743 0.02993
1313.04899 0.02916
1311.00055 0.02819
1308.95211 0.02735
1306.90367 0.02671
1304.85523 0.02626
1302.80680 0.02592
1300.75836 0.02567
1298.70992 0.02543
1296.66148 0.02512
1294.61304 0.02460
1292.56460 0.02382
1290.51617 0.02280
1288.46773 0.02159
1286.41929 0.02025
1284.37085 0.01875
1282.32241 0.01708
1280.27397 0.01536
1278.22554 0.01378
1276.17710 0.01255
1274.12866 0.01174
1272.08022 0.01136
1270.03178 0.01134
1267.98334 0.01149
1265.93491 0.01173
1263.88647 0.01203
1261.83803 0.01230
1259.78959 0.01245
1257.74115 0.01249
1255.69271 0.01239
1253.64428 0.01209
1251.59584 0.01159
1249.54740 0.01102
1247.49896 0.01050
1245.45052 0.01007
1243.40208 0.00983
1241.35364 0.00984
1239.30521 0.01007
1237.25677 0.01043
1235.20833 0.01085
1233.15989 0.01131
1231.11145 0.01177
1229.06301 0.01217
1227.01458 0.01255
1224.96614 0.01291
1222.91770 0.01327
1220.86926 0.01362
1218.82082 0.01386
1216.77238 0.01388
1214.72395 0.01365
1212.67551 0.01323
1210.62707 0.01265
1208.57863 0.01195
1206.53019 0.01121
1204.48175 0.01047
1202.43332 0.00980
1200.38488 0.00927
1198.33644 0.00888
1196.28800 0.00859
1194.23956 0.00839
1192.19112 0.00829
1190.14269 0.00825
1188.09425 0.00828
1186.04581 0.00833
1183.99737 0.00834
1181.94893 0.00835
1179.90049 0.00839
1177.85206 0.00845
1175.80362 0.00851
1173.75518 0.00858
1171.70674 0.00864
1169.65830 0.00865
1167.60986 0.00864
1165.56143 0.00861
1163.51299 0.00852
1161.46455 0.00844
1159.41611 0.00847
1157.36767 0.00865
1155.31923 0.00894
1153.27080 0.00926
1151.22236 0.00956
1149.17392 0.00989
1147.12548 0.01026
1145.07704 0.01061
1143.02860 0.01091
1140.98017 0.01117
1138.93173 0.01136
1136.88329 0.01151
1134.83485 0.01164
1132.78641 0.01174
1130.73797 0.01179
1128.68954 0.01177
1126.64110 0.01174
1124.59266 0.01174
1122.54422 0.01171
1120.49578 0.01164
1118.44734 0.01153
1116.39891 0.01143
1114.35047 0.01137
1112.30203 0.01136
1110.25359 0.01141
1108.20515 0.01150
1106.15671 0.01152
1104.10827 0.01148
1102.05984 0.01146
1100.01140 0.01145
1097.96296 0.01143
1095.91452 0.01141
1093.86608 0.01138
1091.81764 0.01132
1089.76921 0.01126
1087.72077 0.01119
1085.67233 0.01110
1083.62389 0.01103
1081.57545 0.01102
1079.52701 0.01103
1077.47858 0.01104
1075.43014 0.01103
1073.38170 0.01104
1071.33326 0.01109
1069.28482 0.01118
1067.23638 0.01127
1065.18795 0.01138
1063.13951 0.01152
1061.09107 0.01168
1059.04263 0.01183
1056.99419 0.01201
1054.94575 0.01218
1052.89732 0.01231
1050.84888 0.01239
1048.80044 0.01248
1046.75200 0.01256
1044.70356 0.01258
1042.65512 0.01254
1040.60669 0.01252
1038.55825 0.01254
1036.50981 0.01256
1034.46137 0.01248
1032.41293 0.01231
1030.36449 0.01211
1028.31606 0.01183
1026.26762 0.01150
1024.21918 0.01122
1022.17074 0.01107
1020.12230 0.01102
1018.07386 0.01106
1016.02543 0.01114
1013.97699 0.01118
1011.92855 0.01117
1009.88011 0.01114
1007.83167 0.01100
1005.78323 0.01071
1003.73480 0.01039
1001.68636 0.01016
999.63792 0.01004
997.58948 0.00994
995.54104 0.00976
993.49260 0.00959
991.44417 0.00956
989.39573 0.00958
987.34729 0.00954
985.29885 0.00945
983.25041 0.00938
981.20197 0.00933
979.15354 0.00928
977.10510 0.00923
975.05666 0.00917
973.00822 0.00910
970.95978 0.00909
968.91134 0.00911
966.86290 0.00914
964.81447 0.00921
962.76603 0.00930
960.71759 0.00940
958.66915 0.00948
956.62071 0.00958
954.57227 0.00967
952.52384 0.00966
950.47540 0.00957
948.42696 0.00953
946.37852 0.00956
944.33008 0.00963
942.28164 0.00972
940.23321 0.00984
938.18477 0.00992
936.13633 0.00995
934.08789 0.01000
932.03945 0.01010
929.99101 0.01013
927.94258 0.01005
925.89414 0.00994
923.84570 0.00984
921.79726 0.00970
919.74882 0.00952
917.70038 0.00937
915.65195 0.00926
913.60351 0.00921
911.55507 0.00925
909.50663 0.00947
907.45819 0.00984
905.40975 0.01025
903.36132 0.01072
901.31288 0.01125
899.26444 0.01182
897.21600 0.01245
895.16756 0.01314
893.11912 0.01380
891.07069 0.01436
889.02225 0.01481
886.97381 0.01512
884.92537 0.01532
882.87693 0.01543
880.82849 0.01554
878.78006 0.01574
876.73162 0.01596
874.68318 0.01619
872.63474 0.01647
870.58630 0.01671
868.53786 0.01681
866.48943 0.01692
864.44099 0.01706
862.39255 0.01711
860.34411 0.01705
858.29567 0.01701
856.24723 0.01699
854.19880 0.01686
852.15036 0.01661
850.10192 0.01641
848.05348 0.01632
846.00504 0.01628
843.95660 0.01627
841.90817 0.01629
839.85973 0.01622
837.81129 0.01613
835.76285 0.01609
833.71441 0.01603
831.66597 0.01596
829.61753 0.01592
827.56910 0.01588
825.52066 0.01594
823.47222 0.01617
821.42378 0.01638
819.37534 0.01645
817.32690 0.01646
815.27847 0.01645
813.23003 0.01631
811.18159 0.01599
809.13315 0.01562
807.08471 0.01536
805.03627 0.01507
802.98784 0.01462
800.93940 0.01421
798.89096 0.01399
796.84252 0.01391
794.79408 0.01396
792.74564 0.01409
790.69721 0.01415
788.64877 0.01408
786.60033 0.01395
784.55189 0.01392
782.50345 0.01414
780.45501 0.01455
778.40658 0.01489
776.35814 0.01501
774.30970 0.01498
772.26126 0.01498
770.21282 0.01513
768.16438 0.01536
766.11595 0.01547
764.06751 0.01535
762.01907 0.01512
759.97063 0.01481
757.92219 0.01424
755.87375 0.01352
753.82532 0.01290
751.77688 0.01250
749.72844 0.01247
747.68000 0.01293
745.63156 0.01369
743.58312 0.01442
741.53469 0.01498
739.48625 0.01539
737.43781 0.01579
735.38937 0.01617
733.34093 0.01634
731.29249 0.01648
729.24406 0.01686
727.19562 0.01737
725.14718 0.01781
723.09874 0.01804
721.05030 0.01787
719.00186 0.01748
716.95343 0.01721
714.90499 0.01700
712.85655 0.01670
710.80811 0.01625
708.75967 0.01557
706.71123 0.01488
704.66280 0.01451
702.61436 0.01429
700.56592 0.01387
698.51748 0.01351
696.46904 0.01355
694.42060 0.01391
692.37216 0.01430
690.32373 0.01466
688.27529 0.01504
686.22685 0.01539
684.17841 0.01551
682.12997 0.01529
680.08153 0.01507
678.03310 0.01524
675.98466 0.01559
673.93622 0.01576
671.88778 0.01580
669.83934 0.01585
667.79090 0.01586
665.74247 0.01590
663.69403 0.01594
661.64559 0.01599
659.59715 0.01604
657.54871 0.01590
655.50027 0.01557
653.45184 0.01529
651.40340 0.01503
649.35496 0.01448
647.30652 0.01409
645.25808 0.01445
643.20964 0.01504
641.16121 0.01516
639.11277 0.01510
637.06433 0.01505
635.01589 0.01478
632.96745 0.01445
630.91901 0.01406
628.87058 0.01407
626.82214 0.01514
624.77370 0.01611
622.72526 0.01596
620.67682 0.01541
618.62838 0.01518
616.57995 0.01538
614.53151 0.01520
612.48307 0.01474
610.43463 0.01487
608.38619 0.01529
606.33775 0.01594
604.28932 0.01679
602.24088 0.01664
600.19244 0.01546
598.14400 0.01476
