3996.50324 1.34116
3994.45480 1.34066
3992.40636 1.34031
3990.35792 1.34037
3988.30948 1.33976
3986.26104 1.33841
3984.21261 1.33708
3982.16417 1.33556
3980.11573 1.33398
3978.06729 1.33306
3976.01885 1.33298
3973.97041 1.33290
3971.92198 1.33239
3969.87354 1.33193
3967.82510 1.33124
3965.77666 1.33024
3963.72822 1.33008
3961.67978 1.33078
3959.63135 1.33094
3957.58291 1.33058
3955.53447 1.33053
3953.48603 1.33101
3951.43759 1.33230
3949.38915 1.33437
3947.34072 1.33558
3945.29228 1.33540
3943.24384 1.33567
3941.19540 1.33557
3939.14696 1.33365
3937.09852 1.33199
3935.05009 1.33246
3933.00165 1.33499
3930.95321 1.33743
3928.90477 1.33664
3926.85633 1.33474
3924.80789 1.33462
3922.75946 1.33425
3920.71102 1.33301
3918.66258 1.33372
3916.61414 1.33534
3914.56570 1.33420
3912.51726 1.33165
3910.46883 1.33024
3908.42039 1.33011
3906.37195 1.33206
3904.32351 1.33698
3902.27507 1.34084
3900.22663 1.34104
3898.17820 1.33883
3896.12976 1.33489
3894.08132 1.33226
3892.03288 1.33419
3889.98444 1.33607
3887.93600 1.33385
3885.88756 1.33361
3883.83913 1.33535
3881.79069 1.33458
3879.74225 1.33420
3877.69381 1.33310
3875.64537 1.33234
3873.59693 1.33419
3871.54850 1.33668
3869.50006 1.33973
3867.45162 1.33969
3865.40318 1.33870
3863.35474 1.34026
3861.30630 1.33913
3859.25787 1.33594
3857.20943 1.33403
3855.16099 1.33577
3853.11255 1.34687
3851.06411 1.34991
3849.01567 1.34301
3846.96724 1.33735
3844.91880 1.33611
3842.87036 1.33912
3840.82192 1.34400
3838.77348 1.34971
3836.72504 1.35181
3834.67661 1.34857
3832.62817 1.34429
3830.57973 1.34045
3828.53129 1.33812
3826.48285 1.33855
3824.43441 1.33937
3822.38598 1.34165
3820.33754 1.34820
3818.28910 1.34873
3816.24066 1.34564
3814.19222 1.34260
3812.14378 1.33823
3810.09535 1.33475
3808.04691 1.33513
3805.99847 1.33814
3803.95003 1.33847
3801.90159 1.34132
3799.85315 1.34612
3797.80472 1.34528
3795.75628 1.34256
3793.70784 1.33903
3791.65940 1.33603
3789.61096 1.33540
3787.56252 1.33654
3785.51409 1.33906
3783.46565 1.34061
3781.41721 1.34036
3779.36877 1.34103
3777.32033 1.34162
3775.27189 1.34094
3773.22346 1.34068
3771.17502 1.34268
3769.12658 1.34655
3767.07814 1.34848
3765.02970 1.34898
3762.98126 1.34889
3760.93283 1.34949
3758.88439 1.35391
3756.83595 1.35730
3754.78751 1.35718
3752.73907 1.35972
3750.69063 1.36976
3748.64219 1.37416
3746.59376 1.37119
3744.54532 1.37412
3742.49688 1.38037
3740.44844 1.38123
3738.40000 1.38217
3736.35156 1.39055
3734.30313 1.40336
3732.25469 1.40880
3730.20625 1.40963
3728.15781 1.41230
3726.10937 1.42078
3724.06093 1.43348
3722.01250 1.44677
3719.96406 1.46084
3717.91562 1.47659
3715.86718 1.49377
3713.81874 1.51585
3711.77030 1.55546
3709.72187 1.60586
3707.67343 1.64564
3705.62499 1.68398
3703.57655 1.73216
3701.52811 1.79142
3699.47967 1.83449
3697.43124 1.84745
3695.38280 1.84033
3693.33436 1.82226
3691.28592 1.79765
3689.23748 1.76597
3687.18904 1.73719
3685.14061 1.71894
3683.09217 1.70765
3681.04373 1.70440
3678.99529 1.70914
3676.94685 1.72407
3674.89841 1.75301
3672.84998 1.77312
3670.80154 1.78902
3668.75310 1.80181
3666.70466 1.79900
3664.65622 1.79488
3662.60778 1.79802
3660.55935 1.80845
3658.51091 1.82533
3656.46247 1.84770
3654.41403 1.86505
3652.36559 1.87250
3650.31715 1.87681
3648.26872 1.87656
3646.22028 1.86838
3644.17184 1.86107
3642.12340 1.85883
3640.07496 1.86061
3638.02652 1.86418
3635.97809 1.87053
3633.92965 1.87908
3631.88121 1.88759
3629.83277 1.89957
3627.78433 1.91775
3625.73589 1.93470
3623.68746 1.95597
3621.63902 1.97948
3619.59058 1.98574
3617.54214 1.95970
3615.49370 1.92771
3613.44526 1.90426
3611.39682 1.88926
3609.34839 1.88194
3607.29995 1.87387
3605.25151 1.86250
3603.20307 1.85421
3601.15463 1.84707
3599.10619 1.83844
3597.05776 1.83114
3595.00932 1.82462
3592.96088 1.81618
3590.91244 1.80870
3588.86400 1.80435
3586.81556 1.80068
3584.76713 1.79531
3582.71869 1.79078
3580.67025 1.78793
3578.62181 1.78491
3576.57337 1.78161
3574.52493 1.77853
3572.47650 1.77544
3570.42806 1.77411
3568.37962 1.77692
3566.33118 1.78096
3564.28274 1.77945
3562.23430 1.77488
3560.18587 1.77109
3558.13743 1.76969
3556.08899 1.77065
3554.04055 1.77261
3551.99211 1.77306
3549.94367 1.77213
3547.89524 1.77403
3545.84680 1.77775
3543.79836 1.77704
3541.74992 1.77470
3539.70148 1.77452
3537.65304 1.77530
3535.60461 1.77562
3533.55617 1.77602
3531.50773 1.77836
3529.45929 1.78184
3527.41085 1.78417
3525.36241 1.78583
3523.31398 1.78685
3521.26554 1.78590
3519.21710 1.78594
3517.16866 1.78900
3515.12022 1.79183
3513.07178 1.79302
3511.02335 1.79472
3508.97491 1.79775
3506.92647 1.80088
3504.87803 1.80423
3502.82959 1.80726
3500.78115 1.80916
3498.73272 1.81169
3496.68428 1.81444
3494.63584 1.81608
3492.58740 1.81742
3490.53896 1.81875
3488.49052 1.82097
3486.44209 1.82478
3484.39365 1.82811
3482.34521 1.83099
3480.29677 1.83446
3478.24833 1.83762
3476.19989 1.84129
3474.15146 1.84613
3472.10302 1.85178
3470.05458 1.85754
3468.00614 1.86227
3465.95770 1.86748
3463.90926 1.87536
3461.86082 1.88307
3459.81239 1.88752
3457.76395 1.89155
3455.71551 1.89695
3453.66707 1.90294
3451.61863 1.91010
3449.57019 1.91779
3447.52176 1.92533
3445.47332 1.93301
3443.42488 1.94038
3441.37644 1.94674
3439.32800 1.95244
3437.27956 1.95708
3435.23113 1.95788
3433.18269 1.95697
3431.13425 1.95910
3429.08581 1.96361
3427.03737 1.96757
3424.98893 1.96929
3422.94050 1.97034
3420.89206 1.97199
3418.84362 1.97083
3416.79518 1.96792
3414.74674 1.96768
3412.69830 1.96855
3410.64987 1.96935
3408.60143 1.97185
3406.55299 1.97382
3404.50455 1.97369
3402.45611 1.97337
3400.40767 1.97319
3398.35924 1.97435
3396.31080 1.97687
3394.26236 1.97814
3392.21392 1.97985
3390.16548 1.98365
3388.11704 1.98603
3386.06861 1.98530
3384.02017 1.98499
3381.97173 1.98624
3379.92329 1.98717
3377.87485 1.98688
3375.82641 1.98561
3373.77798 1.98569
3371.72954 1.98779
3369.68110 1.98915
3367.63266 1.98810
3365.58422 1.98624
3363.53578 1.98456
3361.48735 1.98226
3359.43891 1.97921
3357.39047 1.97651
3355.34203 1.97485
3353.29359 1.97390
3351.24515 1.97296
3349.19672 1.97118
3347.14828 1.96795
3345.09984 1.96417
3343.05140 1.96152
3341.00296 1.96073
3338.95452 1.96049
3336.90609 1.95855
3334.85765 1.95500
3332.80921 1.95140
3330.76077 1.94853
3328.71233 1.94660
3326.66389 1.94613
3324.61545 1.94559
3322.56702 1.94245
3320.51858 1.94075
3318.47014 1.94463
3316.42170 1.94889
3314.37326 1.94788
3312.32482 1.94521
3310.27639 1.94535
3308.22795 1.94571
3306.17951 1.94282
3304.13107 1.93930
3302.08263 1.93864
3300.03419 1.93915
3297.98576 1.93899
3295.93732 1.93769
3293.88888 1.93629
3291.84044 1.93648
3289.79200 1.93677
3287.74356 1.93542
3285.69513 1.93245
3283.64669 1.92915
3281.59825 1.92641
3279.54981 1.92392
3277.50137 1.92214
3275.45293 1.92126
3273.40450 1.91943
3271.35606 1.91581
3269.30762 1.91176
3267.25918 1.90909
3265.21074 1.90856
3263.16230 1.90772
3261.11387 1.90501
3259.06543 1.90251
3257.01699 1.90117
3254.96855 1.90014
3252.92011 1.89910
3250.87167 1.89775
3248.82324 1.89591
3246.77480 1.89349
3244.72636 1.89112
3242.67792 1.88969
3240.62948 1.88762
3238.58104 1.88380
3236.53261 1.88044
3234.48417 1.87914
3232.43573 1.87864
3230.38729 1.87646
3228.33885 1.87266
3226.29041 1.86948
3224.24198 1.86739
3222.19354 1.86664
3220.14510 1.86645
3218.09666 1.86332
3216.04822 1.85770
3213.99978 1.85408
3211.95135 1.85348
3209.90291 1.85297
3207.85447 1.85105
3205.80603 1.84947
3203.75759 1.84862
3201.70915 1.84675
3199.66072 1.84370
3197.61228 1.84090
3195.56384 1.83942
3193.51540 1.83818
3191.46696 1.83539
3189.41852 1.83195
3187.37008 1.82940
3185.32165 1.82743
3183.27321 1.82589
3181.22477 1.82438
3179.17633 1.82178
3177.12789 1.81854
3175.07945 1.81579
3173.03102 1.81396
3170.98258 1.81304
3168.93414 1.81175
3166.88570 1.80907
3164.83726 1.80559
3162.78882 1.80189
3160.74039 1.79843
3158.69195 1.79598
3156.64351 1.79376
3154.59507 1.79065
3152.54663 1.78799
3150.49819 1.78590
3148.44976 1.78350
3146.40132 1.78176
3144.35288 1.78086
3142.30444 1.77909
3140.25600 1.77561
3138.20756 1.77210
3136.15913 1.76997
3134.11069 1.76844
3132.06225 1.76669
3130.01381 1.76523
3127.96537 1.76385
3125.91693 1.76181
3123.86850 1.76018
3121.82006 1.75984
3119.77162 1.76018
3117.72318 1.76007
3115.67474 1.75904
3113.62630 1.75724
3111.57787 1.75471
3109.52943 1.75210
3107.48099 1.75061
3105.43255 1.75081
3103.38411 1.75218
3101.33567 1.75322
3099.28724 1.75321
3097.23880 1.75267
3095.19036 1.75118
3093.14192 1.74879
3091.09348 1.74803
3089.04504 1.74935
3086.99661 1.74961
3084.94817 1.74868
3082.89973 1.74917
3080.85129 1.75060
3078.80285 1.75143
3076.75441 1.75220
3074.70598 1.75307
3072.65754 1.75330
3070.60910 1.75329
3068.56066 1.75401
3066.51222 1.75562
3064.46378 1.75793
3062.41535 1.76114
3060.36691 1.76469
3058.31847 1.76789
3056.27003 1.77109
3054.22159 1.77481
3052.17315 1.77926
3050.12471 1.78500
3048.07628 1.79203
3046.02784 1.79988
3043.97940 1.80908
3041.93096 1.81878
3039.88252 1.82824
3037.83408 1.83932
3035.78565 1.85279
3033.73721 1.86693
3031.68877 1.87996
3029.64033 1.89219
3027.59189 1.90543
3025.54345 1.92002
3023.49502 1.93435
3021.44658 1.94873
3019.39814 1.96338
3017.34970 1.97742
3015.30126 1.99296
3013.25282 2.01058
3011.20439 2.02817
3009.15595 2.04423
3007.10751 2.05934
3005.05907 2.07408
3003.01063 2.08638
3000.96219 2.09614
2998.91376 2.10556
2996.86532 2.11481
2994.81688 2.12237
2992.76844 2.12709
2990.72000 2.12972
2988.67156 2.13140
2986.62313 2.13122
2984.57469 2.13137
2982.52625 2.13573
2980.47781 2.14309
2978.42937 2.15302
2976.38093 2.16899
2974.33250 2.19119
2972.28406 2.21374
2970.23562 2.23469
2968.18718 2.25699
2966.13874 2.27726
2964.09030 2.29230
2962.04187 2.30365
2959.99343 2.30893
2957.94499 2.30759
2955.89655 2.30280
2953.84811 2.29518
2951.79967 2.28601
2949.75124 2.27731
2947.70280 2.26926
2945.65436 2.26197
2943.60592 2.25573
2941.55748 2.25022
2939.50904 2.24745
2937.46061 2.24711
2935.41217 2.24591
2933.36373 2.24561
2931.31529 2.24384
2929.26685 2.23381
2927.21841 2.21893
2925.16998 2.20722
2923.12154 2.19936
2921.07310 2.19174
2919.02466 2.18427
2916.97622 2.17706
2914.92778 2.16645
2912.87934 2.15179
2910.83091 2.13617
2908.78247 2.12145
2906.73403 2.11037
2904.68559 2.10391
2902.63715 2.09735
2900.58871 2.08924
2898.54028 2.08277
2896.49184 2.07739
2894.44340 2.07165
2892.39496 2.06550
2890.34652 2.05969
2888.29808 2.05657
2886.24965 2.05562
2884.20121 2.05649
2882.15277 2.06322
2880.10433 2.07697
2878.05589 2.09351
2876.00745 2.10693
2873.95902 2.10985
2871.91058 2.09922
2869.86214 2.08169
2867.81370 2.06373
2865.76526 2.04430
2863.71682 2.02247
2861.66839 2.00055
2859.61995 1.97902
2857.57151 1.95948
2855.52307 1.94699
2853.47463 1.94196
2851.42619 1.93865
2849.37776 1.93245
2847.32932 1.92063
2845.28088 1.90224
2843.23244 1.88074
2841.18400 1.86088
2839.13556 1.84209
2837.08713 1.82096
2835.03869 1.79964
2832.99025 1.78127
2830.94181 1.76422
2828.89337 1.74775
2826.84493 1.73305
2824.79650 1.71996
2822.74806 1.70792
2820.69962 1.69624
2818.65118 1.68436
2816.60274 1.67227
2814.55430 1.66062
2812.50587 1.65017
2810.45743 1.64079
2808.40899 1.63242
2806.36055 1.62487
2804.31211 1.61778
2802.26367 1.61136
2800.21524 1.60590
2798.16680 1.60105
2796.11836 1.59617
2794.06992 1.59176
2792.02148 1.58879
2789.97304 1.58664
2787.92461 1.58396
2785.87617 1.58080
2783.82773 1.57761
2781.77929 1.57453
2779.73085 1.57166
2777.68241 1.56901
2775.63397 1.56717
2773.58554 1.56655
2771.53710 1.56599
2769.48866 1.56444
2767.44022 1.56254
2765.39178 1.56107
2763.34334 1.56018
2761.29491 1.55916
2759.24647 1.55727
2757.19803 1.55479
2755.14959 1.55268
2753.10115 1.55158
2751.05271 1.55088
2749.00428 1.55054
2746.95584 1.55101
2744.90740 1.55152
2742.85896 1.55160
2740.81052 1.55141
2738.76208 1.55040
2736.71365 1.54843
2734.66521 1.54597
2732.61677 1.54269
2730.56833 1.53809
2728.51989 1.53267
2726.47145 1.52797
2724.42302 1.52453
2722.37458 1.52161
2720.32614 1.51851
2718.27770 1.51448
2716.22926 1.50976
2714.18082 1.50580
2712.13239 1.50291
2710.08395 1.50032
2708.03551 1.49794
2705.98707 1.49609
2703.93863 1.49484
2701.89019 1.49445
2699.84176 1.49441
2697.79332 1.49384
2695.74488 1.49314
2693.69644 1.49247
2691.64800 1.49117
2689.59956 1.48958
2687.55113 1.48807
2685.50269 1.48656
2683.45425 1.48530
2681.40581 1.48449
2679.35737 1.48415
2677.30893 1.48411
2675.26050 1.48422
2673.21206 1.48466
2671.16362 1.48524
2669.11518 1.48581
2667.06674 1.48660
2665.01830 1.48744
2662.96987 1.48787
2660.92143 1.48736
2658.87299 1.48560
2656.82455 1.48285
2654.77611 1.47989
2652.72767 1.47731
2650.67924 1.47532
2648.63080 1.47394
2646.58236 1.47275
2644.53392 1.47093
2642.48548 1.46889
2640.43704 1.46775
2638.38860 1.46764
2636.34017 1.46827
2634.29173 1.46878
2632.24329 1.46853
2630.19485 1.46824
2628.14641 1.46840
2626.09797 1.46848
2624.04954 1.46828
2622.00110 1.46800
2619.95266 1.46689
2617.90422 1.46492
2615.85578 1.46370
2613.80734 1.46400
2611.75891 1.46490
2609.71047 1.46581
2607.66203 1.46666
2605.61359 1.46751
2603.56515 1.46877
2601.51671 1.46990
2599.46828 1.46988
2597.41984 1.46930
2595.37140 1.46898
2593.32296 1.46836
2591.27452 1.46703
2589.22608 1.46557
2587.17765 1.46434
2585.12921 1.46283
2583.08077 1.46084
2581.03233 1.45883
2578.98389 1.45716
2576.93545 1.45618
2574.88702 1.45566
2572.83858 1.45502
2570.79014 1.45440
2568.74170 1.45378
2566.69326 1.45256
2564.64482 1.45091
2562.59639 1.44935
2560.54795 1.44770
2558.49951 1.44600
2556.45107 1.44466
2554.40263 1.44353
2552.35419 1.44209
2550.30576 1.44062
2548.25732 1.43937
2546.20888 1.43810
2544.16044 1.43706
2542.11200 1.43646
2540.06356 1.43623
2538.01513 1.43601
2535.96669 1.43525
2533.91825 1.43382
2531.86981 1.43226
2529.82137 1.43120
2527.77293 1.43052
2525.72450 1.42978
2523.67606 1.42926
2521.62762 1.42877
2519.57918 1.42772
2517.53074 1.42689
2515.48230 1.42688
2513.43387 1.42699
2511.38543 1.42673
2509.33699 1.42613
2507.28855 1.42536
2505.24011 1.42462
2503.19167 1.42413
2501.14324 1.42370
2499.09480 1.42323
2497.04636 1.42277
2494.99792 1.42212
2492.94948 1.42160
2490.90104 1.42159
2488.85260 1.42176
2486.80417 1.42154
2484.75573 1.42085
2482.70729 1.41988
2480.65885 1.41894
2478.61041 1.41853
2476.56197 1.41848
2474.51354 1.41832
2472.46510 1.41806
2470.41666 1.41769
2468.36822 1.41725
2466.31978 1.41738
2464.27134 1.41817
2462.22291 1.41873
2460.17447 1.41865
2458.12603 1.41840
2456.07759 1.41871
2454.02915 1.41993
2451.98071 1.42122
2449.93228 1.42148
2447.88384 1.42095
2445.83540 1.42056
2443.78696 1.42063
2441.73852 1.42127
2439.69008 1.42246
2437.64165 1.42337
2435.59321 1.42377
2433.54477 1.42445
2431.49633 1.42568
2429.44789 1.42737
2427.39945 1.42910
2425.35102 1.43021
2423.30258 1.43094
2421.25414 1.43178
2419.20570 1.43284
2417.15726 1.43375
2415.10882 1.43394
2413.06039 1.43421
2411.01195 1.43519
2408.96351 1.43605
2406.91507 1.43638
2404.86663 1.43688
2402.81819 1.43790
2400.76976 1.43871
2398.72132 1.43889
2396.67288 1.43844
2394.62444 1.43745
2392.57600 1.43644
2390.52756 1.43567
2388.47913 1.43535
2386.43069 1.43574
2384.38225 1.43712
2382.33381 1.43978
2380.28537 1.44286
2378.23693 1.44539
2376.18850 1.44807
2374.14006 1.45177
2372.09162 1.45624
2370.04318 1.46065
2367.99474 1.46455
2365.94630 1.46819
2363.89787 1.47198
2361.84943 1.47546
2359.80099 1.47751
2357.75255 1.47815
2355.70411 1.47725
2353.65567 1.47497
2351.60723 1.47224
2349.55880 1.46986
2347.51036 1.46994
2345.46192 1.47535
2343.41348 1.48470
2341.36504 1.49100
2339.31660 1.49230
2337.26817 1.49313
2335.21973 1.49563
2333.17129 1.49674
2331.12285 1.49446
2329.07441 1.49003
2327.02597 1.48444
2324.97754 1.47855
2322.92910 1.47384
2320.88066 1.46981
2318.83222 1.46496
2316.78378 1.45994
2314.73534 1.45670
2312.68691 1.45524
2310.63847 1.45371
2308.59003 1.45146
2306.54159 1.44950
2304.49315 1.44844
2302.44471 1.44771
2300.39628 1.44677
2298.34784 1.44563
2296.29940 1.44439
2294.25096 1.44323
2292.20252 1.44215
2290.15408 1.44105
2288.10565 1.44047
2286.05721 1.44055
2284.00877 1.44085
2281.96033 1.44126
2279.91189 1.44171
2277.86345 1.44200
2275.81502 1.44264
2273.76658 1.44377
2271.71814 1.44456
2269.66970 1.44468
2267.62126 1.44447
2265.57282 1.44423
2263.52439 1.44406
2261.47595 1.44414
2259.42751 1.44454
2257.37907 1.44535
2255.33063 1.44652
2253.28219 1.44732
2251.23376 1.44715
2249.18532 1.44630
2247.13688 1.44567
2245.08844 1.44590
2243.04000 1.44667
2240.99156 1.44717
2238.94313 1.44711
2236.89469 1.44664
2234.84625 1.44625
2232.79781 1.44646
2230.74937 1.44714
2228.70093 1.44816
2226.65250 1.44915
2224.60406 1.44980
2222.55562 1.45085
2220.50718 1.45212
2218.45874 1.45259
2216.41030 1.45298
2214.36186 1.45410
2212.31343 1.45526
2210.26499 1.45593
2208.21655 1.45613
2206.16811 1.45605
2204.11967 1.45632
2202.07123 1.45732
2200.02280 1.45869
2197.97436 1.45978
2195.92592 1.46027
2193.87748 1.46025
2191.82904 1.46016
2189.78060 1.46099
2187.73217 1.46276
2185.68373 1.46431
2183.63529 1.46554
2181.58685 1.46711
2179.53841 1.46869
2177.48997 1.46972
2175.44154 1.47020
2173.39310 1.46990
2171.34466 1.46932
2169.29622 1.46957
2167.24778 1.47087
2165.19934 1.47249
2163.15091 1.47386
2161.10247 1.47463
2159.05403 1.47508
2157.00559 1.47556
2154.95715 1.47586
2152.90871 1.47659
2150.86028 1.47814
2148.81184 1.48017
2146.76340 1.48249
2144.71496 1.48469
2142.66652 1.48635
2140.61808 1.48743
2138.56965 1.48831
2136.52121 1.48910
2134.47277 1.48967
2132.42433 1.49007
2130.37589 1.49118
2128.32745 1.49373
2126.27902 1.49639
2124.23058 1.49791
2122.18214 1.49902
2120.13370 1.50028
2118.08526 1.50103
2116.03682 1.50122
2113.98839 1.50176
2111.93995 1.50292
2109.89151 1.50407
2107.84307 1.50500
2105.79463 1.50620
2103.74619 1.50719
2101.69776 1.50756
2099.64932 1.50832
2097.60088 1.50993
2095.55244 1.51241
2093.50400 1.51557
2091.45556 1.51821
2089.40713 1.51966
2087.35869 1.52032
2085.31025 1.52031
2083.26181 1.52003
2081.21337 1.52036
2079.16493 1.52130
2077.11649 1.52194
2075.06806 1.52188
2073.01962 1.52177
2070.97118 1.52231
2068.92274 1.52360
2066.87430 1.52544
2064.82586 1.52812
2062.77743 1.53145
2060.72899 1.53450
2058.68055 1.53702
2056.63211 1.53967
2054.58367 1.54325
2052.53523 1.54709
2050.48680 1.54987
2048.43836 1.55259
2046.38992 1.55625
2044.34148 1.55936
2042.29304 1.56113
2040.24460 1.56247
2038.19617 1.56350
2036.14773 1.56397
2034.09929 1.56394
2032.05085 1.56341
2030.00241 1.56299
2027.95397 1.56326
2025.90554 1.56364
2023.85710 1.56382
2021.80866 1.56485
2019.76022 1.56772
2017.71178 1.57184
2015.66334 1.57542
2013.61491 1.57815
2011.56647 1.58135
2009.51803 1.58520
2007.46959 1.58872
2005.42115 1.59167
2003.37271 1.59458
2001.32428 1.59756
1999.27584 1.60016
1997.22740 1.60192
1995.17896 1.60325
1993.13052 1.60492
1991.08208 1.60637
1989.03365 1.60709
1986.98521 1.60775
1984.93677 1.60874
1982.88833 1.60967
1980.83989 1.60969
1978.79145 1.60918
1976.74302 1.60925
1974.69458 1.60943
1972.64614 1.60873
1970.59770 1.60781
1968.54926 1.60817
1966.50082 1.60913
1964.45239 1.60867
1962.40395 1.60655
1960.35551 1.60357
1958.30707 1.60078
1956.25863 1.59935
1954.21019 1.59904
1952.16176 1.59848
1950.11332 1.59799
1948.06488 1.59897
1946.01644 1.60122
1943.96800 1.60295
1941.91956 1.60240
1939.87112 1.59987
1937.82269 1.59782
1935.77425 1.59741
1933.72581 1.59755
1931.67737 1.59728
1929.62893 1.59700
1927.58049 1.59726
1925.53206 1.59826
1923.48362 1.60047
1921.43518 1.60292
1919.38674 1.60542
1917.33830 1.60857
1915.28986 1.61060
1913.24143 1.61218
1911.19299 1.61490
1909.14455 1.61808
1907.09611 1.61990
1905.04767 1.62080
1902.99923 1.62257
1900.95080 1.62505
1898.90236 1.62724
1896.85392 1.62959
1894.80548 1.63269
1892.75704 1.63628
1890.70860 1.64103
1888.66017 1.64522
1886.61173 1.64597
1884.56329 1.64589
1882.51485 1.64742
1880.46641 1.64935
1878.41797 1.65040
1876.36954 1.65108
1874.32110 1.65246
1872.27266 1.65509
1870.22422 1.65949
1868.17578 1.66407
1866.12734 1.66445
1864.07891 1.66247
1862.03047 1.66156
1859.98203 1.66181
1857.93359 1.66088
1855.88515 1.65879
1853.83671 1.65794
1851.78828 1.65886
1849.73984 1.66045
1847.69140 1.66177
1845.64296 1.66380
1843.59452 1.66713
1841.54608 1.66860
1839.49765 1.66881
1837.44921 1.67035
1835.40077 1.67309
1833.35233 1.67654
1831.30389 1.68177
1829.25545 1.68740
1827.20702 1.69024
1825.15858 1.69285
1823.11014 1.69537
1821.06170 1.69637
1819.01326 1.69838
1816.96482 1.70223
1814.91639 1.70664
1812.86795 1.71197
1810.81951 1.71906
1808.77107 1.72570
1806.72263 1.73059
1804.67419 1.73487
1802.62575 1.74012
1800.57732 1.74741
1798.52888 1.75465
1796.48044 1.75976
1794.43200 1.76437
1792.38356 1.77198
1790.33512 1.77775
1788.28669 1.77923
1786.23825 1.78198
1784.18981 1.78667
1782.14137 1.79235
1780.09293 1.80015
1778.04449 1.80814
1775.99606 1.81639
1773.94762 1.83059
1771.89918 1.85483
1769.85074 1.87759
1767.80230 1.89559
1765.75386 1.91381
1763.70543 1.93509
1761.65699 1.96754
1759.60855 2.00360
1757.56011 2.04164
1755.51167 2.08805
1753.46323 2.13665
1751.41480 2.20089
1749.36636 2.29476
1747.31792 2.39326
1745.26948 2.47601
1743.22104 2.53508
1741.17260 2.55969
1739.12417 2.55498
1737.07573 2.53796
1735.02729 2.51687
1732.97885 2.48181
1730.93041 2.44821
1728.88197 2.42302
1726.83354 2.40591
1724.78510 2.39330
1722.73666 2.38334
1720.68822 2.37933
1718.63978 2.37685
1716.59134 2.35689
1714.54291 2.31933
1712.49447 2.28829
1710.44603 2.26321
1708.39759 2.24138
1706.34915 2.21906
1704.30071 2.19880
1702.25228 2.18584
1700.20384 2.17461
1698.15540 2.15998
1696.10696 2.14158
1694.05852 2.12329
1692.01008 2.11016
1689.96165 2.09960
1687.91321 2.09175
1685.86477 2.08650
1683.81633 2.07544
1681.76789 2.05919
1679.71945 2.04457
1677.67102 2.03000
1675.62258 2.01129
1673.57414 1.99241
1671.52570 1.98094
1669.47726 1.96910
1667.42882 1.95618
1665.38038 1.94834
1663.33195 1.94308
1661.28351 1.93816
1659.23507 1.93551
1657.18663 1.93524
1655.13819 1.93660
1653.08975 1.94068
1651.04132 1.94111
1648.99288 1.94058
1646.94444 1.94225
1644.89600 1.93945
1642.84756 1.93549
1640.79912 1.93507
1638.75069 1.93702
1636.70225 1.93939
1634.65381 1.93718
1632.60537 1.93295
1630.55693 1.93149
1628.50849 1.93113
1626.46006 1.92897
1624.41162 1.92659
1622.36318 1.92504
1620.31474 1.92273
1618.26630 1.91993
1616.21786 1.91504
1614.16943 1.90824
1612.12099 1.90176
1610.07255 1.89548
1608.02411 1.88951
1605.97567 1.88405
1603.92723 1.87895
1601.87880 1.87301
1599.83036 1.86641
1597.78192 1.86220
1595.73348 1.85963
1593.68504 1.85482
1591.63660 1.84857
1589.58817 1.84439
1587.53973 1.84264
1585.49129 1.84146
1583.44285 1.83966
1581.39441 1.83674
1579.34597 1.83429
1577.29754 1.83411
1575.24910 1.83371
1573.20066 1.83093
1571.15222 1.82984
1569.10378 1.83097
1567.05534 1.83070
1565.00691 1.82910
1562.95847 1.82727
1560.91003 1.82767
1558.86159 1.83410
1556.81315 1.83456
1554.76471 1.83017
1552.71628 1.82772
1550.66784 1.82597
1548.61940 1.82412
1546.57096 1.82523
1544.52252 1.83206
1542.47408 1.84353
1540.42565 1.85290
1538.37721 1.84761
1536.32877 1.84165
1534.28033 1.84246
1532.23189 1.84568
1530.18345 1.84759
1528.13501 1.85278
1526.08658 1.86069
1524.03814 1.86660
1521.98970 1.87443
1519.94126 1.88109
1517.89282 1.88297
1515.84438 1.88370
1513.79595 1.88345
1511.74751 1.88601
1509.69907 1.89322
1507.65063 1.91049
1505.60219 1.93969
1503.55375 1.95820
1501.50532 1.97736
1499.45688 2.01071
1497.40844 2.06966
1495.36000 2.13737
1493.31156 2.18685
1491.26312 2.23727
1489.21469 2.29933
1487.16625 2.32926
1485.11781 2.32761
1483.06937 2.32183
1481.02093 2.32052
1478.97249 2.32244
1476.92406 2.32772
1474.87562 2.33927
1472.82718 2.34975
1470.77874 2.34877
1468.73030 2.34734
1466.68186 2.35203
1464.63343 2.35789
1462.58499 2.35961
1460.53655 2.36403
1458.48811 2.37847
1456.43967 2.38943
1454.39123 2.38056
1452.34280 2.37256
1450.29436 2.36931
1448.24592 2.36830
1446.19748 2.35938
1444.14904 2.34171
1442.10060 2.32439
1440.05217 2.31376
1438.00373 2.31047
1435.95529 2.30780
1433.90685 2.29842
1431.85841 2.27897
1429.80997 2.24301
1427.76154 2.20043
1425.71310 2.16298
1423.66466 2.13067
1421.61622 2.10967
1419.56778 2.09875
1417.51934 2.08924
1415.47091 2.08018
1413.42247 2.07698
1411.37403 2.08352
1409.32559 2.09639
1407.27715 2.11130
1405.22871 2.13014
1403.18028 2.14799
1401.13184 2.16013
1399.08340 2.17068
1397.03496 2.18002
1394.98652 2.19186
1392.93808 2.20862
1390.88965 2.22553
1388.84121 2.24035
1386.79277 2.24680
1384.74433 2.24241
1382.69589 2.23429
1380.64745 2.22281
1378.59901 2.20329
1376.55058 2.17724
1374.50214 2.15117
1372.45370 2.13258
1370.40526 2.12499
1368.35682 2.12445
1366.30838 2.12532
1364.25995 2.12405
1362.21151 2.11760
1360.16307 2.10783
1358.11463 2.10051
1356.06619 2.09551
1354.01775 2.08952
1351.96932 2.08123
1349.92088 2.07247
1347.87244 2.06540
1345.82400 2.05969
1343.77556 2.05348
1341.72712 2.04726
1339.67869 2.04127
1337.63025 2.03455
1335.58181 2.02854
1333.53337 2.02521
1331.48493 2.02647
1329.43649 2.03229
1327.38806 2.04128
1325.33962 2.05212
1323.29118 2.06210
1321.24274 2.07001
1319.19430 2.07729
1317.14586 2.08523
1315.09743 2.09524
1313.04899 2.10928
1311.00055 2.12652
1308.95211 2.14238
1306.90367 2.15357
1304.85523 2.16154
1302.80680 2.17002
1300.75836 2.18160
1298.70992 2.19402
1296.66148 2.20317
1294.61304 2.21118
1292.56460 2.22268
1290.51617 2.23984
1288.46773 2.26320
1286.41929 2.29147
1284.37085 2.32115
1282.32241 2.34998
1280.27397 2.38131
1278.22554 2.41401
1276.17710 2.43886
1274.12866 2.45496
1272.08022 2.46385
1270.03178 2.46246
1267.98334 2.45730
1265.93491 2.45492
1263.88647 2.45265
1261.83803 2.45078
1259.78959 2.45072
1257.74115 2.45202
1255.69271 2.46053
1253.64428 2.47611
1251.59584 2.48858
1249.54740 2.49692
1247.49896 2.50592
1245.45052 2.51326
1243.40208 2.51291
1241.35364 2.50568
1239.30521 2.49748
1237.25677 2.48566
1235.20833 2.46918
1233.15989 2.45371
1231.11145 2.43671
1229.06301 2.41665
1227.01458 2.40182
1224.96614 2.39434
1222.91770 2.38629
1220.86926 2.37652
1218.82082 2.37063
1216.77238 2.37001
1214.72395 2.37432
1212.67551 2.38464
1210.62707 2.40380
1208.57863 2.42948
1206.53019 2.45377
1204.48175 2.47412
1202.43332 2.49027
1200.38488 2.50266
1198.33644 2.51201
1196.28800 2.51534
1194.23956 2.51674
1192.19112 2.51916
1190.14269 2.51717
1188.09425 2.51587
1186.04581 2.51620
1183.99737 2.50928
1181.94893 2.50186
1179.90049 2.49985
1177.85206 2.49829
1175.80362 2.49721
1173.75518 2.49688
1171.70674 2.49408
1169.65830 2.49027
1167.60986 2.48741
1165.56143 2.48311
1163.51299 2.47840
1161.46455 2.47712
1159.41611 2.47907
1157.36767 2.47552
1155.31923 2.45979
1153.27080 2.44008
1151.22236 2.42255
1149.17392 2.40464
1147.12548 2.38780
1145.07704 2.37645
1143.02860 2.36991
1140.98017 2.36588
1138.93173 2.36439
1136.88329 2.36189
1134.83485 2.35632
1132.78641 2.35363
1130.73797 2.35649
1128.68954 2.35987
1126.64110 2.36204
1124.59266 2.36330
1122.54422 2.35986
1120.49578 2.35398
1118.44734 2.35360
1116.39891 2.35740
1114.35047 2.35993
1112.30203 2.36148
1110.25359 2.36178
1108.20515 2.35945
1106.15671 2.35602
1104.10827 2.35424
1102.05984 2.35679
1100.01140 2.36382
1097.96296 2.36812
1095.91452 2.36548
1093.86608 2.36386
1091.81764 2.36599
1089.76921 2.36775
1087.72077 2.37079
1085.67233 2.37455
1083.62389 2.37453
1081.57545 2.37277
1079.52701 2.37618
1077.47858 2.38507
1075.43014 2.39084
1073.38170 2.39096
1071.33326 2.39111
1069.28482 2.39267
1067.23638 2.39336
1065.18795 2.39295
1063.13951 2.39289
1061.09107 2.39313
1059.04263 2.39146
1056.99419 2.38468
1054.94575 2.37458
1052.89732 2.36453
1050.84888 2.35382
1048.80044 2.34359
1046.75200 2.33457
1044.70356 2.32663
1042.65512 2.32099
1040.60669 2.31616
1038.55825 2.31113
1036.50981 2.30892
1034.46137 2.31227
1032.41293 2.32047
1030.36449 2.33287
1028.31606 2.34812
1026.26762 2.36077
1024.21918 2.37048
1022.17074 2.38041
1020.12230 2.38599
1018.07386 2.38541
1016.02543 2.38208
1013.97699 2.37361
1011.92855 2.36067
1009.88011 2.35365
1007.83167 2.35735
1005.78323 2.36601
1003.73480 2.37628
1001.68636 2.38851
999.63792 2.40256
997.58948 2.41971
995.54104 2.43626
993.49260 2.44228
991.44417 2.43884
989.39573 2.43832
987.34729 2.44369
985.29885 2.44581
983.25041 2.44193
981.20197 2.44134
979.15354 2.44556
977.10510 2.45019
975.05666 2.45736
973.00822 2.46487
970.95978 2.46987
968.91134 2.47304
966.86290 2.47391
964.81447 2.47614
962.76603 2.48002
960.71759 2.48208
958.66915 2.48150
956.62071 2.47772
954.57227 2.47225
952.52384 2.46865
950.47540 2.46903
948.42696 2.47372
946.37852 2.48071
944.33008 2.48185
942.28164 2.47482
940.23321 2.47000
938.18477 2.47035
936.13633 2.46935
934.08789 2.46730
932.03945 2.46958
929.99101 2.47752
927.94258 2.48606
925.89414 2.48645
923.84570 2.48123
921.79726 2.48085
919.74882 2.48238
917.70038 2.48030
915.65195 2.47823
913.60351 2.47448
911.55507 2.46792
909.50663 2.45943
907.45819 2.44494
905.40975 2.42989
903.36132 2.42094
901.31288 2.41356
899.26444 2.39978
897.21600 2.37581
895.16756 2.34893
893.11912 2.33137
891.07069 2.32472
889.02225 2.32096
886.97381 2.31665
884.92537 2.31629
882.87693 2.32287
880.82849 2.32743
878.78006 2.32135
876.73162 2.31180
874.68318 2.30458
872.63474 2.29857
870.58630 2.29717
868.53786 2.29997
866.48943 2.30276
864.44099 2.30846
862.39255 2.31712
860.34411 2.32446
858.29567 2.33027
856.24723 2.33546
854.19880 2.33931
852.15036 2.34443
850.10192 2.35785
848.05348 2.37852
846.00504 2.39399
843.95660 2.39386
841.90817 2.38128
839.85973 2.36507
837.81129 2.35525
835.76285 2.35522
833.71441 2.35649
831.66597 2.35513
829.61753 2.35224
827.56910 2.35049
825.52066 2.35353
823.47222 2.36160
821.42378 2.37040
819.37534 2.37474
817.32690 2.37220
815.27847 2.36775
813.23003 2.36830
811.18159 2.36557
809.13315 2.36208
807.08471 2.36918
805.03627 2.37937
802.98784 2.38628
800.93940 2.39210
798.89096 2.39699
796.84252 2.39588
794.79408 2.38825
792.74564 2.38539
790.69721 2.38811
788.64877 2.38124
786.60033 2.37181
784.55189 2.37924
782.50345 2.39888
780.45501 2.41704
778.40658 2.42210
776.35814 2.41385
774.30970 2.40410
772.26126 2.39268
770.21282 2.37954
768.16438 2.37915
766.11595 2.40065
764.06751 2.43178
762.01907 2.45247
759.97063 2.46821
757.92219 2.49282
755.87375 2.51117
753.82532 2.50873
751.77688 2.50187
749.72844 2.50424
747.68000 2.49811
745.63156 2.48102
743.58312 2.47609
741.53469 2.47861
739.48625 2.46489
737.43781 2.42077
735.38937 2.37292
733.34093 2.35278
731.29249 2.34333
729.24406 2.32213
727.19562 2.29569
725.14718 2.27764
723.09874 2.26799
721.05030 2.25110
719.00186 2.23081
716.95343 2.22554
714.90499 2.22872
712.85655 2.22080
710.80811 2.20895
708.75967 2.21608
706.71123 2.23584
704.66280 2.25602
702.61436 2.28780
700.56592 2.32119
698.51748 2.33526
696.46904 2.33449
694.42060 2.32063
692.37216 2.30965
690.32373 2.30502
688.27529 2.27860
686.22685 2.26330
684.17841 2.29056
682.12997 2.31398
680.08153 2.31338
678.03310 2.31716
675.98466 2.32075
673.93622 2.31049
671.88778 2.29413
669.83934 2.29297
667.79090 2.30898
665.74247 2.30627
663.69403 2.28906
661.64559 2.26870
659.59715 2.26513
657.54871 2.29071
655.50027 2.32447
653.45184 2.34685
651.40340 2.35865
649.35496 2.35234
647.30652 2.32564
645.25808 2.31184
643.20964 2.33979
641.16121 2.38376
639.11277 2.39276
637.06433 2.40039
635.01589 2.43278
632.96745 2.42639
630.91901 2.38592
628.87058 2.35491
626.82214 2.33204
624.77370 2.33701
622.72526 2.34836
620.67682 2.31283
618.62838 2.27375
616.57995 2.27558
614.53151 2.31982
612.48307 2.39179
610.43463 2.47357
608.38619 2.53660
606.33775 2.50996
604.28932 2.44782
602.24088 2.43587
600.19244 2.41876
598.14400 2.38062
