3996.50324 1.12663
3994.45480 1.12687
3992.40636 1.12621
3990.35792 1.12533
3988.30948 1.12470
3986.26104 1.12453
3984.21261 1.12473
3982.16417 1.12481
3980.11573 1.12455
3978.06729 1.12440
3976.01885 1.12471
3973.97041 1.12502
3971.92198 1.12491
3969.87354 1.12441
3967.82510 1.12375
3965.77666 1.12334
3963.72822 1.12324
3961.67978 1.12301
3959.63135 1.12251
3957.58291 1.12240
3955.53447 1.12279
3953.48603 1.12336
3951.43759 1.12434
3949.38915 1.12561
3947.34072 1.12597
3945.29228 1.12570
3943.24384 1.12596
3941.19540 1.12595
3939.14696 1.12527
3937.09852 1.12483
3935.05009 1.12538
3933.00165 1.12731
3930.95321 1.12890
3928.90477 1.12822
3926.85633 1.12764
3924.80789 1.12875
3922.75946 1.12921
3920.71102 1.12869
3918.66258 1.12869
3916.61414 1.12823
3914.56570 1.12698
3912.51726 1.12602
3910.46883 1.12561
3908.42039 1.12628
3906.37195 1.12911
3904.32351 1.13315
3902.27507 1.13466
3900.22663 1.13348
3898.17820 1.13146
3896.12976 1.12966
3894.08132 1.12977
3892.03288 1.13178
3889.98444 1.13193
3887.93600 1.13038
3885.88756 1.13034
3883.83913 1.13116
3881.79069 1.13119
3879.74225 1.13046
3877.69381 1.12912
3875.64537 1.12950
3873.59693 1.13228
3871.54850 1.13494
3869.50006 1.13564
3867.45162 1.13478
3865.40318 1.13495
3863.35474 1.13488
3861.30630 1.13226
3859.25787 1.13059
3857.20943 1.13151
3855.16099 1.13394
3853.11255 1.13706
3851.06411 1.13627
3849.01567 1.13330
3846.96724 1.13164
3844.91880 1.13220
3842.87036 1.13455
3840.82192 1.13751
3838.77348 1.13948
3836.72504 1.13844
3834.67661 1.13597
3832.62817 1.13410
3830.57973 1.13269
3828.53129 1.13169
3826.48285 1.13171
3824.43441 1.13242
3822.38598 1.13428
3820.33754 1.13689
3818.28910 1.13669
3816.24066 1.13507
3814.19222 1.13254
3812.14378 1.13027
3810.09535 1.12968
3808.04691 1.13137
3805.99847 1.13409
3803.95003 1.13573
3801.90159 1.13765
3799.85315 1.13853
3797.80472 1.13694
3795.75628 1.13461
3793.70784 1.13302
3791.65940 1.13265
3789.61096 1.13298
3787.56252 1.13396
3785.51409 1.13534
3783.46565 1.13541
3781.41721 1.13508
3779.36877 1.13592
3777.32033 1.13602
3775.27189 1.13518
3773.22346 1.13531
3771.17502 1.13698
3769.12658 1.13885
3767.07814 1.13977
3765.02970 1.14051
3762.98126 1.14163
3760.93283 1.14403
3758.88439 1.14767
3756.83595 1.14944
3754.78751 1.15035
3752.73907 1.15403
3750.69063 1.16131
3748.64219 1.16425
3746.59376 1.16368
3744.54532 1.16590
3742.49688 1.17005
3740.44844 1.17250
3738.40000 1.17545
3736.35156 1.18192
3734.30313 1.18817
3732.25469 1.18949
3730.20625 1.19041
3728.15781 1.19428
3726.10937 1.20237
3724.06093 1.21316
3722.01250 1.22460
3719.96406 1.23674
3717.91562 1.25016
3715.86718 1.26493
3713.81874 1.28376
3711.77030 1.31376
3709.72187 1.34684
3707.67343 1.37195
3705.62499 1.39792
3703.57655 1.43089
3701.52811 1.46981
3699.47967 1.49747
3697.43124 1.50563
3695.38280 1.50068
3693.33436 1.48918
3691.28592 1.47216
3689.23748 1.44431
3687.18904 1.41713
3685.14061 1.40149
3683.09217 1.39214
3681.04373 1.38812
3678.99529 1.38926
3676.94685 1.39641
3674.89841 1.41039
3672.84998 1.42078
3670.80154 1.42854
3668.75310 1.43161
3666.70466 1.42823
3664.65622 1.42584
3662.60778 1.42815
3660.55935 1.43508
3658.51091 1.44451
3656.46247 1.45557
3654.41403 1.46363
3652.36559 1.46638
3650.31715 1.46781
3648.26872 1.46344
3646.22028 1.45221
3644.17184 1.44501
3642.12340 1.44195
3640.07496 1.44147
3638.02652 1.44282
3635.97809 1.44545
3633.92965 1.44971
3631.88121 1.45579
3629.83277 1.46592
3627.78433 1.47811
3625.73589 1.48524
3623.68746 1.49517
3621.63902 1.51024
3619.59058 1.51663
3617.54214 1.49917
3615.49370 1.47768
3613.44526 1.46267
3611.39682 1.45241
3609.34839 1.44496
3607.29995 1.43738
3605.25151 1.43107
3603.20307 1.42725
3601.15463 1.42372
3599.10619 1.41855
3597.05776 1.41268
3595.00932 1.40654
3592.96088 1.40038
3590.91244 1.39666
3588.86400 1.39482
3586.81556 1.39039
3584.76713 1.38357
3582.71869 1.37850
3580.67025 1.37518
3578.62181 1.37222
3576.57337 1.36908
3574.52493 1.36580
3572.47650 1.36321
3570.42806 1.36282
3568.37962 1.36483
3566.33118 1.36526
3564.28274 1.36171
3562.23430 1.35834
3560.18587 1.35678
3558.13743 1.35661
3556.08899 1.35734
3554.04055 1.35846
3551.99211 1.35877
3549.94367 1.35840
3547.89524 1.35872
3545.84680 1.35893
3543.79836 1.35743
3541.74992 1.35611
3539.70148 1.35659
3537.65304 1.35814
3535.60461 1.35933
3533.55617 1.36038
3531.50773 1.36216
3529.45929 1.36404
3527.41085 1.36542
3525.36241 1.36670
3523.31398 1.36744
3521.26554 1.36647
3519.21710 1.36500
3517.16866 1.36489
3515.12022 1.36604
3513.07178 1.36780
3511.02335 1.37021
3508.97491 1.37260
3506.92647 1.37408
3504.87803 1.37588
3502.82959 1.37782
3500.78115 1.37792
3498.73272 1.37787
3496.68428 1.37933
3494.63584 1.38129
3492.58740 1.38302
3490.53896 1.38479
3488.49052 1.38674
3486.44209 1.38881
3484.39365 1.39177
3482.34521 1.39564
3480.29677 1.39858
3478.24833 1.40019
3476.19989 1.40168
3474.15146 1.40342
3472.10302 1.40553
3470.05458 1.40847
3468.00614 1.41201
3465.95770 1.41534
3463.90926 1.41830
3461.86082 1.42093
3459.81239 1.42317
3457.76395 1.42494
3455.71551 1.42681
3453.66707 1.42964
3451.61863 1.43279
3449.57019 1.43606
3447.52176 1.43996
3445.47332 1.44311
3443.42488 1.44460
3441.37644 1.44559
3439.32800 1.44723
3437.27956 1.44925
3435.23113 1.45081
3433.18269 1.45239
3431.13425 1.45445
3429.08581 1.45583
3427.03737 1.45628
3424.98893 1.45711
3422.94050 1.45922
3420.89206 1.46238
3418.84362 1.46502
3416.79518 1.46641
3414.74674 1.46750
3412.69830 1.46880
3410.64987 1.47051
3408.60143 1.47242
3406.55299 1.47425
3404.50455 1.47612
3402.45611 1.47753
3400.40767 1.47830
3398.35924 1.47924
3396.31080 1.48062
3394.26236 1.48247
3392.21392 1.48469
3390.16548 1.48595
3388.11704 1.48611
3386.06861 1.48648
3384.02017 1.48726
3381.97173 1.48777
3379.92329 1.48731
3377.87485 1.48575
3375.82641 1.48470
3373.77798 1.48475
3371.72954 1.48464
3369.68110 1.48447
3367.63266 1.48477
3365.58422 1.48472
3363.53578 1.48345
3361.48735 1.48149
3359.43891 1.47982
3357.39047 1.47816
3355.34203 1.47561
3353.29359 1.47299
3351.24515 1.47129
3349.19672 1.46963
3347.14828 1.46818
3345.09984 1.46785
3343.05140 1.46748
3341.00296 1.46642
3338.95452 1.46539
3336.90609 1.46402
3334.85765 1.46166
3332.80921 1.45976
3330.76077 1.46034
3328.71233 1.46207
3326.66389 1.46230
3324.61545 1.46118
3322.56702 1.45983
3320.51858 1.45870
3318.47014 1.45771
3316.42170 1.45676
3314.37326 1.45660
3312.32482 1.45712
3310.27639 1.45729
3308.22795 1.45703
3306.17951 1.45630
3304.13107 1.45478
3302.08263 1.45291
3300.03419 1.45139
3297.98576 1.45050
3295.93732 1.44980
3293.88888 1.44842
3291.84044 1.44648
3289.79200 1.44503
3287.74356 1.44410
3285.69513 1.44305
3283.64669 1.44146
3281.59825 1.43961
3279.54981 1.43803
3277.50137 1.43660
3275.45293 1.43522
3273.40450 1.43421
3271.35606 1.43375
3269.30762 1.43352
3267.25918 1.43319
3265.21074 1.43294
3263.16230 1.43292
3261.11387 1.43238
3259.06543 1.43113
3257.01699 1.43007
3254.96855 1.42962
3252.92011 1.42964
3250.87167 1.42948
3248.82324 1.42873
3246.77480 1.42808
3244.72636 1.42766
3242.67792 1.42674
3240.62948 1.42552
3238.58104 1.42462
3236.53261 1.42391
3234.48417 1.42285
3232.43573 1.42171
3230.38729 1.42093
3228.33885 1.42018
3226.29041 1.41937
3224.24198 1.41855
3222.19354 1.41745
3220.14510 1.41617
3218.09666 1.41517
3216.04822 1.41408
3213.99978 1.41287
3211.95135 1.41200
3209.90291 1.41091
3207.85447 1.40951
3205.80603 1.40803
3203.75759 1.40628
3201.70915 1.40452
3199.66072 1.40343
3197.61228 1.40327
3195.56384 1.40281
3193.51540 1.40111
3191.46696 1.39922
3189.41852 1.39789
3187.37008 1.39676
3185.32165 1.39535
3183.27321 1.39343
3181.22477 1.39169
3179.17633 1.39051
3177.12789 1.38933
3175.07945 1.38818
3173.03102 1.38729
3170.98258 1.38640
3168.93414 1.38514
3166.88570 1.38368
3164.83726 1.38258
3162.78882 1.38170
3160.74039 1.38068
3158.69195 1.37944
3156.64351 1.37812
3154.59507 1.37658
3152.54663 1.37503
3150.49819 1.37432
3148.44976 1.37391
3146.40132 1.37265
3144.35288 1.37102
3142.30444 1.36943
3140.25600 1.36749
3138.20756 1.36520
3136.15913 1.36320
3134.11069 1.36192
3132.06225 1.36100
3130.01381 1.36029
3127.96537 1.35992
3125.91693 1.35981
3123.86850 1.35972
3121.82006 1.35917
3119.77162 1.35842
3117.72318 1.35737
3115.67474 1.35552
3113.62630 1.35378
3111.57787 1.35314
3109.52943 1.35340
3107.48099 1.35390
3105.43255 1.35423
3103.38411 1.35429
3101.33567 1.35402
3099.28724 1.35371
3097.23880 1.35357
3095.19036 1.35332
3093.14192 1.35340
3091.09348 1.35409
3089.04504 1.35476
3086.99661 1.35560
3084.94817 1.35647
3082.89973 1.35648
3080.85129 1.35601
3078.80285 1.35600
3076.75441 1.35642
3074.70598 1.35671
3072.65754 1.35659
3070.60910 1.35626
3068.56066 1.35618
3066.51222 1.35619
3064.46378 1.35593
3062.41535 1.35555
3060.36691 1.35544
3058.31847 1.35582
3056.27003 1.35655
3054.22159 1.35756
3052.17315 1.35917
3050.12471 1.36131
3048.07628 1.36368
3046.02784 1.36644
3043.97940 1.36965
3041.93096 1.37284
3039.88252 1.37597
3037.83408 1.37988
3035.78565 1.38515
3033.73721 1.39080
3031.68877 1.39583
3029.64033 1.40072
3027.59189 1.40643
3025.54345 1.41298
3023.49502 1.42011
3021.44658 1.42776
3019.39814 1.43542
3017.34970 1.44333
3015.30126 1.45191
3013.25282 1.46075
3011.20439 1.46979
3009.15595 1.47902
3007.10751 1.48809
3005.05907 1.49671
3003.01063 1.50448
3000.96219 1.51134
2998.91376 1.51751
2996.86532 1.52273
2994.81688 1.52674
2992.76844 1.52980
2990.72000 1.53180
2988.67156 1.53256
2986.62313 1.53299
2984.57469 1.53431
2982.52625 1.53702
2980.47781 1.54145
2978.42937 1.54832
2976.38093 1.55824
2974.33250 1.57047
2972.28406 1.58409
2970.23562 1.59906
2968.18718 1.61456
2966.13874 1.62917
2964.09030 1.64169
2962.04187 1.65113
2959.99343 1.65706
2957.94499 1.65928
2955.89655 1.65754
2953.84811 1.65244
2951.79967 1.64660
2949.75124 1.64149
2947.70280 1.63558
2945.65436 1.62864
2943.60592 1.62331
2941.55748 1.62094
2939.50904 1.62083
2937.46061 1.62229
2935.41217 1.62336
2933.36373 1.62213
2931.31529 1.61923
2929.26685 1.61525
2927.21841 1.60959
2925.16998 1.60267
2923.12154 1.59616
2921.07310 1.59052
2919.02466 1.58486
2916.97622 1.57849
2914.92778 1.57154
2912.87934 1.56420
2910.83091 1.55630
2908.78247 1.54871
2906.73403 1.54261
2904.68559 1.53753
2902.63715 1.53240
2900.58871 1.52723
2898.54028 1.52255
2896.49184 1.51842
2894.44340 1.51494
2892.39496 1.51186
2890.34652 1.50827
2888.29808 1.50479
2886.24965 1.50313
2884.20121 1.50415
2882.15277 1.50899
2880.10433 1.51838
2878.05589 1.52959
2876.00745 1.53719
2873.95902 1.53767
2871.91058 1.53210
2869.86214 1.52350
2867.81370 1.51388
2865.76526 1.50399
2863.71682 1.49350
2861.66839 1.48214
2859.61995 1.47126
2857.57151 1.46316
2855.52307 1.45905
2853.47463 1.45856
2851.42619 1.45999
2849.37776 1.45923
2847.32932 1.45271
2845.28088 1.44200
2843.23244 1.43034
2841.18400 1.41909
2839.13556 1.40836
2837.08713 1.39753
2835.03869 1.38660
2832.99025 1.37643
2830.94181 1.36724
2828.89337 1.35874
2826.84493 1.35075
2824.79650 1.34322
2822.74806 1.33612
2820.69962 1.32932
2818.65118 1.32312
2816.60274 1.31812
2814.55430 1.31415
2812.50587 1.31022
2810.45743 1.30595
2808.40899 1.30181
2806.36055 1.29796
2804.31211 1.29428
2802.26367 1.29104
2800.21524 1.28816
2798.16680 1.28550
2796.11836 1.28348
2794.06992 1.28213
2792.02148 1.28097
2789.97304 1.27939
2787.92461 1.27722
2785.87617 1.27492
2783.82773 1.27297
2781.77929 1.27133
2779.73085 1.26967
2777.68241 1.26831
2775.63397 1.26745
2773.58554 1.26713
2771.53710 1.26717
2769.48866 1.26694
2767.44022 1.26627
2765.39178 1.26551
2763.34334 1.26435
2761.29491 1.26244
2759.24647 1.26033
2757.19803 1.25850
2755.14959 1.25687
2753.10115 1.25563
2751.05271 1.25517
2749.00428 1.25536
2746.95584 1.25582
2744.90740 1.25673
2742.85896 1.25802
2740.81052 1.25888
2738.76208 1.25895
2736.71365 1.25836
2734.66521 1.25689
2732.61677 1.25461
2730.56833 1.25222
2728.51989 1.25011
2726.47145 1.24840
2724.42302 1.24705
2722.37458 1.24586
2720.32614 1.24426
2718.27770 1.24191
2716.22926 1.23933
2714.18082 1.23691
2712.13239 1.23476
2710.08395 1.23305
2708.03551 1.23133
2705.98707 1.22970
2703.93863 1.22865
2701.89019 1.22810
2699.84176 1.22801
2697.79332 1.22828
2695.74488 1.22839
2693.69644 1.22799
2691.64800 1.22725
2689.59956 1.22635
2687.55113 1.22505
2685.50269 1.22357
2683.45425 1.22273
2681.40581 1.22246
2679.35737 1.22214
2677.30893 1.22227
2675.26050 1.22304
2673.21206 1.22356
2671.16362 1.22355
2669.11518 1.22345
2667.06674 1.22331
2665.01830 1.22301
2662.96987 1.22261
2660.92143 1.22187
2658.87299 1.22061
2656.82455 1.21919
2654.77611 1.21791
2652.72767 1.21679
2650.67924 1.21583
2648.63080 1.21532
2646.58236 1.21533
2644.53392 1.21536
2642.48548 1.21485
2640.43704 1.21392
2638.38860 1.21347
2636.34017 1.21374
2634.29173 1.21397
2632.24329 1.21348
2630.19485 1.21228
2628.14641 1.21089
2626.09797 1.20983
2624.04954 1.20906
2622.00110 1.20849
2619.95266 1.20834
2617.90422 1.20847
2615.85578 1.20829
2613.80734 1.20794
2611.75891 1.20796
2609.71047 1.20829
2607.66203 1.20875
2605.61359 1.20930
2603.56515 1.20969
2601.51671 1.20968
2599.46828 1.20925
2597.41984 1.20861
2595.37140 1.20823
2593.32296 1.20815
2591.27452 1.20791
2589.22608 1.20744
2587.17765 1.20714
2585.12921 1.20713
2583.08077 1.20713
2581.03233 1.20725
2578.98389 1.20742
2576.93545 1.20696
2574.88702 1.20591
2572.83858 1.20504
2570.79014 1.20432
2568.74170 1.20317
2566.69326 1.20151
2564.64482 1.19962
2562.59639 1.19798
2560.54795 1.19712
2558.49951 1.19697
2556.45107 1.19724
2554.40263 1.19794
2552.35419 1.19879
2550.30576 1.19924
2548.25732 1.19922
2546.20888 1.19896
2544.16044 1.19838
2542.11200 1.19768
2540.06356 1.19714
2538.01513 1.19636
2535.96669 1.19521
2533.91825 1.19390
2531.86981 1.19265
2529.82137 1.19179
2527.77293 1.19145
2525.72450 1.19135
2523.67606 1.19124
2521.62762 1.19090
2519.57918 1.18991
2517.53074 1.18790
2515.48230 1.18527
2513.43387 1.18296
2511.38543 1.18174
2509.33699 1.18136
2507.28855 1.18104
2505.24011 1.18061
2503.19167 1.18014
2501.14324 1.17993
2499.09480 1.18035
2497.04636 1.18093
2494.99792 1.18105
2492.94948 1.18098
2490.90104 1.18116
2488.85260 1.18135
2486.80417 1.18128
2484.75573 1.18095
2482.70729 1.18040
2480.65885 1.17983
2478.61041 1.17943
2476.56197 1.17913
2474.51354 1.17876
2472.46510 1.17841
2470.41666 1.17820
2468.36822 1.17801
2466.31978 1.17780
2464.27134 1.17782
2462.22291 1.17790
2460.17447 1.17786
2458.12603 1.17793
2456.07759 1.17821
2454.02915 1.17854
2451.98071 1.17895
2449.93228 1.17943
2447.88384 1.17970
2445.83540 1.17947
2443.78696 1.17868
2441.73852 1.17802
2439.69008 1.17816
2437.64165 1.17903
2435.59321 1.18050
2433.54477 1.18241
2431.49633 1.18426
2429.44789 1.18568
2427.39945 1.18662
2425.35102 1.18709
2423.30258 1.18724
2421.25414 1.18734
2419.20570 1.18771
2417.15726 1.18841
2415.10882 1.18927
2413.06039 1.18988
2411.01195 1.18998
2408.96351 1.18983
2406.91507 1.18975
2404.86663 1.18948
2402.81819 1.18893
2400.76976 1.18879
2398.72132 1.18936
2396.67288 1.19028
2394.62444 1.19116
2392.57600 1.19202
2390.52756 1.19311
2388.47913 1.19451
2386.43069 1.19624
2384.38225 1.19824
2382.33381 1.20018
2380.28537 1.20183
2378.23693 1.20343
2376.18850 1.20515
2374.14006 1.20729
2372.09162 1.21028
2370.04318 1.21382
2367.99474 1.21699
2365.94630 1.21944
2363.89787 1.22149
2361.84943 1.22299
2359.80099 1.22416
2357.75255 1.22510
2355.70411 1.22447
2353.65567 1.22175
2351.60723 1.21819
2349.55880 1.21590
2347.51036 1.21686
2345.46192 1.22143
2343.41348 1.22604
2341.36504 1.22761
2339.31660 1.22814
2337.26817 1.22982
2335.21973 1.23204
2333.17129 1.23309
2331.12285 1.23209
2329.07441 1.22908
2327.02597 1.22516
2324.97754 1.22132
2322.92910 1.21785
2320.88066 1.21421
2318.83222 1.21051
2316.78378 1.20775
2314.73534 1.20605
2312.68691 1.20453
2310.63847 1.20243
2308.59003 1.19989
2306.54159 1.19780
2304.49315 1.19666
2302.44471 1.19600
2300.39628 1.19511
2298.34784 1.19395
2296.29940 1.19316
2294.25096 1.19290
2292.20252 1.19250
2290.15408 1.19142
2288.10565 1.18992
2286.05721 1.18873
2284.00877 1.18815
2281.96033 1.18798
2279.91189 1.18831
2277.86345 1.18918
2275.81502 1.19007
2273.76658 1.19082
2271.71814 1.19154
2269.66970 1.19199
2267.62126 1.19208
2265.57282 1.19232
2263.52439 1.19305
2261.47595 1.19402
2259.42751 1.19502
2257.37907 1.19572
2255.33063 1.19583
2253.28219 1.19548
2251.23376 1.19488
2249.18532 1.19430
2247.13688 1.19400
2245.08844 1.19401
2243.04000 1.19425
2240.99156 1.19459
2238.94313 1.19496
2236.89469 1.19524
2234.84625 1.19491
2232.79781 1.19393
2230.74937 1.19321
2228.70093 1.19329
2226.65250 1.19402
2224.60406 1.19516
2222.55562 1.19626
2220.50718 1.19689
2218.45874 1.19735
2216.41030 1.19818
2214.36186 1.19919
2212.31343 1.19975
2210.26499 1.19979
2208.21655 1.19988
2206.16811 1.20043
2204.11967 1.20131
2202.07123 1.20182
2200.02280 1.20149
2197.97436 1.20088
2195.92592 1.20059
2193.87748 1.20073
2191.82904 1.20150
2189.78060 1.20256
2187.73217 1.20303
2185.68373 1.20288
2183.63529 1.20252
2181.58685 1.20217
2179.53841 1.20204
2177.48997 1.20207
2175.44154 1.20219
2173.39310 1.20237
2171.34466 1.20239
2169.29622 1.20220
2167.24778 1.20212
2165.19934 1.20237
2163.15091 1.20262
2161.10247 1.20261
2159.05403 1.20264
2157.00559 1.20318
2154.95715 1.20451
2152.90871 1.20647
2150.86028 1.20847
2148.81184 1.21006
2146.76340 1.21133
2144.71496 1.21265
2142.66652 1.21388
2140.61808 1.21470
2138.56965 1.21524
2136.52121 1.21556
2134.47277 1.21551
2132.42433 1.21510
2130.37589 1.21478
2128.32745 1.21510
2126.27902 1.21603
2124.23058 1.21677
2122.18214 1.21708
2120.13370 1.21691
2118.08526 1.21618
2116.03682 1.21589
2113.98839 1.21660
2111.93995 1.21779
2109.89151 1.21929
2107.84307 1.22111
2105.79463 1.22288
2103.74619 1.22392
2101.69776 1.22395
2099.64932 1.22346
2097.60088 1.22301
2095.55244 1.22270
2093.50400 1.22281
2091.45556 1.22405
2089.40713 1.22629
2087.35869 1.22852
2085.31025 1.23062
2083.26181 1.23257
2081.21337 1.23389
2079.16493 1.23474
2077.11649 1.23539
2075.06806 1.23558
2073.01962 1.23525
2070.97118 1.23518
2068.92274 1.23614
2066.87430 1.23805
2064.82586 1.24009
2062.77743 1.24153
2060.72899 1.24289
2058.68055 1.24499
2056.63211 1.24786
2054.58367 1.25116
2052.53523 1.25464
2050.48680 1.25814
2048.43836 1.26155
2046.38992 1.26508
2044.34148 1.26897
2042.29304 1.27258
2040.24460 1.27515
2038.19617 1.27701
2036.14773 1.27851
2034.09929 1.27898
2032.05085 1.27822
2030.00241 1.27723
2027.95397 1.27695
2025.90554 1.27725
2023.85710 1.27753
2021.80866 1.27827
2019.76022 1.27982
2017.71178 1.28121
2015.66334 1.28172
2013.61491 1.28219
2011.56647 1.28345
2009.51803 1.28522
2007.46959 1.28725
2005.42115 1.28937
2003.37271 1.29140
2001.32428 1.29336
1999.27584 1.29522
1997.22740 1.29688
1995.17896 1.29828
1993.13052 1.29946
1991.08208 1.30059
1989.03365 1.30211
1986.98521 1.30425
1984.93677 1.30683
1982.88833 1.30966
1980.83989 1.31231
1978.79145 1.31428
1976.74302 1.31555
1974.69458 1.31643
1972.64614 1.31717
1970.59770 1.31789
1968.54926 1.31826
1966.50082 1.31691
1964.45239 1.31412
1962.40395 1.31207
1960.35551 1.31129
1958.30707 1.31121
1956.25863 1.31144
1954.21019 1.31141
1952.16176 1.31103
1950.11332 1.31088
1948.06488 1.31134
1946.01644 1.31256
1943.96800 1.31433
1941.91956 1.31509
1939.87112 1.31391
1937.82269 1.31231
1935.77425 1.31125
1933.72581 1.31040
1931.67737 1.30947
1929.62893 1.30839
1927.58049 1.30766
1925.53206 1.30825
1923.48362 1.31009
1921.43518 1.31180
1919.38674 1.31359
1917.33830 1.31592
1915.28986 1.31797
1913.24143 1.32050
1911.19299 1.32360
1909.14455 1.32594
1907.09611 1.32748
1905.04767 1.32931
1902.99923 1.33153
1900.95080 1.33421
1898.90236 1.33785
1896.85392 1.34231
1894.80548 1.34682
1892.75704 1.35049
1890.70860 1.35384
1888.66017 1.35629
1886.61173 1.35717
1884.56329 1.35791
1882.51485 1.35886
1880.46641 1.35950
1878.41797 1.35983
1876.36954 1.36047
1874.32110 1.36157
1872.27266 1.36309
1870.22422 1.36561
1868.17578 1.36720
1866.12734 1.36452
1864.07891 1.36042
1862.03047 1.35730
1859.98203 1.35488
1857.93359 1.35221
1855.88515 1.34894
1853.83671 1.34537
1851.78828 1.34183
1849.73984 1.33842
1847.69140 1.33520
1845.64296 1.33248
1843.59452 1.32935
1841.54608 1.32586
1839.49765 1.32422
1837.44921 1.32496
1835.40077 1.32623
1833.35233 1.32776
1831.30389 1.33098
1829.25545 1.33449
1827.20702 1.33602
1825.15858 1.33684
1823.11014 1.33700
1821.06170 1.33680
1819.01326 1.33775
1816.96482 1.34011
1814.91639 1.34373
1812.86795 1.34854
1810.81951 1.35336
1808.77107 1.35642
1806.72263 1.35856
1804.67419 1.36147
1802.62575 1.36539
1800.57732 1.36886
1798.52888 1.37064
1796.48044 1.37234
1794.43200 1.37498
1792.38356 1.37827
1790.33512 1.37986
1788.28669 1.38069
1786.23825 1.38301
1784.18981 1.38587
1782.14137 1.38763
1780.09293 1.38806
1778.04449 1.38825
1775.99606 1.39024
1773.94762 1.39549
1771.89918 1.40199
1769.85074 1.40445
1767.80230 1.40525
1765.75386 1.40870
1763.70543 1.41629
1761.65699 1.42910
1759.60855 1.44378
1757.56011 1.46124
1755.51167 1.48323
1753.46323 1.50723
1751.41480 1.54263
1749.36636 1.59739
1747.31792 1.65414
1745.26948 1.70258
1743.22104 1.74606
1741.17260 1.78210
1739.12417 1.80782
1737.07573 1.82237
1735.02729 1.83353
1732.97885 1.84167
1730.93041 1.83903
1728.88197 1.83175
1726.83354 1.82475
1724.78510 1.81809
1722.73666 1.80967
1720.68822 1.80015
1718.63978 1.78389
1716.59134 1.74994
1714.54291 1.71130
1712.49447 1.68057
1710.44603 1.65467
1708.39759 1.63294
1706.34915 1.61325
1704.30071 1.59592
1702.25228 1.58366
1700.20384 1.57255
1698.15540 1.56240
1696.10696 1.55224
1694.05852 1.54297
1692.01008 1.53855
1689.96165 1.53622
1687.91321 1.53392
1685.86477 1.53090
1683.81633 1.52294
1681.76789 1.51283
1679.71945 1.50445
1677.67102 1.49729
1675.62258 1.49076
1673.57414 1.48480
1671.52570 1.48056
1669.47726 1.47407
1667.42882 1.46587
1665.38038 1.46149
1663.33195 1.46010
1661.28351 1.45876
1659.23507 1.45783
1657.18663 1.45915
1655.13819 1.46210
1653.08975 1.46526
1651.04132 1.46651
1648.99288 1.46845
1646.94444 1.46943
1644.89600 1.46519
1642.84756 1.46210
1640.79912 1.46249
1638.75069 1.46536
1636.70225 1.46909
1634.65381 1.46908
1632.60537 1.46713
1630.55693 1.46721
1628.50849 1.46933
1626.46006 1.47216
1624.41162 1.47494
1622.36318 1.47665
1620.31474 1.47675
1618.26630 1.47701
1616.21786 1.47622
1614.16943 1.47284
1612.12099 1.46937
1610.07255 1.46584
1608.02411 1.46063
1605.97567 1.45422
1603.92723 1.44880
1601.87880 1.44488
1599.83036 1.44164
1597.78192 1.43922
1595.73348 1.43740
1593.68504 1.43484
1591.63660 1.43124
1589.58817 1.42715
1587.53973 1.42303
1585.49129 1.41935
1583.44285 1.41662
1581.39441 1.41501
1579.34597 1.41497
1577.29754 1.41591
1575.24910 1.41445
1573.20066 1.41164
1571.15222 1.41066
1569.10378 1.41003
1567.05534 1.40833
1565.00691 1.40717
1562.95847 1.40697
1560.91003 1.40791
1558.86159 1.41178
1556.81315 1.41445
1554.76471 1.41387
1552.71628 1.41347
1550.66784 1.41407
1548.61940 1.41465
1546.57096 1.41579
1544.52252 1.41906
1542.47408 1.42267
1540.42565 1.42092
1538.37721 1.41566
1536.32877 1.41456
1534.28033 1.41602
1532.23189 1.41619
1530.18345 1.41535
1528.13501 1.41693
1526.08658 1.42086
1524.03814 1.42498
1521.98970 1.42870
1519.94126 1.42988
1517.89282 1.43042
1515.84438 1.43106
1513.79595 1.43142
1511.74751 1.43428
1509.69907 1.43998
1507.65063 1.44744
1505.60219 1.45162
1503.55375 1.45393
1501.50532 1.46024
1499.45688 1.47372
1497.40844 1.49747
1495.36000 1.52539
1493.31156 1.54830
1491.26312 1.57453
1489.21469 1.60805
1487.16625 1.62578
1485.11781 1.62722
1483.06937 1.62457
1481.02093 1.62228
1478.97249 1.62323
1476.92406 1.62840
1474.87562 1.63665
1472.82718 1.64336
1470.77874 1.64454
1468.73030 1.64516
1466.68186 1.64799
1464.63343 1.65036
1462.58499 1.65055
1460.53655 1.65209
1458.48811 1.65598
1456.43967 1.65765
1454.39123 1.65692
1452.34280 1.65853
1450.29436 1.66085
1448.24592 1.65989
1446.19748 1.65290
1444.14904 1.64280
1442.10060 1.63315
1440.05217 1.62702
1438.00373 1.62629
1435.95529 1.62917
1433.90685 1.62819
1431.85841 1.61954
1429.80997 1.60039
1427.76154 1.57712
1425.71310 1.55790
1423.66466 1.54220
1421.61622 1.53172
1419.56778 1.52480
1417.51934 1.51659
1415.47091 1.50950
1413.42247 1.50624
1411.37403 1.50707
1409.32559 1.51105
1407.27715 1.51776
1405.22871 1.52703
1403.18028 1.53559
1401.13184 1.54315
1399.08340 1.55259
1397.03496 1.56213
1394.98652 1.57131
1392.93808 1.58073
1390.88965 1.58909
1388.84121 1.59657
1386.79277 1.59938
1384.74433 1.59451
1382.69589 1.58703
1380.64745 1.57950
1378.59901 1.57106
1376.55058 1.56157
1374.50214 1.55099
1372.45370 1.54182
1370.40526 1.53759
1368.35682 1.53634
1366.30838 1.53511
1364.25995 1.53354
1362.21151 1.53035
1360.16307 1.52539
1358.11463 1.52187
1356.06619 1.51948
1354.01775 1.51583
1351.96932 1.51105
1349.92088 1.50636
1347.87244 1.50233
1345.82400 1.49943
1343.77556 1.49807
1341.72712 1.49897
1339.67869 1.50023
1337.63025 1.49732
1335.58181 1.49168
1333.53337 1.48714
1331.48493 1.48534
1329.43649 1.48600
1327.38806 1.48726
1325.33962 1.48823
1323.29118 1.48950
1321.24274 1.49176
1319.19430 1.49503
1317.14586 1.49866
1315.09743 1.50259
1313.04899 1.50750
1311.00055 1.51327
1308.95211 1.51925
1306.90367 1.52493
1304.85523 1.52985
1302.80680 1.53388
1300.75836 1.53716
1298.70992 1.54048
1296.66148 1.54459
1294.61304 1.54976
1292.56460 1.55669
1290.51617 1.56679
1288.46773 1.58075
1286.41929 1.59756
1284.37085 1.61628
1282.32241 1.63711
1280.27397 1.65945
1278.22554 1.68158
1276.17710 1.70117
1274.12866 1.71508
1272.08022 1.72139
1270.03178 1.72116
1267.98334 1.71700
1265.93491 1.71084
1263.88647 1.70446
1261.83803 1.69946
1259.78959 1.69599
1257.74115 1.69380
1255.69271 1.69411
1253.64428 1.69836
1251.59584 1.70624
1249.54740 1.71666
1247.49896 1.72824
1245.45052 1.73839
1243.40208 1.74496
1241.35364 1.74700
1239.30521 1.74436
1237.25677 1.73769
1235.20833 1.72849
1233.15989 1.71880
1231.11145 1.71028
1229.06301 1.70351
1227.01458 1.69723
1224.96614 1.69012
1222.91770 1.68279
1220.86926 1.67700
1218.82082 1.67345
1216.77238 1.67213
1214.72395 1.67376
1212.67551 1.67810
1210.62707 1.68492
1208.57863 1.69516
1206.53019 1.70917
1204.48175 1.72583
1202.43332 1.74312
1200.38488 1.75959
1198.33644 1.77532
1196.28800 1.79005
1194.23956 1.80136
1192.19112 1.80753
1190.14269 1.81030
1188.09425 1.81225
1186.04581 1.81374
1183.99737 1.81516
1181.94893 1.81718
1179.90049 1.81886
1177.85206 1.81961
1175.80362 1.81947
1173.75518 1.81825
1171.70674 1.81710
1169.65830 1.81682
1167.60986 1.81675
1165.56143 1.81718
1163.51299 1.81899
1161.46455 1.82211
1159.41611 1.82479
1157.36767 1.82545
1155.31923 1.82499
1153.27080 1.82410
1151.22236 1.82235
1149.17392 1.81986
1147.12548 1.81586
1145.07704 1.81002
1143.02860 1.80357
1140.98017 1.79651
1138.93173 1.78841
1136.88329 1.78059
1134.83485 1.77453
1132.78641 1.77033
1130.73797 1.76746
1128.68954 1.76564
1126.64110 1.76525
1124.59266 1.76644
1122.54422 1.76911
1120.49578 1.77316
1118.44734 1.77827
1116.39891 1.78432
1114.35047 1.78930
1112.30203 1.79115
1110.25359 1.79162
1108.20515 1.79234
1106.15671 1.79246
1104.10827 1.79162
1102.05984 1.79067
1100.01140 1.78963
1097.96296 1.78744
1095.91452 1.78446
1093.86608 1.78221
1091.81764 1.78094
1089.76921 1.78034
1087.72077 1.78009
1085.67233 1.77936
1083.62389 1.77804
1081.57545 1.77696
1079.52701 1.77586
1077.47858 1.77433
1075.43014 1.77332
1073.38170 1.77224
1071.33326 1.77052
1069.28482 1.77053
1067.23638 1.77276
1065.18795 1.77373
1063.13951 1.77197
1061.09107 1.77016
1059.04263 1.76943
1056.99419 1.76840
1054.94575 1.76613
1052.89732 1.76297
1050.84888 1.76092
1048.80044 1.76081
1046.75200 1.76162
1044.70356 1.76277
1042.65512 1.76378
1040.60669 1.76461
1038.55825 1.76578
1036.50981 1.76742
1034.46137 1.77030
1032.41293 1.77575
1030.36449 1.78351
1028.31606 1.79218
1026.26762 1.80024
1024.21918 1.80462
1022.17074 1.80442
1020.12230 1.80297
1018.07386 1.80097
1016.02543 1.79674
1013.97699 1.79202
1011.92855 1.78935
1009.88011 1.78900
1007.83167 1.79109
1005.78323 1.79588
1003.73480 1.80146
1001.68636 1.80615
999.63792 1.81051
997.58948 1.81329
995.54104 1.81343
993.49260 1.81326
991.44417 1.81374
989.39573 1.81393
987.34729 1.81323
985.29885 1.81233
983.25041 1.81297
981.20197 1.81458
979.15354 1.81433
977.10510 1.81165
975.05666 1.80864
973.00822 1.80659
970.95978 1.80542
968.91134 1.80435
966.86290 1.80289
964.81447 1.80177
962.76603 1.80160
960.71759 1.80164
958.66915 1.80177
956.62071 1.80284
954.57227 1.80347
952.52384 1.80311
950.47540 1.80288
948.42696 1.80167
946.37852 1.79908
944.33008 1.79652
942.28164 1.79423
940.23321 1.79240
938.18477 1.79270
936.13633 1.79429
934.08789 1.79484
932.03945 1.79556
929.99101 1.79749
927.94258 1.79981
925.89414 1.80278
923.84570 1.80600
921.79726 1.81004
919.74882 1.81627
917.70038 1.82178
915.65195 1.82332
913.60351 1.82175
911.55507 1.81743
909.50663 1.80873
907.45819 1.79599
905.40975 1.78211
903.36132 1.76909
901.31288 1.75663
899.26444 1.74472
897.21600 1.73411
895.16756 1.72465
893.11912 1.71580
891.07069 1.70752
889.02225 1.70022
886.97381 1.69464
884.92537 1.69087
882.87693 1.68690
880.82849 1.68131
878.78006 1.67559
876.73162 1.67158
874.68318 1.66883
872.63474 1.66634
870.58630 1.66544
868.53786 1.66618
866.48943 1.66736
864.44099 1.67054
862.39255 1.67570
860.34411 1.67936
858.29567 1.68193
856.24723 1.68627
854.19880 1.69157
852.15036 1.69733
850.10192 1.70408
848.05348 1.70960
846.00504 1.71270
843.95660 1.71619
841.90817 1.72150
839.85973 1.72668
837.81129 1.73182
835.76285 1.73847
833.71441 1.74504
831.66597 1.75065
829.61753 1.75622
827.56910 1.76075
825.52066 1.76427
823.47222 1.76707
821.42378 1.76785
819.37534 1.76594
817.32690 1.76021
815.27847 1.75145
813.23003 1.74373
811.18159 1.73947
809.13315 1.74013
807.08471 1.74581
805.03627 1.75376
802.98784 1.76348
800.93940 1.77302
798.89096 1.77752
796.84252 1.77634
794.79408 1.77192
792.74564 1.76703
790.69721 1.76280
788.64877 1.76182
786.60033 1.76856
784.55189 1.78081
782.50345 1.79344
780.45501 1.80629
778.40658 1.81758
776.35814 1.82248
774.30970 1.82211
772.26126 1.82011
770.21282 1.81615
768.16438 1.81197
766.11595 1.81050
764.06751 1.81092
762.01907 1.81241
759.97063 1.81287
757.92219 1.81138
755.87375 1.81075
753.82532 1.81006
751.77688 1.80823
749.72844 1.80572
747.68000 1.80214
745.63156 1.79971
743.58312 1.79690
741.53469 1.79166
739.48625 1.78692
737.43781 1.78453
735.38937 1.78789
733.34093 1.79686
731.29249 1.80375
729.24406 1.80502
727.19562 1.80264
725.14718 1.79874
723.09874 1.79647
721.05030 1.79666
719.00186 1.79725
716.95343 1.79780
714.90499 1.79780
712.85655 1.79873
710.80811 1.80302
708.75967 1.81011
706.71123 1.81756
704.66280 1.82249
702.61436 1.82696
700.56592 1.83499
698.51748 1.84436
696.46904 1.84777
694.42060 1.84273
692.37216 1.83564
690.32373 1.83276
688.27529 1.83152
686.22685 1.82702
684.17841 1.81953
682.12997 1.81129
680.08153 1.80714
678.03310 1.80804
675.98466 1.80909
673.93622 1.80818
671.88778 1.80733
669.83934 1.81257
667.79090 1.82749
665.74247 1.83358
663.69403 1.83442
661.64559 1.84018
659.59715 1.84895
657.54871 1.85754
655.50027 1.86145
653.45184 1.86524
651.40340 1.87075
649.35496 1.86968
647.30652 1.86669
645.25808 1.86604
643.20964 1.86546
641.16121 1.86394
639.11277 1.85886
637.06433 1.85818
635.01589 1.87229
632.96745 1.89041
630.91901 1.89533
628.87058 1.87946
626.82214 1.84815
624.77370 1.81799
622.72526 1.80404
620.67682 1.81218
618.62838 1.82601
616.57995 1.83003
614.53151 1.83684
612.48307 1.84587
610.43463 1.83753
608.38619 1.81241
606.33775 1.78314
604.28932 1.76201
602.24088 1.75794
600.19244 1.77605
598.14400 1.83275
