3996.50324 1.19595
3994.45480 1.19558
3992.40636 1.19539
3990.35792 1.19582
3988.30948 1.19660
3986.26104 1.19729
3984.21261 1.19756
3982.16417 1.19761
3980.11573 1.19787
3978.06729 1.19803
3976.01885 1.19804
3973.97041 1.19797
3971.92198 1.19751
3969.87354 1.19676
3967.82510 1.19606
3965.77666 1.19578
3963.72822 1.19644
3961.67978 1.19768
3959.63135 1.19831
3957.58291 1.19840
3955.53447 1.19856
3953.48603 1.19885
3951.43759 1.19948
3949.38915 1.20045
3947.34072 1.20060
3945.29228 1.19969
3943.24384 1.19915
3941.19540 1.19890
3939.14696 1.19850
3937.09852 1.19857
3935.05009 1.19933
3933.00165 1.20141
3930.95321 1.20374
3928.90477 1.20369
3926.85633 1.20250
3924.80789 1.20219
3922.75946 1.20186
3920.71102 1.20105
3918.66258 1.20100
3916.61414 1.20126
3914.56570 1.20067
3912.51726 1.19977
3910.46883 1.19924
3908.42039 1.19914
3906.37195 1.20015
3904.32351 1.20309
3902.27507 1.20597
3900.22663 1.20731
3898.17820 1.20707
3896.12976 1.20523
3894.08132 1.20399
3892.03288 1.20549
3889.98444 1.20658
3887.93600 1.20490
3885.88756 1.20502
3883.83913 1.20729
3881.79069 1.20764
3879.74225 1.20766
3877.69381 1.20719
3875.64537 1.20659
3873.59693 1.20696
3871.54850 1.20717
3869.50006 1.20799
3867.45162 1.20778
3865.40318 1.20670
3863.35474 1.20726
3861.30630 1.20746
3859.25787 1.20634
3857.20943 1.20503
3855.16099 1.20503
3853.11255 1.21064
3851.06411 1.21406
3849.01567 1.21180
3846.96724 1.20903
3844.91880 1.20814
3842.87036 1.20978
3840.82192 1.21212
3838.77348 1.21433
3836.72504 1.21583
3834.67661 1.21524
3832.62817 1.21410
3830.57973 1.21351
3828.53129 1.21324
3826.48285 1.21334
3824.43441 1.21276
3822.38598 1.21294
3820.33754 1.21663
3818.28910 1.21755
3816.24066 1.21709
3814.19222 1.21765
3812.14378 1.21629
3810.09535 1.21393
3808.04691 1.21326
3805.99847 1.21514
3803.95003 1.21604
3801.90159 1.21742
3799.85315 1.21997
3797.80472 1.22022
3795.75628 1.22031
3793.70784 1.22026
3791.65940 1.21972
3789.61096 1.21992
3787.56252 1.22101
3785.51409 1.22300
3783.46565 1.22472
3781.41721 1.22551
3779.36877 1.22694
3777.32033 1.22865
3775.27189 1.22940
3773.22346 1.22976
3771.17502 1.23074
3769.12658 1.23319
3767.07814 1.23588
3765.02970 1.23794
3762.98126 1.23943
3760.93283 1.24148
3758.88439 1.24575
3756.83595 1.24890
3754.78751 1.24972
3752.73907 1.25240
3750.69063 1.26103
3748.64219 1.26716
3746.59376 1.26830
3744.54532 1.27398
3742.49688 1.28177
3740.44844 1.28507
3738.40000 1.28822
3736.35156 1.29637
3734.30313 1.30865
3732.25469 1.31816
3730.20625 1.32476
3728.15781 1.33241
3726.10937 1.34469
3724.06093 1.36054
3722.01250 1.37789
3719.96406 1.39720
3717.91562 1.41862
3715.86718 1.44179
3713.81874 1.46937
3711.77030 1.51258
3709.72187 1.56699
3707.67343 1.61246
3705.62499 1.65338
3703.57655 1.69969
3701.52811 1.75475
3699.47967 1.79529
3697.43124 1.80721
3695.38280 1.80010
3693.33436 1.78283
3691.28592 1.75844
3689.23748 1.72469
3687.18904 1.69123
3685.14061 1.66978
3683.09217 1.65620
3681.04373 1.64981
3678.99529 1.65059
3676.94685 1.66138
3674.89841 1.68689
3672.84998 1.70568
3670.80154 1.71350
3668.75310 1.71179
3666.70466 1.70363
3664.65622 1.69629
3662.60778 1.69376
3660.55935 1.69857
3658.51091 1.71015
3656.46247 1.72501
3654.41403 1.73413
3652.36559 1.73357
3650.31715 1.72524
3648.26872 1.70763
3646.22028 1.68939
3644.17184 1.67645
3642.12340 1.66581
3640.07496 1.65751
3638.02652 1.65426
3635.97809 1.65706
3633.92965 1.66333
3631.88121 1.67034
3629.83277 1.68435
3627.78433 1.71424
3625.73589 1.74535
3623.68746 1.77747
3621.63902 1.80668
3619.59058 1.80250
3617.54214 1.75584
3615.49370 1.71237
3613.44526 1.67888
3611.39682 1.65244
3609.34839 1.63449
3607.29995 1.61948
3605.25151 1.60722
3603.20307 1.59769
3601.15463 1.58828
3599.10619 1.57986
3597.05776 1.57324
3595.00932 1.56587
3592.96088 1.55731
3590.91244 1.55087
3588.86400 1.54628
3586.81556 1.54104
3584.76713 1.53416
3582.71869 1.52728
3580.67025 1.52241
3578.62181 1.51854
3576.57337 1.51302
3574.52493 1.50710
3572.47650 1.50390
3570.42806 1.50423
3568.37962 1.50637
3566.33118 1.50453
3564.28274 1.49816
3562.23430 1.49348
3560.18587 1.49172
3558.13743 1.49146
3556.08899 1.49182
3554.04055 1.49202
3551.99211 1.49086
3549.94367 1.48959
3547.89524 1.49015
3545.84680 1.49138
3543.79836 1.49075
3541.74992 1.48989
3539.70148 1.49038
3537.65304 1.49156
3535.60461 1.49171
3533.55617 1.49104
3531.50773 1.49192
3529.45929 1.49411
3527.41085 1.49555
3525.36241 1.49574
3523.31398 1.49486
3521.26554 1.49352
3519.21710 1.49398
3517.16866 1.49569
3515.12022 1.49639
3513.07178 1.49673
3511.02335 1.49788
3508.97491 1.49932
3506.92647 1.50044
3504.87803 1.50171
3502.82959 1.50291
3500.78115 1.50319
3498.73272 1.50352
3496.68428 1.50434
3494.63584 1.50481
3492.58740 1.50501
3490.53896 1.50506
3488.49052 1.50542
3486.44209 1.50654
3484.39365 1.50770
3482.34521 1.50843
3480.29677 1.50809
3478.24833 1.50769
3476.19989 1.50854
3474.15146 1.50949
3472.10302 1.51043
3470.05458 1.51217
3468.00614 1.51387
3465.95770 1.51513
3463.90926 1.51642
3461.86082 1.51759
3459.81239 1.51817
3457.76395 1.51789
3455.71551 1.51743
3453.66707 1.51779
3451.61863 1.51874
3449.57019 1.51969
3447.52176 1.52076
3445.47332 1.52115
3443.42488 1.52049
3441.37644 1.52002
3439.32800 1.51990
3437.27956 1.51993
3435.23113 1.52062
3433.18269 1.52171
3431.13425 1.52225
3429.08581 1.52238
3427.03737 1.52233
3424.98893 1.52204
3422.94050 1.52302
3420.89206 1.52529
3418.84362 1.52620
3416.79518 1.52555
3414.74674 1.52486
3412.69830 1.52414
3410.64987 1.52384
3408.60143 1.52403
3406.55299 1.52350
3404.50455 1.52304
3402.45611 1.52374
3400.40767 1.52467
3398.35924 1.52523
3396.31080 1.52546
3394.26236 1.52535
3392.21392 1.52517
3390.16548 1.52464
3388.11704 1.52392
3386.06861 1.52410
3384.02017 1.52426
3381.97173 1.52280
3379.92329 1.52124
3377.87485 1.52099
3375.82641 1.52091
3373.77798 1.52034
3371.72954 1.51965
3369.68110 1.51920
3367.63266 1.51885
3365.58422 1.51796
3363.53578 1.51728
3361.48735 1.51797
3359.43891 1.51899
3357.39047 1.51925
3355.34203 1.51904
3353.29359 1.51820
3351.24515 1.51707
3349.19672 1.51652
3347.14828 1.51652
3345.09984 1.51667
3343.05140 1.51688
3341.00296 1.51659
3338.95452 1.51583
3336.90609 1.51559
3334.85765 1.51549
3332.80921 1.51481
3330.76077 1.51430
3328.71233 1.51403
3326.66389 1.51305
3324.61545 1.51176
3322.56702 1.51126
3320.51858 1.51125
3318.47014 1.51090
3316.42170 1.50959
3314.37326 1.50773
3312.32482 1.50676
3310.27639 1.50713
3308.22795 1.50728
3306.17951 1.50640
3304.13107 1.50608
3302.08263 1.50641
3300.03419 1.50615
3297.98576 1.50555
3295.93732 1.50531
3293.88888 1.50542
3291.84044 1.50517
3289.79200 1.50426
3287.74356 1.50320
3285.69513 1.50263
3283.64669 1.50253
3281.59825 1.50229
3279.54981 1.50156
3277.50137 1.50058
3275.45293 1.49960
3273.40450 1.49850
3271.35606 1.49735
3269.30762 1.49635
3267.25918 1.49572
3265.21074 1.49539
3263.16230 1.49442
3261.11387 1.49263
3259.06543 1.49141
3257.01699 1.49058
3254.96855 1.48890
3252.92011 1.48716
3250.87167 1.48611
3248.82324 1.48542
3246.77480 1.48502
3244.72636 1.48475
3242.67792 1.48458
3240.62948 1.48473
3238.58104 1.48453
3236.53261 1.48351
3234.48417 1.48247
3232.43573 1.48184
3230.38729 1.48124
3228.33885 1.48017
3226.29041 1.47837
3224.24198 1.47609
3222.19354 1.47384
3220.14510 1.47205
3218.09666 1.47057
3216.04822 1.46917
3213.99978 1.46736
3211.95135 1.46507
3209.90291 1.46320
3207.85447 1.46164
3205.80603 1.46017
3203.75759 1.45907
3201.70915 1.45766
3199.66072 1.45588
3197.61228 1.45453
3195.56384 1.45326
3193.51540 1.45214
3191.46696 1.45167
3189.41852 1.45101
3187.37008 1.44950
3185.32165 1.44765
3183.27321 1.44609
3181.22477 1.44497
3179.17633 1.44399
3177.12789 1.44320
3175.07945 1.44239
3173.03102 1.44089
3170.98258 1.43903
3168.93414 1.43726
3166.88570 1.43555
3164.83726 1.43419
3162.78882 1.43259
3160.74039 1.43014
3158.69195 1.42799
3156.64351 1.42664
3154.59507 1.42514
3152.54663 1.42303
3150.49819 1.42050
3148.44976 1.41808
3146.40132 1.41619
3144.35288 1.41449
3142.30444 1.41244
3140.25600 1.41013
3138.20756 1.40800
3136.15913 1.40603
3134.11069 1.40459
3132.06225 1.40404
3130.01381 1.40385
3127.96537 1.40357
3125.91693 1.40281
3123.86850 1.40158
3121.82006 1.40064
3119.77162 1.40006
3117.72318 1.39919
3115.67474 1.39788
3113.62630 1.39635
3111.57787 1.39485
3109.52943 1.39369
3107.48099 1.39299
3105.43255 1.39239
3103.38411 1.39160
3101.33567 1.39032
3099.28724 1.38838
3097.23880 1.38659
3095.19036 1.38562
3093.14192 1.38518
3091.09348 1.38488
3089.04504 1.38464
3086.99661 1.38442
3084.94817 1.38396
3082.89973 1.38308
3080.85129 1.38209
3078.80285 1.38134
3076.75441 1.38122
3074.70598 1.38178
3072.65754 1.38204
3070.60910 1.38153
3068.56066 1.38063
3066.51222 1.37996
3064.46378 1.37959
3062.41535 1.37917
3060.36691 1.37919
3058.31847 1.37962
3056.27003 1.37935
3054.22159 1.37806
3052.17315 1.37650
3050.12471 1.37488
3048.07628 1.37330
3046.02784 1.37251
3043.97940 1.37219
3041.93096 1.37125
3039.88252 1.36925
3037.83408 1.36648
3035.78565 1.36385
3033.73721 1.36176
3031.68877 1.35979
3029.64033 1.35796
3027.59189 1.35638
3025.54345 1.35495
3023.49502 1.35400
3021.44658 1.35346
3019.39814 1.35324
3017.34970 1.35368
3015.30126 1.35433
3013.25282 1.35449
3011.20439 1.35412
3009.15595 1.35336
3007.10751 1.35287
3005.05907 1.35293
3003.01063 1.35288
3000.96219 1.35243
2998.91376 1.35195
2996.86532 1.35204
2994.81688 1.35208
2992.76844 1.35134
2990.72000 1.35051
2988.67156 1.35032
2986.62313 1.35093
2984.57469 1.35180
2982.52625 1.35230
2980.47781 1.35262
2978.42937 1.35315
2976.38093 1.35400
2974.33250 1.35517
2972.28406 1.35669
2970.23562 1.35882
2968.18718 1.36176
2966.13874 1.36490
2964.09030 1.36745
2962.04187 1.36871
2959.99343 1.36881
2957.94499 1.36885
2955.89655 1.36921
2953.84811 1.36937
2951.79967 1.36926
2949.75124 1.36910
2947.70280 1.36860
2945.65436 1.36794
2943.60592 1.36797
2941.55748 1.36933
2939.50904 1.37191
2937.46061 1.37441
2935.41217 1.37589
2933.36373 1.37708
2931.31529 1.37871
2929.26685 1.37989
2927.21841 1.37960
2925.16998 1.37842
2923.12154 1.37713
2921.07310 1.37509
2919.02466 1.37139
2916.97622 1.36637
2914.92778 1.36113
2912.87934 1.35615
2910.83091 1.35166
2908.78247 1.34763
2906.73403 1.34396
2904.68559 1.34103
2902.63715 1.33859
2900.58871 1.33640
2898.54028 1.33476
2896.49184 1.33329
2894.44340 1.33164
2892.39496 1.33025
2890.34652 1.32900
2888.29808 1.32735
2886.24965 1.32595
2884.20121 1.32534
2882.15277 1.32463
2880.10433 1.32337
2878.05589 1.32234
2876.00745 1.32220
2873.95902 1.32272
2871.91058 1.32332
2869.86214 1.32382
2867.81370 1.32386
2865.76526 1.32311
2863.71682 1.32235
2861.66839 1.32246
2859.61995 1.32329
2857.57151 1.32433
2855.52307 1.32522
2853.47463 1.32559
2851.42619 1.32463
2849.37776 1.32170
2847.32932 1.31722
2845.28088 1.31235
2843.23244 1.30801
2841.18400 1.30404
2839.13556 1.29987
2837.08713 1.29570
2835.03869 1.29201
2832.99025 1.28886
2830.94181 1.28624
2828.89337 1.28417
2826.84493 1.28224
2824.79650 1.27990
2822.74806 1.27754
2820.69962 1.27570
2818.65118 1.27424
2816.60274 1.27317
2814.55430 1.27256
2812.50587 1.27186
2810.45743 1.27063
2808.40899 1.26903
2806.36055 1.26761
2804.31211 1.26681
2802.26367 1.26604
2800.21524 1.26487
2798.16680 1.26372
2796.11836 1.26259
2794.06992 1.26119
2792.02148 1.25963
2789.97304 1.25841
2787.92461 1.25761
2785.87617 1.25699
2783.82773 1.25686
2781.77929 1.25710
2779.73085 1.25689
2777.68241 1.25605
2775.63397 1.25505
2773.58554 1.25441
2771.53710 1.25394
2769.48866 1.25362
2767.44022 1.25362
2765.39178 1.25338
2763.34334 1.25273
2761.29491 1.25195
2759.24647 1.25103
2757.19803 1.25016
2755.14959 1.24954
2753.10115 1.24904
2751.05271 1.24868
2749.00428 1.24839
2746.95584 1.24791
2744.90740 1.24722
2742.85896 1.24619
2740.81052 1.24490
2738.76208 1.24388
2736.71365 1.24321
2734.66521 1.24253
2732.61677 1.24178
2730.56833 1.24109
2728.51989 1.24070
2726.47145 1.24065
2724.42302 1.24049
2722.37458 1.23984
2720.32614 1.23904
2718.27770 1.23911
2716.22926 1.24033
2714.18082 1.24152
2712.13239 1.24185
2710.08395 1.24144
2708.03551 1.24058
2705.98707 1.23960
2703.93863 1.23869
2701.89019 1.23792
2699.84176 1.23761
2697.79332 1.23778
2695.74488 1.23756
2693.69644 1.23652
2691.64800 1.23548
2689.59956 1.23495
2687.55113 1.23477
2685.50269 1.23462
2683.45425 1.23395
2681.40581 1.23304
2679.35737 1.23262
2677.30893 1.23259
2675.26050 1.23250
2673.21206 1.23242
2671.16362 1.23256
2669.11518 1.23261
2667.06674 1.23222
2665.01830 1.23165
2662.96987 1.23138
2660.92143 1.23132
2658.87299 1.23082
2656.82455 1.22996
2654.77611 1.22935
2652.72767 1.22915
2650.67924 1.22912
2648.63080 1.22922
2646.58236 1.22952
2644.53392 1.22931
2642.48548 1.22847
2640.43704 1.22757
2638.38860 1.22686
2636.34017 1.22653
2634.29173 1.22634
2632.24329 1.22608
2630.19485 1.22573
2628.14641 1.22501
2626.09797 1.22426
2624.04954 1.22409
2622.00110 1.22446
2619.95266 1.22466
2617.90422 1.22442
2615.85578 1.22414
2613.80734 1.22372
2611.75891 1.22312
2609.71047 1.22269
2607.66203 1.22226
2605.61359 1.22144
2603.56515 1.22053
2601.51671 1.22050
2599.46828 1.22121
2597.41984 1.22170
2595.37140 1.22201
2593.32296 1.22219
2591.27452 1.22203
2589.22608 1.22199
2587.17765 1.22205
2585.12921 1.22185
2583.08077 1.22158
2581.03233 1.22154
2578.98389 1.22166
2576.93545 1.22154
2574.88702 1.22108
2572.83858 1.22058
2570.79014 1.22036
2568.74170 1.22041
2566.69326 1.22029
2564.64482 1.21985
2562.59639 1.21964
2560.54795 1.21951
2558.49951 1.21867
2556.45107 1.21745
2554.40263 1.21659
2552.35419 1.21593
2550.30576 1.21551
2548.25732 1.21565
2546.20888 1.21596
2544.16044 1.21583
2542.11200 1.21567
2540.06356 1.21606
2538.01513 1.21663
2535.96669 1.21698
2533.91825 1.21731
2531.86981 1.21776
2529.82137 1.21824
2527.77293 1.21862
2525.72450 1.21867
2523.67606 1.21819
2521.62762 1.21729
2519.57918 1.21642
2517.53074 1.21609
2515.48230 1.21642
2513.43387 1.21712
2511.38543 1.21767
2509.33699 1.21778
2507.28855 1.21783
2505.24011 1.21802
2503.19167 1.21808
2501.14324 1.21812
2499.09480 1.21866
2497.04636 1.21952
2494.99792 1.21997
2492.94948 1.21994
2490.90104 1.21967
2488.85260 1.21924
2486.80417 1.21894
2484.75573 1.21912
2482.70729 1.21956
2480.65885 1.21969
2478.61041 1.21959
2476.56197 1.21943
2474.51354 1.21920
2472.46510 1.21922
2470.41666 1.21948
2468.36822 1.21983
2466.31978 1.22043
2464.27134 1.22124
2462.22291 1.22187
2460.17447 1.22205
2458.12603 1.22183
2456.07759 1.22165
2454.02915 1.22157
2451.98071 1.22122
2449.93228 1.22075
2447.88384 1.22032
2445.83540 1.22000
2443.78696 1.21995
2441.73852 1.22016
2439.69008 1.22039
2437.64165 1.22049
2435.59321 1.22016
2433.54477 1.21913
2431.49633 1.21824
2429.44789 1.21831
2427.39945 1.21848
2425.35102 1.21807
2423.30258 1.21797
2421.25414 1.21862
2419.20570 1.21950
2417.15726 1.22066
2415.10882 1.22221
2413.06039 1.22348
2411.01195 1.22409
2408.96351 1.22451
2406.91507 1.22490
2404.86663 1.22509
2402.81819 1.22542
2400.76976 1.22615
2398.72132 1.22680
2396.67288 1.22670
2394.62444 1.22564
2392.57600 1.22483
2390.52756 1.22554
2388.47913 1.22712
2386.43069 1.22853
2384.38225 1.23001
2382.33381 1.23172
2380.28537 1.23318
2378.23693 1.23472
2376.18850 1.23695
2374.14006 1.23965
2372.09162 1.24284
2370.04318 1.24644
2367.99474 1.25006
2365.94630 1.25364
2363.89787 1.25701
2361.84943 1.26041
2359.80099 1.26360
2357.75255 1.26541
2355.70411 1.26465
2353.65567 1.26185
2351.60723 1.25882
2349.55880 1.25702
2347.51036 1.25833
2345.46192 1.26437
2343.41348 1.27210
2341.36504 1.27686
2339.31660 1.27989
2337.26817 1.28289
2335.21973 1.28524
2333.17129 1.28569
2331.12285 1.28345
2329.07441 1.27841
2327.02597 1.27204
2324.97754 1.26564
2322.92910 1.25972
2320.88066 1.25514
2318.83222 1.25215
2316.78378 1.25004
2314.73534 1.24817
2312.68691 1.24644
2310.63847 1.24529
2308.59003 1.24458
2306.54159 1.24387
2304.49315 1.24358
2302.44471 1.24332
2300.39628 1.24249
2298.34784 1.24217
2296.29940 1.24287
2294.25096 1.24385
2292.20252 1.24444
2290.15408 1.24467
2288.10565 1.24515
2286.05721 1.24587
2284.00877 1.24616
2281.96033 1.24650
2279.91189 1.24754
2277.86345 1.24843
2275.81502 1.24901
2273.76658 1.25009
2271.71814 1.25125
2269.66970 1.25182
2267.62126 1.25227
2265.57282 1.25280
2263.52439 1.25327
2261.47595 1.25398
2259.42751 1.25550
2257.37907 1.25780
2255.33063 1.25992
2253.28219 1.26139
2251.23376 1.26252
2249.18532 1.26378
2247.13688 1.26538
2245.08844 1.26712
2243.04000 1.26871
2240.99156 1.27007
2238.94313 1.27138
2236.89469 1.27242
2234.84625 1.27239
2232.79781 1.27124
2230.74937 1.26997
2228.70093 1.26908
2226.65250 1.26773
2224.60406 1.26518
2222.55562 1.26206
2220.50718 1.25939
2218.45874 1.25716
2216.41030 1.25501
2214.36186 1.25302
2212.31343 1.25129
2210.26499 1.24973
2208.21655 1.24837
2206.16811 1.24744
2204.11967 1.24691
2202.07123 1.24668
2200.02280 1.24694
2197.97436 1.24752
2195.92592 1.24798
2193.87748 1.24833
2191.82904 1.24862
2189.78060 1.24909
2187.73217 1.24999
2185.68373 1.25059
2183.63529 1.25044
2181.58685 1.25046
2179.53841 1.25109
2177.48997 1.25169
2175.44154 1.25192
2173.39310 1.25179
2171.34466 1.25166
2169.29622 1.25206
2167.24778 1.25298
2165.19934 1.25385
2163.15091 1.25456
2161.10247 1.25543
2159.05403 1.25702
2157.00559 1.25960
2154.95715 1.26206
2152.90871 1.26348
2150.86028 1.26440
2148.81184 1.26548
2146.76340 1.26675
2144.71496 1.26804
2142.66652 1.26982
2140.61808 1.27247
2138.56965 1.27554
2136.52121 1.27830
2134.47277 1.27985
2132.42433 1.27983
2130.37589 1.27893
2128.32745 1.27781
2126.27902 1.27665
2124.23058 1.27527
2122.18214 1.27385
2120.13370 1.27304
2118.08526 1.27271
2116.03682 1.27180
2113.98839 1.27012
2111.93995 1.26846
2109.89151 1.26732
2107.84307 1.26653
2105.79463 1.26598
2103.74619 1.26591
2101.69776 1.26611
2099.64932 1.26640
2097.60088 1.26707
2095.55244 1.26826
2093.50400 1.27002
2091.45556 1.27230
2089.40713 1.27487
2087.35869 1.27742
2085.31025 1.27965
2083.26181 1.28134
2081.21337 1.28271
2079.16493 1.28407
2077.11649 1.28499
2075.06806 1.28542
2073.01962 1.28649
2070.97118 1.28853
2068.92274 1.29076
2066.87430 1.29272
2064.82586 1.29382
2062.77743 1.29373
2060.72899 1.29379
2058.68055 1.29528
2056.63211 1.29754
2054.58367 1.30010
2052.53523 1.30368
2050.48680 1.30837
2048.43836 1.31384
2046.38992 1.32007
2044.34148 1.32678
2042.29304 1.33383
2040.24460 1.34114
2038.19617 1.34845
2036.14773 1.35587
2034.09929 1.36302
2032.05085 1.36872
2030.00241 1.37298
2027.95397 1.37722
2025.90554 1.38135
2023.85710 1.38376
2021.80866 1.38463
2019.76022 1.38613
2017.71178 1.38936
2015.66334 1.39316
2013.61491 1.39596
2011.56647 1.39761
2009.51803 1.39924
2007.46959 1.40155
2005.42115 1.40383
2003.37271 1.40575
2001.32428 1.40762
1999.27584 1.40896
1997.22740 1.40914
1995.17896 1.40873
1993.13052 1.40871
1991.08208 1.40892
1989.03365 1.40890
1986.98521 1.40936
1984.93677 1.41058
1982.88833 1.41194
1980.83989 1.41302
1978.79145 1.41356
1976.74302 1.41376
1974.69458 1.41444
1972.64614 1.41562
1970.59770 1.41642
1968.54926 1.41647
1966.50082 1.41571
1964.45239 1.41412
1962.40395 1.41267
1960.35551 1.41222
1958.30707 1.41267
1956.25863 1.41340
1954.21019 1.41374
1952.16176 1.41387
1950.11332 1.41461
1948.06488 1.41594
1946.01644 1.41700
1943.96800 1.41728
1941.91956 1.41672
1939.87112 1.41571
1937.82269 1.41487
1935.77425 1.41402
1933.72581 1.41324
1931.67737 1.41302
1929.62893 1.41367
1927.58049 1.41488
1925.53206 1.41656
1923.48362 1.41918
1921.43518 1.42186
1919.38674 1.42353
1917.33830 1.42429
1915.28986 1.42476
1913.24143 1.42680
1911.19299 1.43156
1909.14455 1.43724
1907.09611 1.44130
1905.04767 1.44418
1902.99923 1.44672
1900.95080 1.44869
1898.90236 1.45043
1896.85392 1.45214
1894.80548 1.45344
1892.75704 1.45420
1890.70860 1.45523
1888.66017 1.45646
1886.61173 1.45709
1884.56329 1.45738
1882.51485 1.45793
1880.46641 1.45867
1878.41797 1.45848
1876.36954 1.45736
1874.32110 1.45683
1872.27266 1.45779
1870.22422 1.46006
1868.17578 1.46121
1866.12734 1.45949
1864.07891 1.45772
1862.03047 1.45726
1859.98203 1.45728
1857.93359 1.45667
1855.88515 1.45511
1853.83671 1.45296
1851.78828 1.45063
1849.73984 1.44872
1847.69140 1.44705
1845.64296 1.44400
1843.59452 1.43850
1841.54608 1.43324
1839.49765 1.43029
1837.44921 1.42956
1835.40077 1.43001
1833.35233 1.43057
1831.30389 1.43206
1829.25545 1.43448
1827.20702 1.43599
1825.15858 1.43646
1823.11014 1.43576
1821.06170 1.43496
1819.01326 1.43533
1816.96482 1.43623
1814.91639 1.43727
1812.86795 1.43920
1810.81951 1.44182
1808.77107 1.44410
1806.72263 1.44588
1804.67419 1.44724
1802.62575 1.44837
1800.57732 1.44888
1798.52888 1.44838
1796.48044 1.44805
1794.43200 1.44796
1792.38356 1.44667
1790.33512 1.44401
1788.28669 1.44207
1786.23825 1.44186
1784.18981 1.44295
1782.14137 1.44380
1780.09293 1.44296
1778.04449 1.44051
1775.99606 1.43841
1773.94762 1.43748
1771.89918 1.43553
1769.85074 1.43070
1767.80230 1.42516
1765.75386 1.42122
1763.70543 1.41995
1761.65699 1.42042
1759.60855 1.42095
1757.56011 1.42102
1755.51167 1.42034
1753.46323 1.41995
1751.41480 1.42231
1749.36636 1.42636
1747.31792 1.42757
1745.26948 1.42721
1743.22104 1.42692
1741.17260 1.42671
1739.12417 1.42693
1737.07573 1.42763
1735.02729 1.43045
1732.97885 1.43595
1730.93041 1.43878
1728.88197 1.43941
1726.83354 1.43936
1724.78510 1.43970
1722.73666 1.44066
1720.68822 1.44243
1718.63978 1.44705
1716.59134 1.45362
1714.54291 1.45539
1712.49447 1.45558
1710.44603 1.45764
1708.39759 1.46140
1706.34915 1.46617
1704.30071 1.47079
1702.25228 1.47431
1700.20384 1.47976
1698.15540 1.48576
1696.10696 1.48685
1694.05852 1.48615
1692.01008 1.48647
1689.96165 1.48826
1687.91321 1.49149
1685.86477 1.49510
1683.81633 1.49644
1681.76789 1.49443
1679.71945 1.49243
1677.67102 1.49077
1675.62258 1.48976
1673.57414 1.48889
1671.52570 1.48885
1669.47726 1.49074
1667.42882 1.49184
1665.38038 1.49177
1663.33195 1.49266
1661.28351 1.49484
1659.23507 1.49757
1657.18663 1.50113
1655.13819 1.50590
1653.08975 1.51311
1651.04132 1.51658
1648.99288 1.51741
1646.94444 1.51839
1644.89600 1.51754
1642.84756 1.51752
1640.79912 1.52079
1638.75069 1.52656
1636.70225 1.53094
1634.65381 1.52665
1632.60537 1.52031
1630.55693 1.51679
1628.50849 1.51429
1626.46006 1.51144
1624.41162 1.50794
1622.36318 1.50440
1620.31474 1.50267
1618.26630 1.50270
1616.21786 1.50166
1614.16943 1.49875
1612.12099 1.49716
1610.07255 1.49685
1608.02411 1.49552
1605.97567 1.49294
1603.92723 1.49062
1601.87880 1.48933
1599.83036 1.48956
1597.78192 1.49060
1595.73348 1.49133
1593.68504 1.49181
1591.63660 1.49252
1589.58817 1.49215
1587.53973 1.48961
1585.49129 1.48585
1583.44285 1.48147
1581.39441 1.47709
1579.34597 1.47430
1577.29754 1.47252
1575.24910 1.46804
1573.20066 1.46274
1571.15222 1.45804
1569.10378 1.45165
1567.05534 1.44610
1565.00691 1.44342
1562.95847 1.44246
1560.91003 1.44314
1558.86159 1.44811
1556.81315 1.45135
1554.76471 1.44994
1552.71628 1.44914
1550.66784 1.45036
1548.61940 1.45213
1546.57096 1.45402
1544.52252 1.45791
1542.47408 1.46290
1540.42565 1.46568
1538.37721 1.46705
1536.32877 1.46930
1534.28033 1.47352
1532.23189 1.47730
1530.18345 1.47833
1528.13501 1.47934
1526.08658 1.48094
1524.03814 1.48267
1521.98970 1.48323
1519.94126 1.47999
1517.89282 1.47489
1515.84438 1.46942
1513.79595 1.46636
1511.74751 1.46643
1509.69907 1.46771
1507.65063 1.46673
1505.60219 1.46185
1503.55375 1.45896
1501.50532 1.45746
1499.45688 1.45679
1497.40844 1.45659
1495.36000 1.45703
1493.31156 1.45870
1491.26312 1.46229
1489.21469 1.46754
1487.16625 1.47004
1485.11781 1.46968
1483.06937 1.46923
1481.02093 1.46980
1478.97249 1.47079
1476.92406 1.47156
1474.87562 1.47295
1472.82718 1.47543
1470.77874 1.47576
1468.73030 1.47469
1466.68186 1.47446
1464.63343 1.47448
1462.58499 1.47479
1460.53655 1.47721
1458.48811 1.48265
1456.43967 1.48557
1454.39123 1.48113
1452.34280 1.47705
1450.29436 1.47562
1448.24592 1.47530
1446.19748 1.47343
1444.14904 1.47143
1442.10060 1.47130
1440.05217 1.47291
1438.00373 1.47640
1435.95529 1.48099
1433.90685 1.48299
1431.85841 1.48304
1429.80997 1.48154
1427.76154 1.47915
1425.71310 1.47831
1423.66466 1.47908
1421.61622 1.48023
1419.56778 1.48187
1417.51934 1.48191
1415.47091 1.47901
1413.42247 1.47472
1411.37403 1.46928
1409.32559 1.46391
1407.27715 1.46026
1405.22871 1.45674
1403.18028 1.45178
1401.13184 1.44768
1399.08340 1.44507
1397.03496 1.44257
1394.98652 1.43884
1392.93808 1.43472
1390.88965 1.43254
1388.84121 1.43205
1386.79277 1.43233
1384.74433 1.43344
1382.69589 1.43543
1380.64745 1.43806
1378.59901 1.44130
1376.55058 1.44479
1374.50214 1.44728
1372.45370 1.44837
1370.40526 1.45008
1368.35682 1.45203
1366.30838 1.45185
1364.25995 1.45005
1362.21151 1.44740
1360.16307 1.44466
1358.11463 1.44312
1356.06619 1.44242
1354.01775 1.44216
1351.96932 1.44176
1349.92088 1.44074
1347.87244 1.43864
1345.82400 1.43533
1343.77556 1.43235
1341.72712 1.43050
1339.67869 1.42761
1337.63025 1.42194
1335.58181 1.41515
1333.53337 1.40963
1331.48493 1.40734
1329.43649 1.40855
1327.38806 1.41211
1325.33962 1.41625
1323.29118 1.41896
1321.24274 1.41975
1319.19430 1.41924
1317.14586 1.41817
1315.09743 1.41753
1313.04899 1.41794
1311.00055 1.41959
1308.95211 1.42155
1306.90367 1.42144
1304.85523 1.41818
1302.80680 1.41381
1300.75836 1.41085
1298.70992 1.40965
1296.66148 1.40823
1294.61304 1.40565
1292.56460 1.40298
1290.51617 1.40139
1288.46773 1.40176
1286.41929 1.40273
1284.37085 1.40202
1282.32241 1.40060
1280.27397 1.40054
1278.22554 1.40176
1276.17710 1.40382
1274.12866 1.40722
1272.08022 1.41085
1270.03178 1.41225
1267.98334 1.41144
1265.93491 1.41016
1263.88647 1.40889
1261.83803 1.40757
1259.78959 1.40611
1257.74115 1.40393
1255.69271 1.40196
1253.64428 1.40190
1251.59584 1.40310
1249.54740 1.40476
1247.49896 1.40708
1245.45052 1.40815
1243.40208 1.40625
1241.35364 1.40290
1239.30521 1.39964
1237.25677 1.39566
1235.20833 1.39093
1233.15989 1.38792
1231.11145 1.38753
1229.06301 1.38783
1227.01458 1.38747
1224.96614 1.38671
1222.91770 1.38615
1220.86926 1.38653
1218.82082 1.38902
1216.77238 1.39347
1214.72395 1.39909
1212.67551 1.40604
1210.62707 1.41401
1208.57863 1.42176
1206.53019 1.42767
1204.48175 1.43114
1202.43332 1.43452
1200.38488 1.44093
1198.33644 1.45043
1196.28800 1.45980
1194.23956 1.46546
1192.19112 1.46649
1190.14269 1.46425
1188.09425 1.46040
1186.04581 1.45725
1183.99737 1.45657
1181.94893 1.45803
1179.90049 1.46079
1177.85206 1.46436
1175.80362 1.46710
1173.75518 1.46744
1171.70674 1.46606
1169.65830 1.46514
1167.60986 1.46663
1165.56143 1.47094
1163.51299 1.47675
1161.46455 1.48208
1159.41611 1.48406
1157.36767 1.48071
1155.31923 1.47485
1153.27080 1.47152
1151.22236 1.47221
1149.17392 1.47514
1147.12548 1.47869
1145.07704 1.48203
1143.02860 1.48433
1140.98017 1.48545
1138.93173 1.48669
1136.88329 1.48976
1134.83485 1.49541
1132.78641 1.50249
1130.73797 1.50940
1128.68954 1.51623
1126.64110 1.52361
1124.59266 1.53217
1122.54422 1.54295
1120.49578 1.55659
1118.44734 1.57425
1116.39891 1.59707
1114.35047 1.62246
1112.30203 1.64327
1110.25359 1.65248
1108.20515 1.64857
1106.15671 1.63632
1104.10827 1.62197
1102.05984 1.60831
1100.01140 1.59560
1097.96296 1.58418
1095.91452 1.57422
1093.86608 1.56494
1091.81764 1.55577
1089.76921 1.54706
1087.72077 1.53867
1085.67233 1.53013
1083.62389 1.52165
1081.57545 1.51414
1079.52701 1.50800
1077.47858 1.50273
1075.43014 1.49819
1073.38170 1.49498
1071.33326 1.49313
1069.28482 1.49175
1067.23638 1.49007
1065.18795 1.48791
1063.13951 1.48540
1061.09107 1.48248
1059.04263 1.47914
1056.99419 1.47669
1054.94575 1.47644
1052.89732 1.47797
1050.84888 1.48040
1048.80044 1.48282
1046.75200 1.48438
1044.70356 1.48502
1042.65512 1.48518
1040.60669 1.48563
1038.55825 1.48713
1036.50981 1.49005
1034.46137 1.49503
1032.41293 1.50401
1030.36449 1.52001
1028.31606 1.54412
1026.26762 1.57192
1024.21918 1.59601
1022.17074 1.61188
1020.12230 1.61859
1018.07386 1.61650
1016.02543 1.60626
1013.97699 1.58942
1011.92855 1.57032
1009.88011 1.55546
1007.83167 1.55032
1005.78323 1.55644
1003.73480 1.57059
1001.68636 1.58808
999.63792 1.60551
997.58948 1.62081
995.54104 1.63350
993.49260 1.64418
991.44417 1.65338
989.39573 1.66131
987.34729 1.66823
985.29885 1.67450
983.25041 1.68047
981.20197 1.68637
979.15354 1.69256
977.10510 1.69897
975.05666 1.70402
973.00822 1.70711
970.95978 1.70987
968.91134 1.71201
966.86290 1.71151
964.81447 1.70889
962.76603 1.70596
960.71759 1.70422
958.66915 1.70475
956.62071 1.70695
954.57227 1.71014
952.52384 1.71484
950.47540 1.72083
948.42696 1.72601
946.37852 1.72870
944.33008 1.73012
942.28164 1.73178
940.23321 1.73235
938.18477 1.73173
936.13633 1.73206
934.08789 1.73321
932.03945 1.73313
929.99101 1.73032
927.94258 1.72475
925.89414 1.71751
923.84570 1.70970
921.79726 1.70259
919.74882 1.69709
917.70038 1.69237
915.65195 1.68741
913.60351 1.68328
911.55507 1.68213
909.50663 1.68429
907.45819 1.68811
905.40975 1.69182
903.36132 1.69375
901.31288 1.69330
899.26444 1.69087
897.21600 1.68701
895.16756 1.68278
893.11912 1.67868
891.07069 1.67537
889.02225 1.67336
886.97381 1.67196
884.92537 1.67035
882.87693 1.66823
880.82849 1.66637
878.78006 1.66481
876.73162 1.66029
874.68318 1.65184
872.63474 1.64338
870.58630 1.63638
868.53786 1.63006
866.48943 1.62458
864.44099 1.61894
862.39255 1.61310
860.34411 1.60997
858.29567 1.61069
856.24723 1.61285
854.19880 1.61459
852.15036 1.61574
850.10192 1.61611
848.05348 1.61605
846.00504 1.61753
843.95660 1.62235
841.90817 1.62875
839.85973 1.63168
837.81129 1.62973
835.76285 1.62734
833.71441 1.62701
831.66597 1.62785
829.61753 1.63021
827.56910 1.63308
825.52066 1.63252
823.47222 1.62989
821.42378 1.63028
819.37534 1.63285
817.32690 1.63439
815.27847 1.63322
813.23003 1.62966
811.18159 1.62729
809.13315 1.62947
807.08471 1.63699
805.03627 1.64683
802.98784 1.65508
800.93940 1.66156
798.89096 1.66662
796.84252 1.67101
794.79408 1.67768
792.74564 1.68590
790.69721 1.69180
788.64877 1.69480
786.60033 1.69586
784.55189 1.69582
782.50345 1.69702
780.45501 1.70133
778.40658 1.70609
776.35814 1.70688
774.30970 1.70370
772.26126 1.69954
770.21282 1.69843
768.16438 1.70141
766.11595 1.70464
764.06751 1.70786
762.01907 1.71343
759.97063 1.71797
757.92219 1.71712
755.87375 1.71393
753.82532 1.71164
751.77688 1.70850
749.72844 1.70350
747.68000 1.69767
745.63156 1.69285
743.58312 1.68877
741.53469 1.68559
739.48625 1.68530
737.43781 1.68707
735.38937 1.68928
733.34093 1.69094
731.29249 1.69173
729.24406 1.69039
727.19562 1.68563
725.14718 1.67964
723.09874 1.67600
721.05030 1.67713
719.00186 1.68252
716.95343 1.68824
714.90499 1.69139
712.85655 1.69326
710.80811 1.69442
708.75967 1.69594
706.71123 1.70249
704.66280 1.71365
702.61436 1.72350
700.56592 1.72857
698.51748 1.72810
696.46904 1.72751
694.42060 1.73172
692.37216 1.73256
690.32373 1.72777
688.27529 1.72831
686.22685 1.73272
684.17841 1.72933
682.12997 1.72276
680.08153 1.72225
678.03310 1.72109
675.98466 1.71261
673.93622 1.70349
671.88778 1.70259
669.83934 1.70586
667.79090 1.70064
665.74247 1.68800
663.69403 1.67690
661.64559 1.66586
659.59715 1.64957
657.54871 1.63079
655.50027 1.61900
653.45184 1.61855
651.40340 1.63168
649.35496 1.64923
647.30652 1.65856
645.25808 1.66579
643.20964 1.67976
641.16121 1.69553
639.11277 1.69995
637.06433 1.68926
635.01589 1.68192
632.96745 1.68549
630.91901 1.68147
628.87058 1.66979
626.82214 1.66511
624.77370 1.66200
622.72526 1.65420
620.67682 1.64826
618.62838 1.64458
616.57995 1.63843
614.53151 1.63478
612.48307 1.64227
610.43463 1.65351
608.38619 1.64837
606.33775 1.63109
604.28932 1.62532
602.24088 1.63718
600.19244 1.65743
598.14400 1.67417
