3996.50324 1.30251
3994.45480 1.30253
3992.40636 1.30203
3990.35792 1.30144
3988.30948 1.30065
3986.26104 1.29951
3984.21261 1.29843
3982.16417 1.29781
3980.11573 1.29730
3978.06729 1.29656
3976.01885 1.29597
3973.97041 1.29551
3971.92198 1.29482
3969.87354 1.29423
3967.82510 1.29380
3965.77666 1.29326
3963.72822 1.29315
3961.67978 1.29365
3959.63135 1.29357
3957.58291 1.29313
3955.53447 1.29368
3953.48603 1.29468
3951.43759 1.29527
3949.38915 1.29585
3947.34072 1.29604
3945.29228 1.29610
3943.24384 1.29703
3941.19540 1.29713
3939.14696 1.29567
3937.09852 1.29476
3935.05009 1.29574
3933.00165 1.29870
3930.95321 1.30103
3928.90477 1.29949
3926.85633 1.29696
3924.80789 1.29700
3922.75946 1.29730
3920.71102 1.29635
3918.66258 1.29665
3916.61414 1.29723
3914.56570 1.29548
3912.51726 1.29340
3910.46883 1.29297
3908.42039 1.29380
3906.37195 1.29662
3904.32351 1.30174
3902.27507 1.30423
3900.22663 1.30286
3898.17820 1.30076
3896.12976 1.29840
3894.08132 1.29720
3892.03288 1.29879
3889.98444 1.29972
3887.93600 1.29848
3885.88756 1.29908
3883.83913 1.30028
3881.79069 1.29967
3879.74225 1.29923
3877.69381 1.29802
3875.64537 1.29795
3873.59693 1.30030
3871.54850 1.30238
3869.50006 1.30429
3867.45162 1.30414
3865.40318 1.30382
3863.35474 1.30525
3861.30630 1.30404
3859.25787 1.30195
3857.20943 1.30190
3855.16099 1.30425
3853.11255 1.31121
3851.06411 1.31234
3849.01567 1.30743
3846.96724 1.30394
3844.91880 1.30415
3842.87036 1.30737
3840.82192 1.31104
3838.77348 1.31282
3836.72504 1.31117
3834.67661 1.30870
3832.62817 1.30768
3830.57973 1.30770
3828.53129 1.30792
3826.48285 1.30824
3824.43441 1.30734
3822.38598 1.30830
3820.33754 1.31372
3818.28910 1.31371
3816.24066 1.31058
3814.19222 1.30791
3812.14378 1.30486
3810.09535 1.30311
3808.04691 1.30468
3805.99847 1.30752
3803.95003 1.30787
3801.90159 1.31046
3799.85315 1.31294
3797.80472 1.31024
3795.75628 1.30692
3793.70784 1.30430
3791.65940 1.30297
3789.61096 1.30333
3787.56252 1.30460
3785.51409 1.30678
3783.46565 1.30802
3781.41721 1.30839
3779.36877 1.30959
3777.32033 1.30926
3775.27189 1.30782
3773.22346 1.30812
3771.17502 1.31081
3769.12658 1.31407
3767.07814 1.31567
3765.02970 1.31659
3762.98126 1.31706
3760.93283 1.31883
3758.88439 1.32410
3756.83595 1.32773
3754.78751 1.32840
3752.73907 1.33155
3750.69063 1.34096
3748.64219 1.34524
3746.59376 1.34383
3744.54532 1.34783
3742.49688 1.35363
3740.44844 1.35496
3738.40000 1.35713
3736.35156 1.36505
3734.30313 1.37579
3732.25469 1.38235
3730.20625 1.38562
3728.15781 1.39063
3726.10937 1.40190
3724.06093 1.41741
3722.01250 1.43356
3719.96406 1.45169
3717.91562 1.47314
3715.86718 1.49706
3713.81874 1.52701
3711.77030 1.57722
3709.72187 1.63988
3707.67343 1.69149
3705.62499 1.74283
3703.57655 1.80713
3701.52811 1.88624
3699.47967 1.94428
3697.43124 1.96030
3695.38280 1.94824
3693.33436 1.92162
3691.28592 1.88387
3689.23748 1.83192
3687.18904 1.78678
3685.14061 1.76192
3683.09217 1.74798
3681.04373 1.74253
3678.99529 1.74463
3676.94685 1.75813
3674.89841 1.79055
3672.84998 1.81528
3670.80154 1.83203
3668.75310 1.84716
3666.70466 1.84988
3664.65622 1.85014
3662.60778 1.85693
3660.55935 1.87081
3658.51091 1.88993
3656.46247 1.91454
3654.41403 1.93648
3652.36559 1.94750
3650.31715 1.94967
3648.26872 1.93918
3646.22028 1.92477
3644.17184 1.91667
3642.12340 1.91319
3640.07496 1.91256
3638.02652 1.91580
3635.97809 1.92472
3633.92965 1.93597
3631.88121 1.94531
3629.83277 1.95908
3627.78433 1.98292
3625.73589 2.00148
3623.68746 2.02228
3621.63902 2.05206
3619.59058 2.06639
3617.54214 2.03162
3615.49370 1.98564
3613.44526 1.95432
3611.39682 1.93673
3609.34839 1.92197
3607.29995 1.90427
3605.25151 1.89120
3603.20307 1.88178
3601.15463 1.87097
3599.10619 1.85948
3597.05776 1.85026
3595.00932 1.84168
3592.96088 1.83167
3590.91244 1.82316
3588.86400 1.81572
3586.81556 1.80653
3584.76713 1.79786
3582.71869 1.79158
3580.67025 1.78742
3578.62181 1.78435
3576.57337 1.78084
3574.52493 1.77773
3572.47650 1.77574
3570.42806 1.77543
3568.37962 1.77907
3566.33118 1.78236
3564.28274 1.77863
3562.23430 1.77473
3560.18587 1.77391
3558.13743 1.77253
3556.08899 1.77039
3554.04055 1.77066
3551.99211 1.77236
3549.94367 1.77307
3547.89524 1.77394
3545.84680 1.77473
3543.79836 1.77276
3541.74992 1.77018
3539.70148 1.76932
3537.65304 1.77000
3535.60461 1.77119
3533.55617 1.77212
3531.50773 1.77403
3529.45929 1.77656
3527.41085 1.77735
3525.36241 1.77848
3523.31398 1.78091
3521.26554 1.78069
3519.21710 1.77970
3517.16866 1.78221
3515.12022 1.78691
3513.07178 1.78955
3511.02335 1.79013
3508.97491 1.79148
3506.92647 1.79437
3504.87803 1.79979
3502.82959 1.80630
3500.78115 1.80998
3498.73272 1.81123
3496.68428 1.81086
3494.63584 1.80996
3492.58740 1.81132
3490.53896 1.81523
3488.49052 1.82021
3486.44209 1.82438
3484.39365 1.82683
3482.34521 1.82963
3480.29677 1.83393
3478.24833 1.83762
3476.19989 1.84000
3474.15146 1.84222
3472.10302 1.84448
3470.05458 1.84815
3468.00614 1.85394
3465.95770 1.85939
3463.90926 1.86414
3461.86082 1.86983
3459.81239 1.87486
3457.76395 1.87773
3455.71551 1.88089
3453.66707 1.88704
3451.61863 1.89543
3449.57019 1.90373
3447.52176 1.90978
3445.47332 1.91195
3443.42488 1.91439
3441.37644 1.92144
3439.32800 1.92949
3437.27956 1.93465
3435.23113 1.93868
3433.18269 1.94241
3431.13425 1.94358
3429.08581 1.94448
3427.03737 1.94720
3424.98893 1.94858
3422.94050 1.94809
3420.89206 1.94707
3418.84362 1.94651
3416.79518 1.94843
3414.74674 1.95191
3412.69830 1.95460
3410.64987 1.95665
3408.60143 1.95815
3406.55299 1.96010
3404.50455 1.96313
3402.45611 1.96439
3400.40767 1.96399
3398.35924 1.96646
3396.31080 1.97209
3394.26236 1.97581
3392.21392 1.97565
3390.16548 1.97504
3388.11704 1.97709
3386.06861 1.98050
3384.02017 1.98258
3381.97173 1.98183
3379.92329 1.97926
3377.87485 1.97799
3375.82641 1.97900
3373.77798 1.98080
3371.72954 1.98111
3369.68110 1.97950
3367.63266 1.97829
3365.58422 1.97847
3363.53578 1.97882
3361.48735 1.97817
3359.43891 1.97568
3357.39047 1.97422
3355.34203 1.97547
3353.29359 1.97507
3351.24515 1.97227
3349.19672 1.97009
3347.14828 1.96789
3345.09984 1.96413
3343.05140 1.96013
3341.00296 1.95782
3338.95452 1.95685
3336.90609 1.95556
3334.85765 1.95395
3332.80921 1.95283
3330.76077 1.95188
3328.71233 1.94993
3326.66389 1.94731
3324.61545 1.94568
3322.56702 1.94562
3320.51858 1.94649
3318.47014 1.94666
3316.42170 1.94618
3314.37326 1.94505
3312.32482 1.94254
3310.27639 1.94079
3308.22795 1.94020
3306.17951 1.93834
3304.13107 1.93432
3302.08263 1.93034
3300.03419 1.92989
3297.98576 1.93214
3295.93732 1.93235
3293.88888 1.92878
3291.84044 1.92420
3289.79200 1.92141
3287.74356 1.92029
3285.69513 1.91967
3283.64669 1.91888
3281.59825 1.91789
3279.54981 1.91711
3277.50137 1.91585
3275.45293 1.91360
3273.40450 1.91077
3271.35606 1.90863
3269.30762 1.90794
3267.25918 1.90574
3265.21074 1.90057
3263.16230 1.89605
3261.11387 1.89462
3259.06543 1.89493
3257.01699 1.89403
3254.96855 1.89045
3252.92011 1.88620
3250.87167 1.88404
3248.82324 1.88382
3246.77480 1.88407
3244.72636 1.88385
3242.67792 1.88172
3240.62948 1.87889
3238.58104 1.87755
3236.53261 1.87647
3234.48417 1.87384
3232.43573 1.87012
3230.38729 1.86742
3228.33885 1.86572
3226.29041 1.86273
3224.24198 1.85960
3222.19354 1.85951
3220.14510 1.86047
3218.09666 1.85889
3216.04822 1.85692
3213.99978 1.85552
3211.95135 1.85260
3209.90291 1.84901
3207.85447 1.84619
3205.80603 1.84384
3203.75759 1.84239
3201.70915 1.84209
3199.66072 1.84153
3197.61228 1.84011
3195.56384 1.83754
3193.51540 1.83495
3191.46696 1.83430
3189.41852 1.83432
3187.37008 1.83207
3185.32165 1.82686
3183.27321 1.82245
3181.22477 1.82179
3179.17633 1.82213
3177.12789 1.82037
3175.07945 1.81728
3173.03102 1.81414
3170.98258 1.81113
3168.93414 1.80784
3166.88570 1.80373
3164.83726 1.80021
3162.78882 1.79817
3160.74039 1.79629
3158.69195 1.79366
3156.64351 1.79045
3154.59507 1.78732
3152.54663 1.78482
3150.49819 1.78265
3148.44976 1.78042
3146.40132 1.77827
3144.35288 1.77622
3142.30444 1.77397
3140.25600 1.77153
3138.20756 1.76916
3136.15913 1.76715
3134.11069 1.76585
3132.06225 1.76488
3130.01381 1.76325
3127.96537 1.76100
3125.91693 1.75902
3123.86850 1.75734
3121.82006 1.75505
3119.77162 1.75225
3117.72318 1.75030
3115.67474 1.74935
3113.62630 1.74808
3111.57787 1.74597
3109.52943 1.74407
3107.48099 1.74340
3105.43255 1.74352
3103.38411 1.74352
3101.33567 1.74353
3099.28724 1.74369
3097.23880 1.74293
3095.19036 1.74128
3093.14192 1.73942
3091.09348 1.73728
3089.04504 1.73567
3086.99661 1.73517
3084.94817 1.73525
3082.89973 1.73489
3080.85129 1.73445
3078.80285 1.73506
3076.75441 1.73574
3074.70598 1.73589
3072.65754 1.73670
3070.60910 1.73815
3068.56066 1.73917
3066.51222 1.74044
3064.46378 1.74317
3062.41535 1.74673
3060.36691 1.75024
3058.31847 1.75373
3056.27003 1.75677
3054.22159 1.75964
3052.17315 1.76382
3050.12471 1.76924
3048.07628 1.77486
3046.02784 1.78109
3043.97940 1.78943
3041.93096 1.80036
3039.88252 1.81346
3037.83408 1.82776
3035.78565 1.84252
3033.73721 1.85936
3031.68877 1.87876
3029.64033 1.89755
3027.59189 1.91470
3025.54345 1.93278
3023.49502 1.95228
3021.44658 1.97259
3019.39814 1.99513
3017.34970 2.02015
3015.30126 2.04660
3013.25282 2.07340
3011.20439 2.09903
3009.15595 2.12563
3007.10751 2.15586
3005.05907 2.18343
3003.01063 2.20450
3000.96219 2.22361
2998.91376 2.24115
2996.86532 2.25661
2994.81688 2.26925
2992.76844 2.27799
2990.72000 2.28590
2988.67156 2.29205
2986.62313 2.29508
2984.57469 2.29922
2982.52625 2.30754
2980.47781 2.32107
2978.42937 2.34012
2976.38093 2.36711
2974.33250 2.40161
2972.28406 2.43429
2970.23562 2.46259
2968.18718 2.49209
2966.13874 2.52088
2964.09030 2.54299
2962.04187 2.55630
2959.99343 2.56273
2957.94499 2.56443
2955.89655 2.56201
2953.84811 2.55472
2951.79967 2.54352
2949.75124 2.53239
2947.70280 2.52148
2945.65436 2.50839
2943.60592 2.49757
2941.55748 2.49410
2939.50904 2.49438
2937.46061 2.49488
2935.41217 2.49581
2933.36373 2.49339
2931.31529 2.48140
2929.26685 2.46484
2927.21841 2.45435
2925.16998 2.44834
2923.12154 2.44320
2921.07310 2.43476
2919.02466 2.41527
2916.97622 2.39056
2914.92778 2.36861
2912.87934 2.35040
2910.83091 2.33550
2908.78247 2.31960
2906.73403 2.30296
2904.68559 2.28889
2902.63715 2.27521
2900.58871 2.26110
2898.54028 2.24948
2896.49184 2.24047
2894.44340 2.23060
2892.39496 2.21912
2890.34652 2.20898
2888.29808 2.20095
2886.24965 2.19517
2884.20121 2.19832
2882.15277 2.21568
2880.10433 2.24284
2878.05589 2.27206
2876.00745 2.29186
2873.95902 2.29419
2871.91058 2.28187
2869.86214 2.25786
2867.81370 2.22675
2865.76526 2.19447
2863.71682 2.16123
2861.66839 2.12618
2859.61995 2.09153
2857.57151 2.06068
2855.52307 2.03872
2853.47463 2.02948
2851.42619 2.02873
2849.37776 2.02331
2847.32932 2.00235
2845.28088 1.96980
2843.23244 1.93584
2841.18400 1.90362
2839.13556 1.87282
2837.08713 1.84437
2835.03869 1.81785
2832.99025 1.79250
2830.94181 1.76930
2828.89337 1.74890
2826.84493 1.73078
2824.79650 1.71461
2822.74806 1.69979
2820.69962 1.68557
2818.65118 1.67198
2816.60274 1.65979
2814.55430 1.64901
2812.50587 1.63861
2810.45743 1.62870
2808.40899 1.61988
2806.36055 1.61199
2804.31211 1.60470
2802.26367 1.59746
2800.21524 1.59000
2798.16680 1.58298
2796.11836 1.57710
2794.06992 1.57275
2792.02148 1.56981
2789.97304 1.56691
2787.92461 1.56335
2785.87617 1.56036
2783.82773 1.55824
2781.77929 1.55602
2779.73085 1.55360
2777.68241 1.55125
2775.63397 1.54894
2773.58554 1.54691
2771.53710 1.54494
2769.48866 1.54281
2767.44022 1.54122
2765.39178 1.53946
2763.34334 1.53611
2761.29491 1.53255
2759.24647 1.53059
2757.19803 1.53005
2755.14959 1.53007
2753.10115 1.52965
2751.05271 1.52902
2749.00428 1.52923
2746.95584 1.52994
2744.90740 1.53040
2742.85896 1.52994
2740.81052 1.52870
2738.76208 1.52770
2736.71365 1.52654
2734.66521 1.52409
2732.61677 1.52036
2730.56833 1.51574
2728.51989 1.51035
2726.47145 1.50491
2724.42302 1.50009
2722.37458 1.49551
2720.32614 1.49125
2718.27770 1.48756
2716.22926 1.48450
2714.18082 1.48226
2712.13239 1.48016
2710.08395 1.47772
2708.03551 1.47532
2705.98707 1.47304
2703.93863 1.47106
2701.89019 1.46933
2699.84176 1.46762
2697.79332 1.46627
2695.74488 1.46538
2693.69644 1.46444
2691.64800 1.46314
2689.59956 1.46157
2687.55113 1.45981
2685.50269 1.45816
2683.45425 1.45709
2681.40581 1.45640
2679.35737 1.45558
2677.30893 1.45488
2675.26050 1.45474
2673.21206 1.45501
2671.16362 1.45521
2669.11518 1.45542
2667.06674 1.45604
2665.01830 1.45666
2662.96987 1.45635
2660.92143 1.45487
2658.87299 1.45304
2656.82455 1.45119
2654.77611 1.44880
2652.72767 1.44625
2650.67924 1.44445
2648.63080 1.44305
2646.58236 1.44144
2644.53392 1.44006
2642.48548 1.43876
2640.43704 1.43703
2638.38860 1.43541
2636.34017 1.43439
2634.29173 1.43360
2632.24329 1.43283
2630.19485 1.43246
2628.14641 1.43261
2626.09797 1.43274
2624.04954 1.43262
2622.00110 1.43248
2619.95266 1.43203
2617.90422 1.43128
2615.85578 1.43098
2613.80734 1.43148
2611.75891 1.43226
2609.71047 1.43277
2607.66203 1.43316
2605.61359 1.43354
2603.56515 1.43390
2601.51671 1.43446
2599.46828 1.43469
2597.41984 1.43425
2595.37140 1.43380
2593.32296 1.43336
2591.27452 1.43231
2589.22608 1.43113
2587.17765 1.43046
2585.12921 1.42982
2583.08077 1.42867
2581.03233 1.42736
2578.98389 1.42635
2576.93545 1.42545
2574.88702 1.42470
2572.83858 1.42412
2570.79014 1.42310
2568.74170 1.42165
2566.69326 1.42042
2564.64482 1.41915
2562.59639 1.41733
2560.54795 1.41527
2558.49951 1.41323
2556.45107 1.41152
2554.40263 1.41045
2552.35419 1.40939
2550.30576 1.40763
2548.25732 1.40559
2546.20888 1.40412
2544.16044 1.40336
2542.11200 1.40279
2540.06356 1.40206
2538.01513 1.40135
2535.96669 1.40084
2533.91825 1.40047
2531.86981 1.40013
2529.82137 1.39959
2527.77293 1.39852
2525.72450 1.39721
2523.67606 1.39627
2521.62762 1.39563
2519.57918 1.39493
2517.53074 1.39418
2515.48230 1.39363
2513.43387 1.39287
2511.38543 1.39106
2509.33699 1.38834
2507.28855 1.38641
2505.24011 1.38583
2503.19167 1.38503
2501.14324 1.38361
2499.09480 1.38268
2497.04636 1.38268
2494.99792 1.38307
2492.94948 1.38324
2490.90104 1.38316
2488.85260 1.38316
2486.80417 1.38300
2484.75573 1.38220
2482.70729 1.38097
2480.65885 1.37980
2478.61041 1.37891
2476.56197 1.37846
2474.51354 1.37855
2472.46510 1.37896
2470.41666 1.37918
2468.36822 1.37911
2466.31978 1.37883
2464.27134 1.37865
2462.22291 1.37921
2460.17447 1.38042
2458.12603 1.38173
2456.07759 1.38301
2454.02915 1.38425
2451.98071 1.38517
2449.93228 1.38510
2447.88384 1.38392
2445.83540 1.38283
2443.78696 1.38289
2441.73852 1.38357
2439.69008 1.38413
2437.64165 1.38478
2435.59321 1.38599
2433.54477 1.38731
2431.49633 1.38793
2429.44789 1.38840
2427.39945 1.38947
2425.35102 1.39048
2423.30258 1.39098
2421.25414 1.39173
2419.20570 1.39297
2417.15726 1.39407
2415.10882 1.39495
2413.06039 1.39614
2411.01195 1.39755
2408.96351 1.39834
2406.91507 1.39825
2404.86663 1.39809
2402.81819 1.39887
2400.76976 1.40032
2398.72132 1.40142
2396.67288 1.40202
2394.62444 1.40226
2392.57600 1.40205
2390.52756 1.40187
2388.47913 1.40212
2386.43069 1.40240
2384.38225 1.40291
2382.33381 1.40426
2380.28537 1.40653
2378.23693 1.40979
2376.18850 1.41361
2374.14006 1.41688
2372.09162 1.41955
2370.04318 1.42283
2367.99474 1.42706
2365.94630 1.43146
2363.89787 1.43507
2361.84943 1.43756
2359.80099 1.43871
2357.75255 1.43867
2355.70411 1.43771
2353.65567 1.43575
2351.60723 1.43279
2349.55880 1.43037
2347.51036 1.43190
2345.46192 1.43935
2343.41348 1.44855
2341.36504 1.45369
2339.31660 1.45659
2337.26817 1.46030
2335.21973 1.46387
2333.17129 1.46524
2331.12285 1.46294
2329.07441 1.45735
2327.02597 1.45086
2324.97754 1.44425
2322.92910 1.43755
2320.88066 1.43120
2318.83222 1.42576
2316.78378 1.42202
2314.73534 1.42069
2312.68691 1.42083
2310.63847 1.41961
2308.59003 1.41611
2306.54159 1.41226
2304.49315 1.40996
2302.44471 1.40930
2300.39628 1.40916
2298.34784 1.40882
2296.29940 1.40790
2294.25096 1.40650
2292.20252 1.40548
2290.15408 1.40509
2288.10565 1.40450
2286.05721 1.40363
2284.00877 1.40339
2281.96033 1.40363
2279.91189 1.40349
2277.86345 1.40293
2275.81502 1.40219
2273.76658 1.40172
2271.71814 1.40183
2269.66970 1.40197
2267.62126 1.40200
2265.57282 1.40238
2263.52439 1.40269
2261.47595 1.40223
2259.42751 1.40101
2257.37907 1.40010
2255.33063 1.40028
2253.28219 1.40108
2251.23376 1.40172
2249.18532 1.40188
2247.13688 1.40217
2245.08844 1.40334
2243.04000 1.40492
2240.99156 1.40573
2238.94313 1.40541
2236.89469 1.40498
2234.84625 1.40509
2232.79781 1.40554
2230.74937 1.40649
2228.70093 1.40737
2226.65250 1.40719
2224.60406 1.40701
2222.55562 1.40801
2220.50718 1.40917
2218.45874 1.40918
2216.41030 1.40881
2214.36186 1.40906
2212.31343 1.40976
2210.26499 1.41053
2208.21655 1.41099
2206.16811 1.41133
2204.11967 1.41159
2202.07123 1.41171
2200.02280 1.41216
2197.97436 1.41299
2195.92592 1.41394
2193.87748 1.41505
2191.82904 1.41610
2189.78060 1.41708
2187.73217 1.41802
2185.68373 1.41838
2183.63529 1.41810
2181.58685 1.41814
2179.53841 1.41895
2177.48997 1.41970
2175.44154 1.41955
2173.39310 1.41921
2171.34466 1.41929
2169.29622 1.41911
2167.24778 1.41936
2165.19934 1.42063
2163.15091 1.42175
2161.10247 1.42211
2159.05403 1.42241
2157.00559 1.42379
2154.95715 1.42603
2152.90871 1.42801
2150.86028 1.42996
2148.81184 1.43228
2146.76340 1.43424
2144.71496 1.43512
2142.66652 1.43513
2140.61808 1.43529
2138.56965 1.43563
2136.52121 1.43544
2134.47277 1.43527
2132.42433 1.43556
2130.37589 1.43605
2128.32745 1.43684
2126.27902 1.43786
2124.23058 1.43896
2122.18214 1.44062
2120.13370 1.44275
2118.08526 1.44473
2116.03682 1.44617
2113.98839 1.44687
2111.93995 1.44744
2109.89151 1.44832
2107.84307 1.44905
2105.79463 1.44963
2103.74619 1.45085
2101.69776 1.45304
2099.64932 1.45596
2097.60088 1.45863
2095.55244 1.46026
2093.50400 1.46151
2091.45556 1.46286
2089.40713 1.46424
2087.35869 1.46568
2085.31025 1.46705
2083.26181 1.46792
2081.21337 1.46840
2079.16493 1.46945
2077.11649 1.47141
2075.06806 1.47342
2073.01962 1.47479
2070.97118 1.47569
2068.92274 1.47678
2066.87430 1.47866
2064.82586 1.48079
2062.77743 1.48245
2060.72899 1.48447
2058.68055 1.48757
2056.63211 1.49105
2054.58367 1.49403
2052.53523 1.49702
2050.48680 1.50074
2048.43836 1.50441
2046.38992 1.50755
2044.34148 1.51083
2042.29304 1.51419
2040.24460 1.51696
2038.19617 1.51924
2036.14773 1.52137
2034.09929 1.52355
2032.05085 1.52580
2030.00241 1.52704
2027.95397 1.52702
2025.90554 1.52643
2023.85710 1.52601
2021.80866 1.52683
2019.76022 1.52919
2017.71178 1.53282
2015.66334 1.53654
2013.61491 1.53930
2011.56647 1.54188
2009.51803 1.54546
2007.46959 1.55013
2005.42115 1.55438
2003.37271 1.55705
2001.32428 1.55884
1999.27584 1.56075
1997.22740 1.56314
1995.17896 1.56585
1993.13052 1.56837
1991.08208 1.56979
1989.03365 1.56970
1986.98521 1.56867
1984.93677 1.56786
1982.88833 1.56824
1980.83989 1.56904
1978.79145 1.56972
1976.74302 1.57051
1974.69458 1.57093
1972.64614 1.57073
1970.59770 1.57005
1968.54926 1.56876
1966.50082 1.56650
1964.45239 1.56396
1962.40395 1.56239
1960.35551 1.56133
1958.30707 1.55992
1956.25863 1.55825
1954.21019 1.55625
1952.16176 1.55424
1950.11332 1.55327
1948.06488 1.55372
1946.01644 1.55456
1943.96800 1.55503
1941.91956 1.55450
1939.87112 1.55171
1937.82269 1.54760
1935.77425 1.54357
1933.72581 1.53988
1931.67737 1.53663
1929.62893 1.53456
1927.58049 1.53506
1925.53206 1.53818
1923.48362 1.54233
1921.43518 1.54522
1919.38674 1.54689
1917.33830 1.54831
1915.28986 1.54930
1913.24143 1.55191
1911.19299 1.55776
1909.14455 1.56501
1907.09611 1.57043
1905.04767 1.57417
1902.99923 1.57802
1900.95080 1.58246
1898.90236 1.58779
1896.85392 1.59344
1894.80548 1.59779
1892.75704 1.60067
1890.70860 1.60405
1888.66017 1.60752
1886.61173 1.60985
1884.56329 1.61289
1882.51485 1.61707
1880.46641 1.62060
1878.41797 1.62266
1876.36954 1.62394
1874.32110 1.62566
1872.27266 1.62861
1870.22422 1.63304
1868.17578 1.63621
1866.12734 1.63425
1864.07891 1.63087
1862.03047 1.62900
1859.98203 1.62759
1857.93359 1.62513
1855.88515 1.62140
1853.83671 1.61668
1851.78828 1.61194
1849.73984 1.60842
1847.69140 1.60625
1845.64296 1.60582
1843.59452 1.60595
1841.54608 1.60402
1839.49765 1.60223
1837.44921 1.60184
1835.40077 1.60106
1833.35233 1.60060
1831.30389 1.60327
1829.25545 1.60790
1827.20702 1.61062
1825.15858 1.61338
1823.11014 1.61607
1821.06170 1.61702
1819.01326 1.61812
1816.96482 1.62012
1814.91639 1.62330
1812.86795 1.62859
1810.81951 1.63500
1808.77107 1.63968
1806.72263 1.64365
1804.67419 1.64931
1802.62575 1.65688
1800.57732 1.66495
1798.52888 1.67169
1796.48044 1.67823
1794.43200 1.68584
1792.38356 1.69393
1790.33512 1.69730
1788.28669 1.69793
1786.23825 1.70142
1784.18981 1.70774
1782.14137 1.71480
1780.09293 1.72311
1778.04449 1.73235
1775.99606 1.74209
1773.94762 1.75388
1771.89918 1.76852
1769.85074 1.78300
1767.80230 1.79814
1765.75386 1.81549
1763.70543 1.83739
1761.65699 1.87194
1759.60855 1.91355
1757.56011 1.96551
1755.51167 2.03568
1753.46323 2.11315
1751.41480 2.22082
1749.36636 2.38405
1747.31792 2.54436
1745.26948 2.65924
1743.22104 2.73576
1741.17260 2.76837
1739.12417 2.76416
1737.07573 2.74583
1735.02729 2.72440
1732.97885 2.68506
1730.93041 2.65444
1728.88197 2.63831
1726.83354 2.62668
1724.78510 2.61328
1722.73666 2.60305
1720.68822 2.59983
1718.63978 2.59499
1716.59134 2.57726
1714.54291 2.53759
1712.49447 2.49429
1710.44603 2.44789
1708.39759 2.39919
1706.34915 2.34632
1704.30071 2.29877
1702.25228 2.26740
1700.20384 2.23862
1698.15540 2.20853
1696.10696 2.17837
1694.05852 2.14982
1692.01008 2.12933
1689.96165 2.11257
1687.91321 2.09968
1685.86477 2.08821
1683.81633 2.06240
1681.76789 2.03311
1679.71945 2.01016
1677.67102 1.98865
1675.62258 1.96675
1673.57414 1.94815
1671.52570 1.93841
1669.47726 1.93035
1667.42882 1.92021
1665.38038 1.91443
1663.33195 1.91362
1661.28351 1.91209
1659.23507 1.90808
1657.18663 1.90598
1655.13819 1.90754
1653.08975 1.91191
1651.04132 1.91081
1648.99288 1.90863
1646.94444 1.90889
1644.89600 1.90655
1642.84756 1.90220
1640.79912 1.90099
1638.75069 1.90406
1636.70225 1.90891
1634.65381 1.90649
1632.60537 1.89943
1630.55693 1.89475
1628.50849 1.89238
1626.46006 1.89185
1624.41162 1.89200
1622.36318 1.88960
1620.31474 1.88616
1618.26630 1.88584
1616.21786 1.88542
1614.16943 1.87943
1612.12099 1.87242
1610.07255 1.86644
1608.02411 1.86011
1605.97567 1.85353
1603.92723 1.84749
1601.87880 1.84031
1599.83036 1.83201
1597.78192 1.82537
1595.73348 1.82065
1593.68504 1.81567
1591.63660 1.80975
1589.58817 1.80357
1587.53973 1.79773
1585.49129 1.79307
1583.44285 1.78902
1581.39441 1.78480
1579.34597 1.78295
1577.29754 1.78408
1575.24910 1.78138
1573.20066 1.77540
1571.15222 1.77263
1569.10378 1.77040
1567.05534 1.76605
1565.00691 1.76374
1562.95847 1.76407
1560.91003 1.76638
1558.86159 1.77272
1556.81315 1.77526
1554.76471 1.77370
1552.71628 1.77189
1550.66784 1.77010
1548.61940 1.76909
1546.57096 1.76980
1544.52252 1.77337
1542.47408 1.77872
1540.42565 1.78108
1538.37721 1.77612
1536.32877 1.77257
1534.28033 1.77352
1532.23189 1.77554
1530.18345 1.77616
1528.13501 1.77936
1526.08658 1.78629
1524.03814 1.79243
1521.98970 1.79707
1519.94126 1.79929
1517.89282 1.80109
1515.84438 1.80294
1513.79595 1.80424
1511.74751 1.80957
1509.69907 1.82074
1507.65063 1.84278
1505.60219 1.86645
1503.55375 1.87954
1501.50532 1.90167
1499.45688 1.94446
1497.40844 2.01985
1495.36000 2.11564
1493.31156 2.19686
1491.26312 2.28253
1489.21469 2.39269
1487.16625 2.45585
1485.11781 2.46389
1483.06937 2.45915
1481.02093 2.45572
1478.97249 2.45794
1476.92406 2.46269
1474.87562 2.46735
1472.82718 2.46974
1470.77874 2.47378
1468.73030 2.48192
1466.68186 2.49145
1464.63343 2.49881
1462.58499 2.50357
1460.53655 2.51030
1458.48811 2.51909
1456.43967 2.51709
1454.39123 2.51290
1452.34280 2.51651
1450.29436 2.51933
1448.24592 2.51455
1446.19748 2.49270
1444.14904 2.45832
1442.10060 2.42879
1440.05217 2.41403
1438.00373 2.41087
1435.95529 2.40765
1433.90685 2.38919
1431.85841 2.34869
1429.80997 2.28003
1427.76154 2.20713
1425.71310 2.14892
1423.66466 2.10108
1421.61622 2.06841
1419.56778 2.04554
1417.51934 2.02516
1415.47091 2.01335
1413.42247 2.01072
1411.37403 2.01763
1409.32559 2.03365
1407.27715 2.05871
1405.22871 2.09431
1403.18028 2.12806
1401.13184 2.14966
1399.08340 2.16711
1397.03496 2.18518
1394.98652 2.20947
1392.93808 2.23920
1390.88965 2.26522
1388.84121 2.28530
1386.79277 2.29199
1384.74433 2.28208
1382.69589 2.26482
1380.64745 2.24172
1378.59901 2.20977
1376.55058 2.17000
1374.50214 2.12672
1372.45370 2.09446
1370.40526 2.08037
1368.35682 2.07540
1366.30838 2.07232
1364.25995 2.06743
1362.21151 2.05813
1360.16307 2.04626
1358.11463 2.03521
1356.06619 2.02528
1354.01775 2.01523
1351.96932 2.00428
1349.92088 1.99361
1347.87244 1.98456
1345.82400 1.97892
1343.77556 1.97796
1341.72712 1.97942
1339.67869 1.97861
1337.63025 1.97246
1335.58181 1.96428
1333.53337 1.95767
1331.48493 1.95428
1329.43649 1.95626
1327.38806 1.96435
1325.33962 1.97563
1323.29118 1.98703
1321.24274 1.99889
1319.19430 2.01173
1317.14586 2.02510
1315.09743 2.04128
1313.04899 2.06167
1311.00055 2.08241
1308.95211 2.10021
1306.90367 2.11365
1304.85523 2.12343
1302.80680 2.13256
1300.75836 2.14159
1298.70992 2.15265
1296.66148 2.16817
1294.61304 2.18653
1292.56460 2.20907
1290.51617 2.24051
1288.46773 2.28165
1286.41929 2.33033
1284.37085 2.38591
1282.32241 2.44735
1280.27397 2.50934
1278.22554 2.56604
1276.17710 2.61297
1274.12866 2.64539
1272.08022 2.66247
1270.03178 2.66287
1267.98334 2.64967
1265.93491 2.63517
1263.88647 2.62595
1261.83803 2.61865
1259.78959 2.60851
1257.74115 2.60037
1255.69271 2.60224
1253.64428 2.61635
1251.59584 2.64111
1249.54740 2.67113
1247.49896 2.69900
1245.45052 2.71625
1243.40208 2.71848
1241.35364 2.70614
1239.30521 2.68271
1237.25677 2.66056
1235.20833 2.64456
1233.15989 2.62109
1231.11145 2.58893
1229.06301 2.56311
1227.01458 2.54487
1224.96614 2.52349
1222.91770 2.49838
1220.86926 2.47627
1218.82082 2.45946
1216.77238 2.45408
1214.72395 2.46398
1212.67551 2.48210
1210.62707 2.50692
1208.57863 2.54429
1206.53019 2.58715
1204.48175 2.62619
1202.43332 2.66771
1200.38488 2.70960
1198.33644 2.73840
1196.28800 2.75343
1194.23956 2.76230
1192.19112 2.76957
1190.14269 2.77597
1188.09425 2.77514
1186.04581 2.76918
1183.99737 2.77052
1181.94893 2.77324
1179.90049 2.76545
1177.85206 2.75310
1175.80362 2.74573
1173.75518 2.74502
1171.70674 2.74878
1169.65830 2.75084
1167.60986 2.75304
1165.56143 2.75991
1163.51299 2.76027
1161.46455 2.75444
1159.41611 2.75230
1157.36767 2.74352
1155.31923 2.72529
1153.27080 2.70966
1151.22236 2.69582
1149.17392 2.67892
1147.12548 2.65684
1145.07704 2.63204
1143.02860 2.61494
1140.98017 2.60309
1138.93173 2.58414
1136.88329 2.56707
1134.83485 2.56231
1132.78641 2.55913
1130.73797 2.55187
1128.68954 2.54521
1126.64110 2.54235
1124.59266 2.54031
1122.54422 2.53333
1120.49578 2.52463
1118.44734 2.52221
1116.39891 2.52629
1114.35047 2.52699
1112.30203 2.52200
1110.25359 2.52046
1108.20515 2.52232
1106.15671 2.52029
1104.10827 2.51475
1102.05984 2.50822
1100.01140 2.50193
1097.96296 2.49595
1095.91452 2.48878
1093.86608 2.48321
1091.81764 2.48050
1089.76921 2.47511
1087.72077 2.46431
1085.67233 2.45637
1083.62389 2.45810
1081.57545 2.46236
1079.52701 2.45926
1077.47858 2.45029
1075.43014 2.44120
1073.38170 2.43576
1071.33326 2.43916
1069.28482 2.45156
1067.23638 2.46473
1065.18795 2.47108
1063.13951 2.47067
1061.09107 2.46744
1059.04263 2.46390
1056.99419 2.45729
1054.94575 2.44466
1052.89732 2.43142
1050.84888 2.42246
1048.80044 2.41525
1046.75200 2.40763
1044.70356 2.40211
1042.65512 2.39730
1040.60669 2.39126
1038.55825 2.38811
1036.50981 2.38707
1034.46137 2.38784
1032.41293 2.39546
1030.36449 2.40853
1028.31606 2.42440
1026.26762 2.44422
1024.21918 2.46735
1022.17074 2.48727
1020.12230 2.49344
1018.07386 2.48500
1016.02543 2.46952
1013.97699 2.45566
1011.92855 2.44811
1009.88011 2.44309
1007.83167 2.44297
1005.78323 2.45531
1003.73480 2.47683
1001.68636 2.50183
999.63792 2.52718
997.58948 2.54631
995.54104 2.55522
993.49260 2.55477
991.44417 2.55269
989.39573 2.55850
987.34729 2.57127
985.29885 2.58099
983.25041 2.58475
981.20197 2.59013
979.15354 2.59791
977.10510 2.60532
975.05666 2.61614
973.00822 2.63613
970.95978 2.65822
968.91134 2.66984
966.86290 2.67462
964.81447 2.67424
962.76603 2.66666
960.71759 2.66030
958.66915 2.65882
956.62071 2.65760
954.57227 2.65510
952.52384 2.65131
950.47540 2.64867
948.42696 2.64244
946.37852 2.62049
944.33008 2.59798
942.28164 2.59569
940.23321 2.60020
938.18477 2.59315
936.13633 2.58372
934.08789 2.58113
932.03945 2.58118
929.99101 2.57564
927.94258 2.56062
925.89414 2.54560
923.84570 2.53572
921.79726 2.52728
919.74882 2.52433
917.70038 2.53171
915.65195 2.54019
913.60351 2.53878
911.55507 2.53031
909.50663 2.52158
907.45819 2.51315
905.40975 2.49839
903.36132 2.47675
901.31288 2.45723
899.26444 2.44048
897.21600 2.42024
895.16756 2.39459
893.11912 2.36905
891.07069 2.35107
889.02225 2.33962
886.97381 2.33193
884.92537 2.32762
882.87693 2.32210
880.82849 2.31011
878.78006 2.29448
876.73162 2.28388
874.68318 2.27750
872.63474 2.27425
870.58630 2.27990
868.53786 2.28435
866.48943 2.27571
864.44099 2.26433
862.39255 2.26080
860.34411 2.26356
858.29567 2.26513
856.24723 2.26395
854.19880 2.26885
852.15036 2.28064
850.10192 2.29153
848.05348 2.29937
846.00504 2.30383
843.95660 2.30453
841.90817 2.30634
839.85973 2.31405
837.81129 2.32824
835.76285 2.34836
833.71441 2.36478
831.66597 2.36938
829.61753 2.37277
827.56910 2.37272
825.52066 2.35873
823.47222 2.34536
821.42378 2.34214
819.37534 2.34103
817.32690 2.33562
815.27847 2.32553
813.23003 2.31851
811.18159 2.32129
809.13315 2.32916
807.08471 2.33542
805.03627 2.34096
802.98784 2.35210
800.93940 2.37025
798.89096 2.38048
796.84252 2.37977
794.79408 2.38099
792.74564 2.37700
790.69721 2.36380
788.64877 2.34688
786.60033 2.32601
784.55189 2.31111
782.50345 2.31263
780.45501 2.32680
778.40658 2.33980
776.35814 2.34881
774.30970 2.36324
772.26126 2.37252
770.21282 2.36774
768.16438 2.36485
766.11595 2.36915
764.06751 2.37857
762.01907 2.39768
759.97063 2.42282
757.92219 2.45203
755.87375 2.48468
753.82532 2.50713
751.77688 2.51074
749.72844 2.49851
747.68000 2.48578
745.63156 2.47597
743.58312 2.44966
741.53469 2.41172
739.48625 2.37651
737.43781 2.34060
735.38937 2.30831
733.34093 2.28810
731.29249 2.27249
729.24406 2.24793
727.19562 2.21597
725.14718 2.19658
723.09874 2.19625
721.05030 2.20037
719.00186 2.20613
716.95343 2.21980
714.90499 2.24261
712.85655 2.26870
710.80811 2.28495
708.75967 2.29838
706.71123 2.32286
704.66280 2.34695
702.61436 2.36135
700.56592 2.37002
698.51748 2.36239
696.46904 2.34726
694.42060 2.34620
692.37216 2.34949
690.32373 2.35183
688.27529 2.35978
686.22685 2.36398
684.17841 2.34384
682.12997 2.30920
680.08153 2.30147
678.03310 2.31230
675.98466 2.30250
673.93622 2.27952
671.88778 2.27264
669.83934 2.28204
667.79090 2.28291
665.74247 2.28601
663.69403 2.29873
661.64559 2.30894
659.59715 2.31870
657.54871 2.33823
655.50027 2.35697
653.45184 2.34855
651.40340 2.33976
649.35496 2.34420
647.30652 2.33554
645.25808 2.31257
643.20964 2.28504
641.16121 2.27300
639.11277 2.28691
637.06433 2.29396
635.01589 2.27172
632.96745 2.26602
630.91901 2.30139
628.87058 2.35438
626.82214 2.40363
624.77370 2.38971
622.72526 2.29121
620.67682 2.20592
618.62838 2.17221
616.57995 2.15130
614.53151 2.13197
612.48307 2.13047
610.43463 2.12260
608.38619 2.11229
606.33775 2.13524
604.28932 2.16058
602.24088 2.13157
600.19244 2.09579
598.14400 2.11359
