3996.50324 1.26221
3994.45480 1.26346
3992.40636 1.26433
3990.35792 1.26471
3988.30948 1.26409
3986.26104 1.26324
3984.21261 1.26363
3982.16417 1.26493
3980.11573 1.26568
3978.06729 1.26561
3976.01885 1.26563
3973.97041 1.26597
3971.92198 1.26596
3969.87354 1.26564
3967.82510 1.26557
3965.77666 1.26568
3963.72822 1.26585
3961.67978 1.26638
3959.63135 1.26682
3957.58291 1.26662
3955.53447 1.26623
3953.48603 1.26609
3951.43759 1.26630
3949.38915 1.26739
3947.34072 1.26876
3945.29228 1.26894
3943.24384 1.26916
3941.19540 1.27030
3939.14696 1.27076
3937.09852 1.27015
3935.05009 1.26944
3933.00165 1.27027
3930.95321 1.27201
3928.90477 1.27158
3926.85633 1.27010
3924.80789 1.27060
3922.75946 1.27187
3920.71102 1.27158
3918.66258 1.27145
3916.61414 1.27225
3914.56570 1.27200
3912.51726 1.27097
3910.46883 1.27048
3908.42039 1.27007
3906.37195 1.26981
3904.32351 1.27127
3902.27507 1.27336
3900.22663 1.27432
3898.17820 1.27469
3896.12976 1.27311
3894.08132 1.27015
3892.03288 1.26957
3889.98444 1.27109
3887.93600 1.27024
3885.88756 1.27003
3883.83913 1.27160
3881.79069 1.27129
3879.74225 1.27166
3877.69381 1.27151
3875.64537 1.26957
3873.59693 1.26895
3871.54850 1.27022
3869.50006 1.27228
3867.45162 1.27178
3865.40318 1.26963
3863.35474 1.27021
3861.30630 1.27102
3859.25787 1.26973
3857.20943 1.26748
3855.16099 1.26569
3853.11255 1.27181
3851.06411 1.27816
3849.01567 1.27663
3846.96724 1.27366
3844.91880 1.27221
3842.87036 1.27274
3840.82192 1.27405
3838.77348 1.27629
3836.72504 1.27827
3834.67661 1.27771
3832.62817 1.27648
3830.57973 1.27556
3828.53129 1.27447
3826.48285 1.27408
3824.43441 1.27331
3822.38598 1.27249
3820.33754 1.27659
3818.28910 1.27967
3816.24066 1.28020
3814.19222 1.28026
3812.14378 1.27776
3810.09535 1.27451
3808.04691 1.27367
3805.99847 1.27633
3803.95003 1.27737
3801.90159 1.27812
3799.85315 1.28096
3797.80472 1.28170
3795.75628 1.28166
3793.70784 1.28089
3791.65940 1.28000
3789.61096 1.28055
3787.56252 1.28160
3785.51409 1.28269
3783.46565 1.28337
3781.41721 1.28354
3779.36877 1.28531
3777.32033 1.28739
3775.27189 1.28710
3773.22346 1.28564
3771.17502 1.28527
3769.12658 1.28719
3767.07814 1.28914
3765.02970 1.29075
3762.98126 1.29169
3760.93283 1.29204
3758.88439 1.29476
3756.83595 1.29767
3754.78751 1.29777
3752.73907 1.29765
3750.69063 1.30236
3748.64219 1.30668
3746.59376 1.30591
3744.54532 1.30832
3742.49688 1.31372
3740.44844 1.31508
3738.40000 1.31461
3736.35156 1.31689
3734.30313 1.32434
3732.25469 1.33075
3730.20625 1.33323
3728.15781 1.33508
3726.10937 1.33931
3724.06093 1.34619
3722.01250 1.35449
3719.96406 1.36378
3717.91562 1.37415
3715.86718 1.38541
3713.81874 1.39895
3711.77030 1.42134
3709.72187 1.44907
3707.67343 1.47107
3705.62499 1.49197
3703.57655 1.51736
3701.52811 1.54808
3699.47967 1.56996
3697.43124 1.57533
3695.38280 1.57015
3693.33436 1.55951
3691.28592 1.54310
3689.23748 1.52098
3687.18904 1.50504
3685.14061 1.49722
3683.09217 1.49225
3681.04373 1.49030
3678.99529 1.49092
3676.94685 1.49426
3674.89841 1.50545
3672.84998 1.51625
3670.80154 1.52208
3668.75310 1.52349
3666.70466 1.52058
3664.65622 1.51766
3662.60778 1.51771
3660.55935 1.52127
3658.51091 1.52747
3656.46247 1.53560
3654.41403 1.54177
3652.36559 1.54367
3650.31715 1.54123
3648.26872 1.53134
3646.22028 1.52172
3644.17184 1.51677
3642.12340 1.51362
3640.07496 1.51067
3638.02652 1.50897
3635.97809 1.51000
3633.92965 1.51281
3631.88121 1.51631
3629.83277 1.52258
3627.78433 1.53435
3625.73589 1.54746
3623.68746 1.56404
3621.63902 1.58296
3619.59058 1.58860
3617.54214 1.56906
3615.49370 1.54543
3613.44526 1.52696
3611.39682 1.51436
3609.34839 1.50754
3607.29995 1.50205
3605.25151 1.49657
3603.20307 1.49272
3601.15463 1.49020
3599.10619 1.48749
3597.05776 1.48401
3595.00932 1.48061
3592.96088 1.47738
3590.91244 1.47459
3588.86400 1.47256
3586.81556 1.47021
3584.76713 1.46672
3582.71869 1.46327
3580.67025 1.46066
3578.62181 1.45866
3576.57337 1.45640
3574.52493 1.45375
3572.47650 1.45147
3570.42806 1.45016
3568.37962 1.45040
3566.33118 1.45122
3564.28274 1.45050
3562.23430 1.44885
3560.18587 1.44678
3558.13743 1.44517
3556.08899 1.44476
3554.04055 1.44513
3551.99211 1.44578
3549.94367 1.44615
3547.89524 1.44644
3545.84680 1.44693
3543.79836 1.44715
3541.74992 1.44728
3539.70148 1.44755
3537.65304 1.44844
3535.60461 1.44976
3533.55617 1.45062
3531.50773 1.45140
3529.45929 1.45227
3527.41085 1.45255
3525.36241 1.45215
3523.31398 1.45133
3521.26554 1.44995
3519.21710 1.44859
3517.16866 1.44806
3515.12022 1.44857
3513.07178 1.44939
3511.02335 1.44985
3508.97491 1.44990
3506.92647 1.44976
3504.87803 1.45055
3502.82959 1.45160
3500.78115 1.45159
3498.73272 1.45172
3496.68428 1.45244
3494.63584 1.45298
3492.58740 1.45348
3490.53896 1.45446
3488.49052 1.45533
3486.44209 1.45558
3484.39365 1.45591
3482.34521 1.45667
3480.29677 1.45713
3478.24833 1.45657
3476.19989 1.45571
3474.15146 1.45590
3472.10302 1.45640
3470.05458 1.45632
3468.00614 1.45665
3465.95770 1.45739
3463.90926 1.45774
3461.86082 1.45758
3459.81239 1.45731
3457.76395 1.45773
3455.71551 1.45898
3453.66707 1.46025
3451.61863 1.46096
3449.57019 1.46115
3447.52176 1.46084
3445.47332 1.46051
3443.42488 1.46095
3441.37644 1.46212
3439.32800 1.46324
3437.27956 1.46368
3435.23113 1.46380
3433.18269 1.46426
3431.13425 1.46500
3429.08581 1.46588
3427.03737 1.46687
3424.98893 1.46713
3422.94050 1.46652
3420.89206 1.46649
3418.84362 1.46737
3416.79518 1.46799
3414.74674 1.46762
3412.69830 1.46674
3410.64987 1.46640
3408.60143 1.46653
3406.55299 1.46647
3404.50455 1.46595
3402.45611 1.46507
3400.40767 1.46477
3398.35924 1.46491
3396.31080 1.46425
3394.26236 1.46333
3392.21392 1.46259
3390.16548 1.46181
3388.11704 1.46174
3386.06861 1.46199
3384.02017 1.46175
3381.97173 1.46211
3379.92329 1.46365
3377.87485 1.46446
3375.82641 1.46364
3373.77798 1.46343
3371.72954 1.46449
3369.68110 1.46510
3367.63266 1.46539
3365.58422 1.46614
3363.53578 1.46631
3361.48735 1.46548
3359.43891 1.46431
3357.39047 1.46315
3355.34203 1.46246
3353.29359 1.46259
3351.24515 1.46336
3349.19672 1.46396
3347.14828 1.46394
3345.09984 1.46385
3343.05140 1.46394
3341.00296 1.46358
3338.95452 1.46248
3336.90609 1.46188
3334.85765 1.46255
3332.80921 1.46348
3330.76077 1.46405
3328.71233 1.46429
3326.66389 1.46415
3324.61545 1.46378
3322.56702 1.46327
3320.51858 1.46279
3318.47014 1.46290
3316.42170 1.46354
3314.37326 1.46376
3312.32482 1.46311
3310.27639 1.46256
3308.22795 1.46232
3306.17951 1.46145
3304.13107 1.46040
3302.08263 1.45993
3300.03419 1.45985
3297.98576 1.45978
3295.93732 1.45919
3293.88888 1.45806
3291.84044 1.45687
3289.79200 1.45584
3287.74356 1.45486
3285.69513 1.45430
3283.64669 1.45432
3281.59825 1.45403
3279.54981 1.45349
3277.50137 1.45334
3275.45293 1.45351
3273.40450 1.45335
3271.35606 1.45230
3269.30762 1.45073
3267.25918 1.44942
3265.21074 1.44895
3263.16230 1.44896
3261.11387 1.44876
3259.06543 1.44839
3257.01699 1.44839
3254.96855 1.44885
3252.92011 1.44944
3250.87167 1.44937
3248.82324 1.44846
3246.77480 1.44755
3244.72636 1.44674
3242.67792 1.44583
3240.62948 1.44466
3238.58104 1.44322
3236.53261 1.44248
3234.48417 1.44301
3232.43573 1.44398
3230.38729 1.44457
3228.33885 1.44455
3226.29041 1.44381
3224.24198 1.44296
3222.19354 1.44256
3220.14510 1.44209
3218.09666 1.44103
3216.04822 1.43953
3213.99978 1.43837
3211.95135 1.43829
3209.90291 1.43861
3207.85447 1.43839
3205.80603 1.43830
3203.75759 1.43856
3201.70915 1.43841
3199.66072 1.43777
3197.61228 1.43714
3195.56384 1.43690
3193.51540 1.43678
3191.46696 1.43652
3189.41852 1.43609
3187.37008 1.43516
3185.32165 1.43436
3183.27321 1.43418
3181.22477 1.43434
3179.17633 1.43459
3177.12789 1.43434
3175.07945 1.43362
3173.03102 1.43282
3170.98258 1.43229
3168.93414 1.43201
3166.88570 1.43124
3164.83726 1.42975
3162.78882 1.42814
3160.74039 1.42713
3158.69195 1.42667
3156.64351 1.42637
3154.59507 1.42570
3152.54663 1.42446
3150.49819 1.42368
3148.44976 1.42407
3146.40132 1.42480
3144.35288 1.42416
3142.30444 1.42181
3140.25600 1.41972
3138.20756 1.41915
3136.15913 1.41915
3134.11069 1.41905
3132.06225 1.41890
3130.01381 1.41843
3127.96537 1.41753
3125.91693 1.41620
3123.86850 1.41463
3121.82006 1.41366
3119.77162 1.41374
3117.72318 1.41390
3115.67474 1.41330
3113.62630 1.41225
3111.57787 1.41121
3109.52943 1.41049
3107.48099 1.40991
3105.43255 1.40888
3103.38411 1.40786
3101.33567 1.40762
3099.28724 1.40766
3097.23880 1.40708
3095.19036 1.40563
3093.14192 1.40395
3091.09348 1.40301
3089.04504 1.40290
3086.99661 1.40265
3084.94817 1.40145
3082.89973 1.39995
3080.85129 1.39909
3078.80285 1.39850
3076.75441 1.39759
3074.70598 1.39661
3072.65754 1.39573
3070.60910 1.39478
3068.56066 1.39379
3066.51222 1.39283
3064.46378 1.39177
3062.41535 1.39072
3060.36691 1.38999
3058.31847 1.38978
3056.27003 1.38965
3054.22159 1.38884
3052.17315 1.38756
3050.12471 1.38659
3048.07628 1.38596
3046.02784 1.38514
3043.97940 1.38411
3041.93096 1.38360
3039.88252 1.38388
3037.83408 1.38379
3035.78565 1.38285
3033.73721 1.38210
3031.68877 1.38155
3029.64033 1.38089
3027.59189 1.38071
3025.54345 1.38086
3023.49502 1.38033
3021.44658 1.37918
3019.39814 1.37822
3017.34970 1.37787
3015.30126 1.37826
3013.25282 1.37880
3011.20439 1.37896
3009.15595 1.37890
3007.10751 1.37864
3005.05907 1.37820
3003.01063 1.37779
3000.96219 1.37768
2998.91376 1.37795
2996.86532 1.37852
2994.81688 1.37897
2992.76844 1.37864
2990.72000 1.37813
2988.67156 1.37840
2986.62313 1.37920
2984.57469 1.37999
2982.52625 1.38061
2980.47781 1.38114
2978.42937 1.38206
2976.38093 1.38352
2974.33250 1.38486
2972.28406 1.38591
2970.23562 1.38685
2968.18718 1.38759
2966.13874 1.38826
2964.09030 1.38942
2962.04187 1.39105
2959.99343 1.39214
2957.94499 1.39198
2955.89655 1.39097
2953.84811 1.39035
2951.79967 1.39064
2949.75124 1.39093
2947.70280 1.39055
2945.65436 1.39018
2943.60592 1.39054
2941.55748 1.39119
2939.50904 1.39185
2937.46061 1.39275
2935.41217 1.39390
2933.36373 1.39519
2931.31529 1.39658
2929.26685 1.39817
2927.21841 1.39959
2925.16998 1.40037
2923.12154 1.40040
2921.07310 1.39943
2919.02466 1.39788
2916.97622 1.39579
2914.92778 1.39211
2912.87934 1.38774
2910.83091 1.38429
2908.78247 1.38157
2906.73403 1.37914
2904.68559 1.37691
2902.63715 1.37529
2900.58871 1.37456
2898.54028 1.37405
2896.49184 1.37328
2894.44340 1.37221
2892.39496 1.37103
2890.34652 1.37012
2888.29808 1.36948
2886.24965 1.36863
2884.20121 1.36766
2882.15277 1.36697
2880.10433 1.36617
2878.05589 1.36503
2876.00745 1.36472
2873.95902 1.36547
2871.91058 1.36591
2869.86214 1.36551
2867.81370 1.36514
2865.76526 1.36551
2863.71682 1.36641
2861.66839 1.36690
2859.61995 1.36654
2857.57151 1.36603
2855.52307 1.36596
2853.47463 1.36613
2851.42619 1.36567
2849.37776 1.36405
2847.32932 1.36165
2845.28088 1.35855
2843.23244 1.35481
2841.18400 1.35106
2839.13556 1.34746
2837.08713 1.34411
2835.03869 1.34156
2832.99025 1.33966
2830.94181 1.33796
2828.89337 1.33619
2826.84493 1.33419
2824.79650 1.33245
2822.74806 1.33107
2820.69962 1.32913
2818.65118 1.32667
2816.60274 1.32513
2814.55430 1.32468
2812.50587 1.32400
2810.45743 1.32266
2808.40899 1.32147
2806.36055 1.32068
2804.31211 1.31968
2802.26367 1.31858
2800.21524 1.31789
2798.16680 1.31736
2796.11836 1.31696
2794.06992 1.31661
2792.02148 1.31575
2789.97304 1.31475
2787.92461 1.31431
2785.87617 1.31407
2783.82773 1.31363
2781.77929 1.31311
2779.73085 1.31273
2777.68241 1.31272
2775.63397 1.31318
2773.58554 1.31384
2771.53710 1.31470
2769.48866 1.31564
2767.44022 1.31549
2765.39178 1.31385
2763.34334 1.31209
2761.29491 1.31115
2759.24647 1.31087
2757.19803 1.31099
2755.14959 1.31111
2753.10115 1.31101
2751.05271 1.31098
2749.00428 1.31112
2746.95584 1.31108
2744.90740 1.31067
2742.85896 1.30977
2740.81052 1.30842
2738.76208 1.30756
2736.71365 1.30783
2734.66521 1.30855
2732.61677 1.30889
2730.56833 1.30864
2728.51989 1.30827
2726.47145 1.30800
2724.42302 1.30765
2722.37458 1.30716
2720.32614 1.30641
2718.27770 1.30544
2716.22926 1.30442
2714.18082 1.30357
2712.13239 1.30326
2710.08395 1.30364
2708.03551 1.30455
2705.98707 1.30537
2703.93863 1.30553
2701.89019 1.30509
2699.84176 1.30452
2697.79332 1.30455
2695.74488 1.30526
2693.69644 1.30569
2691.64800 1.30545
2689.59956 1.30510
2687.55113 1.30491
2685.50269 1.30482
2683.45425 1.30482
2681.40581 1.30507
2679.35737 1.30573
2677.30893 1.30639
2675.26050 1.30680
2673.21206 1.30742
2671.16362 1.30832
2669.11518 1.30891
2667.06674 1.30873
2665.01830 1.30791
2662.96987 1.30680
2660.92143 1.30603
2658.87299 1.30602
2656.82455 1.30656
2654.77611 1.30715
2652.72767 1.30735
2650.67924 1.30745
2648.63080 1.30788
2646.58236 1.30798
2644.53392 1.30748
2642.48548 1.30709
2640.43704 1.30672
2638.38860 1.30599
2636.34017 1.30548
2634.29173 1.30560
2632.24329 1.30594
2630.19485 1.30604
2628.14641 1.30598
2626.09797 1.30601
2624.04954 1.30613
2622.00110 1.30632
2619.95266 1.30662
2617.90422 1.30656
2615.85578 1.30592
2613.80734 1.30535
2611.75891 1.30500
2609.71047 1.30421
2607.66203 1.30286
2605.61359 1.30183
2603.56515 1.30150
2601.51671 1.30142
2599.46828 1.30116
2597.41984 1.30041
2595.37140 1.29964
2593.32296 1.29932
2591.27452 1.29924
2589.22608 1.29933
2587.17765 1.29911
2585.12921 1.29776
2583.08077 1.29569
2581.03233 1.29430
2578.98389 1.29395
2576.93545 1.29367
2574.88702 1.29317
2572.83858 1.29297
2570.79014 1.29314
2568.74170 1.29330
2566.69326 1.29343
2564.64482 1.29343
2562.59639 1.29303
2560.54795 1.29226
2558.49951 1.29150
2556.45107 1.29111
2554.40263 1.29103
2552.35419 1.29107
2550.30576 1.29141
2548.25732 1.29209
2546.20888 1.29248
2544.16044 1.29254
2542.11200 1.29290
2540.06356 1.29344
2538.01513 1.29385
2535.96669 1.29437
2533.91825 1.29508
2531.86981 1.29574
2529.82137 1.29644
2527.77293 1.29724
2525.72450 1.29768
2523.67606 1.29759
2521.62762 1.29768
2519.57918 1.29880
2517.53074 1.30054
2515.48230 1.30221
2513.43387 1.30396
2511.38543 1.30526
2509.33699 1.30518
2507.28855 1.30429
2505.24011 1.30371
2503.19167 1.30347
2501.14324 1.30296
2499.09480 1.30204
2497.04636 1.30137
2494.99792 1.30137
2492.94948 1.30175
2490.90104 1.30182
2488.85260 1.30110
2486.80417 1.30016
2484.75573 1.29970
2482.70729 1.29975
2480.65885 1.30005
2478.61041 1.30016
2476.56197 1.29984
2474.51354 1.29958
2472.46510 1.29951
2470.41666 1.29959
2468.36822 1.30006
2466.31978 1.30036
2464.27134 1.30027
2462.22291 1.30032
2460.17447 1.30018
2458.12603 1.29953
2456.07759 1.29880
2454.02915 1.29817
2451.98071 1.29743
2449.93228 1.29624
2447.88384 1.29462
2445.83540 1.29332
2443.78696 1.29305
2441.73852 1.29335
2439.69008 1.29355
2437.64165 1.29347
2435.59321 1.29268
2433.54477 1.29152
2431.49633 1.29092
2429.44789 1.29093
2427.39945 1.29137
2425.35102 1.29204
2423.30258 1.29249
2421.25414 1.29257
2419.20570 1.29266
2417.15726 1.29309
2415.10882 1.29373
2413.06039 1.29448
2411.01195 1.29530
2408.96351 1.29596
2406.91507 1.29621
2404.86663 1.29614
2402.81819 1.29643
2400.76976 1.29765
2398.72132 1.29926
2396.67288 1.30022
2394.62444 1.30080
2392.57600 1.30188
2390.52756 1.30290
2388.47913 1.30327
2386.43069 1.30382
2384.38225 1.30516
2382.33381 1.30705
2380.28537 1.30871
2378.23693 1.30951
2376.18850 1.30989
2374.14006 1.31020
2372.09162 1.31003
2370.04318 1.31029
2367.99474 1.31190
2365.94630 1.31302
2363.89787 1.31293
2361.84943 1.31468
2359.80099 1.31835
2357.75255 1.31964
2355.70411 1.31876
2353.65567 1.31905
2351.60723 1.32084
2349.55880 1.32258
2347.51036 1.32443
2345.46192 1.32834
2343.41348 1.33436
2341.36504 1.33950
2339.31660 1.34362
2337.26817 1.34873
2335.21973 1.35425
2333.17129 1.35579
2331.12285 1.35131
2329.07441 1.34441
2327.02597 1.33808
2324.97754 1.33172
2322.92910 1.32514
2320.88066 1.31910
2318.83222 1.31440
2316.78378 1.31114
2314.73534 1.30877
2312.68691 1.30751
2310.63847 1.30742
2308.59003 1.30770
2306.54159 1.30818
2304.49315 1.30923
2302.44471 1.31059
2300.39628 1.31144
2298.34784 1.31152
2296.29940 1.31181
2294.25096 1.31269
2292.20252 1.31322
2290.15408 1.31391
2288.10565 1.31599
2286.05721 1.31853
2284.00877 1.32076
2281.96033 1.32351
2279.91189 1.32673
2277.86345 1.32962
2275.81502 1.33235
2273.76658 1.33512
2271.71814 1.33759
2269.66970 1.33993
2267.62126 1.34216
2265.57282 1.34392
2263.52439 1.34501
2261.47595 1.34544
2259.42751 1.34587
2257.37907 1.34701
2255.33063 1.34835
2253.28219 1.34928
2251.23376 1.35006
2249.18532 1.35140
2247.13688 1.35326
2245.08844 1.35452
2243.04000 1.35495
2240.99156 1.35496
2238.94313 1.35436
2236.89469 1.35353
2234.84625 1.35326
2232.79781 1.35320
2230.74937 1.35256
2228.70093 1.35140
2226.65250 1.34991
2224.60406 1.34788
2222.55562 1.34527
2220.50718 1.34249
2218.45874 1.34011
2216.41030 1.33792
2214.36186 1.33515
2212.31343 1.33200
2210.26499 1.32944
2208.21655 1.32775
2206.16811 1.32613
2204.11967 1.32403
2202.07123 1.32216
2200.02280 1.32108
2197.97436 1.32056
2195.92592 1.32015
2193.87748 1.31943
2191.82904 1.31835
2189.78060 1.31768
2187.73217 1.31808
2185.68373 1.31943
2183.63529 1.32101
2181.58685 1.32195
2179.53841 1.32200
2177.48997 1.32177
2175.44154 1.32191
2173.39310 1.32254
2171.34466 1.32309
2169.29622 1.32325
2167.24778 1.32358
2165.19934 1.32412
2163.15091 1.32467
2161.10247 1.32554
2159.05403 1.32667
2157.00559 1.32798
2154.95715 1.32941
2152.90871 1.33047
2150.86028 1.33169
2148.81184 1.33412
2146.76340 1.33688
2144.71496 1.33869
2142.66652 1.33978
2140.61808 1.34089
2138.56965 1.34203
2136.52121 1.34256
2134.47277 1.34235
2132.42433 1.34140
2130.37589 1.33982
2128.32745 1.33850
2126.27902 1.33780
2124.23058 1.33711
2122.18214 1.33582
2120.13370 1.33411
2118.08526 1.33268
2116.03682 1.33173
2113.98839 1.33133
2111.93995 1.33159
2109.89151 1.33188
2107.84307 1.33198
2105.79463 1.33229
2103.74619 1.33254
2101.69776 1.33283
2099.64932 1.33367
2097.60088 1.33490
2095.55244 1.33609
2093.50400 1.33650
2091.45556 1.33567
2089.40713 1.33455
2087.35869 1.33410
2085.31025 1.33480
2083.26181 1.33681
2081.21337 1.33895
2079.16493 1.34016
2077.11649 1.34105
2075.06806 1.34260
2073.01962 1.34492
2070.97118 1.34696
2068.92274 1.34780
2066.87430 1.34811
2064.82586 1.34882
2062.77743 1.35059
2060.72899 1.35358
2058.68055 1.35673
2056.63211 1.35930
2054.58367 1.36189
2052.53523 1.36464
2050.48680 1.36767
2048.43836 1.37177
2046.38992 1.37699
2044.34148 1.38243
2042.29304 1.38725
2040.24460 1.39168
2038.19617 1.39605
2036.14773 1.40008
2034.09929 1.40346
2032.05085 1.40609
2030.00241 1.40835
2027.95397 1.41074
2025.90554 1.41310
2023.85710 1.41539
2021.80866 1.41755
2019.76022 1.41922
2017.71178 1.42119
2015.66334 1.42391
2013.61491 1.42648
2011.56647 1.42880
2009.51803 1.43102
2007.46959 1.43234
2005.42115 1.43199
2003.37271 1.43054
2001.32428 1.42952
1999.27584 1.42937
1997.22740 1.42957
1995.17896 1.42993
1993.13052 1.42998
1991.08208 1.42912
1989.03365 1.42783
1986.98521 1.42680
1984.93677 1.42657
1982.88833 1.42707
1980.83989 1.42672
1978.79145 1.42457
1976.74302 1.42191
1974.69458 1.42082
1972.64614 1.42173
1970.59770 1.42280
1968.54926 1.42231
1966.50082 1.42014
1964.45239 1.41786
1962.40395 1.41684
1960.35551 1.41690
1958.30707 1.41705
1956.25863 1.41654
1954.21019 1.41565
1952.16176 1.41458
1950.11332 1.41341
1948.06488 1.41291
1946.01644 1.41339
1943.96800 1.41438
1941.91956 1.41565
1939.87112 1.41679
1937.82269 1.41720
1935.77425 1.41700
1933.72581 1.41676
1931.67737 1.41669
1929.62893 1.41649
1927.58049 1.41608
1925.53206 1.41612
1923.48362 1.41662
1921.43518 1.41697
1919.38674 1.41817
1917.33830 1.42075
1915.28986 1.42311
1913.24143 1.42507
1911.19299 1.42785
1909.14455 1.43046
1907.09611 1.43051
1905.04767 1.42906
1902.99923 1.42860
1900.95080 1.42956
1898.90236 1.43078
1896.85392 1.43131
1894.80548 1.43168
1892.75704 1.43280
1890.70860 1.43490
1888.66017 1.43706
1886.61173 1.43807
1884.56329 1.43818
1882.51485 1.43794
1880.46641 1.43798
1878.41797 1.43895
1876.36954 1.44097
1874.32110 1.44335
1872.27266 1.44520
1870.22422 1.44672
1868.17578 1.44817
1866.12734 1.44863
1864.07891 1.44869
1862.03047 1.44883
1859.98203 1.44873
1857.93359 1.44858
1855.88515 1.44763
1853.83671 1.44491
1851.78828 1.44159
1849.73984 1.43967
1847.69140 1.43981
1845.64296 1.44125
1843.59452 1.44192
1841.54608 1.44083
1839.49765 1.44006
1837.44921 1.44088
1835.40077 1.44283
1833.35233 1.44473
1831.30389 1.44663
1829.25545 1.44899
1827.20702 1.45059
1825.15858 1.45125
1823.11014 1.45095
1821.06170 1.45004
1819.01326 1.45036
1816.96482 1.45287
1814.91639 1.45555
1812.86795 1.45667
1810.81951 1.45746
1808.77107 1.45866
1806.72263 1.45954
1804.67419 1.46089
1802.62575 1.46337
1800.57732 1.46521
1798.52888 1.46524
1796.48044 1.46488
1794.43200 1.46462
1792.38356 1.46424
1790.33512 1.46299
1788.28669 1.46090
1786.23825 1.45969
1784.18981 1.46048
1782.14137 1.46211
1780.09293 1.46270
1778.04449 1.46171
1775.99606 1.46015
1773.94762 1.45783
1771.89918 1.45283
1769.85074 1.44660
1767.80230 1.44147
1765.75386 1.43745
1763.70543 1.43454
1761.65699 1.43228
1759.60855 1.43062
1757.56011 1.42947
1755.51167 1.42854
1753.46323 1.42815
1751.41480 1.42963
1749.36636 1.43281
1747.31792 1.43402
1745.26948 1.43361
1743.22104 1.43364
1741.17260 1.43458
1739.12417 1.43671
1737.07573 1.43900
1735.02729 1.44079
1732.97885 1.44184
1730.93041 1.44210
1728.88197 1.44259
1726.83354 1.44300
1724.78510 1.44360
1722.73666 1.44507
1720.68822 1.44722
1718.63978 1.45059
1716.59134 1.45559
1714.54291 1.45783
1712.49447 1.45733
1710.44603 1.45619
1708.39759 1.45550
1706.34915 1.45663
1704.30071 1.45908
1702.25228 1.46140
1700.20384 1.46662
1698.15540 1.47271
1696.10696 1.47391
1694.05852 1.47292
1692.01008 1.47265
1689.96165 1.47375
1687.91321 1.47485
1685.86477 1.47508
1683.81633 1.47671
1681.76789 1.47801
1679.71945 1.47728
1677.67102 1.47661
1675.62258 1.47735
1673.57414 1.47852
1671.52570 1.47898
1669.47726 1.47914
1667.42882 1.47876
1665.38038 1.47862
1663.33195 1.47932
1661.28351 1.47906
1659.23507 1.47708
1657.18663 1.47540
1655.13819 1.47439
1653.08975 1.47397
1651.04132 1.47485
1648.99288 1.47660
1646.94444 1.47997
1644.89600 1.48171
1642.84756 1.48142
1640.79912 1.48164
1638.75069 1.48294
1636.70225 1.48557
1634.65381 1.48888
1632.60537 1.49117
1630.55693 1.49281
1628.50849 1.49348
1626.46006 1.49323
1624.41162 1.49478
1622.36318 1.49893
1620.31474 1.50166
1618.26630 1.50300
1616.21786 1.50453
1614.16943 1.50528
1612.12099 1.50579
1610.07255 1.50642
1608.02411 1.50594
1605.97567 1.50436
1603.92723 1.50281
1601.87880 1.50127
1599.83036 1.49943
1597.78192 1.49701
1595.73348 1.49443
1593.68504 1.49334
1591.63660 1.49315
1589.58817 1.49192
1587.53973 1.49026
1585.49129 1.48879
1583.44285 1.48685
1581.39441 1.48529
1579.34597 1.48493
1577.29754 1.48426
1575.24910 1.48112
1573.20066 1.47816
1571.15222 1.47580
1569.10378 1.47198
1567.05534 1.46774
1565.00691 1.46531
1562.95847 1.46510
1560.91003 1.46612
1558.86159 1.46801
1556.81315 1.47008
1554.76471 1.47098
1552.71628 1.47057
1550.66784 1.46893
1548.61940 1.46723
1546.57096 1.46581
1544.52252 1.46397
1542.47408 1.46286
1540.42565 1.46513
1538.37721 1.46725
1536.32877 1.46748
1534.28033 1.46835
1532.23189 1.46907
1530.18345 1.46796
1528.13501 1.46658
1526.08658 1.46652
1524.03814 1.46795
1521.98970 1.47085
1519.94126 1.47379
1517.89282 1.47477
1515.84438 1.47373
1513.79595 1.47180
1511.74751 1.47117
1509.69907 1.47177
1507.65063 1.47061
1505.60219 1.46597
1503.55375 1.46339
1501.50532 1.46236
1499.45688 1.46253
1497.40844 1.46418
1495.36000 1.46598
1493.31156 1.46699
1491.26312 1.46819
1489.21469 1.46899
1487.16625 1.46766
1485.11781 1.46629
1483.06937 1.46680
1481.02093 1.46847
1478.97249 1.46952
1476.92406 1.47025
1474.87562 1.47165
1472.82718 1.47226
1470.77874 1.46999
1468.73030 1.46776
1466.68186 1.46742
1464.63343 1.46919
1462.58499 1.47186
1460.53655 1.47442
1458.48811 1.47724
1456.43967 1.47776
1454.39123 1.47508
1452.34280 1.47348
1450.29436 1.47439
1448.24592 1.47793
1446.19748 1.48076
1444.14904 1.48076
1442.10060 1.47994
1440.05217 1.47912
1438.00373 1.47895
1435.95529 1.48112
1433.90685 1.48355
1431.85841 1.48464
1429.80997 1.48362
1427.76154 1.48062
1425.71310 1.47921
1423.66466 1.48131
1421.61622 1.48445
1419.56778 1.48527
1417.51934 1.48262
1415.47091 1.47952
1413.42247 1.47774
1411.37403 1.47726
1409.32559 1.47796
1407.27715 1.47875
1405.22871 1.47886
1403.18028 1.47851
1401.13184 1.47780
1399.08340 1.47597
1397.03496 1.47201
1394.98652 1.46755
1392.93808 1.46546
1390.88965 1.46514
1388.84121 1.46503
1386.79277 1.46545
1384.74433 1.46573
1382.69589 1.46454
1380.64745 1.46288
1378.59901 1.46158
1376.55058 1.46108
1374.50214 1.46258
1372.45370 1.46411
1370.40526 1.46324
1368.35682 1.46076
1366.30838 1.45829
1364.25995 1.45813
1362.21151 1.46017
1360.16307 1.45904
1358.11463 1.45414
1356.06619 1.45009
1354.01775 1.44915
1351.96932 1.44979
1349.92088 1.45021
1347.87244 1.44992
1345.82400 1.44971
1343.77556 1.44978
1341.72712 1.44948
1339.67869 1.44885
1337.63025 1.44841
1335.58181 1.44886
1333.53337 1.44991
1331.48493 1.45107
1329.43649 1.45202
1327.38806 1.45152
1325.33962 1.44922
1323.29118 1.44657
1321.24274 1.44461
1319.19430 1.44286
1317.14586 1.44044
1315.09743 1.43726
1313.04899 1.43448
1311.00055 1.43269
1308.95211 1.43082
1306.90367 1.42861
1304.85523 1.42746
1302.80680 1.42781
1300.75836 1.42879
1298.70992 1.43003
1296.66148 1.43078
1294.61304 1.43043
1292.56460 1.42966
1290.51617 1.42910
1288.46773 1.42846
1286.41929 1.42763
1284.37085 1.42677
1282.32241 1.42590
1280.27397 1.42529
1278.22554 1.42464
1276.17710 1.42297
1274.12866 1.42098
1272.08022 1.41955
1270.03178 1.41771
1267.98334 1.41541
1265.93491 1.41274
1263.88647 1.40798
1261.83803 1.40003
1259.78959 1.39064
1257.74115 1.38352
1255.69271 1.37845
1253.64428 1.37229
1251.59584 1.36513
1249.54740 1.35803
1247.49896 1.35170
1245.45052 1.34783
1243.40208 1.34604
1241.35364 1.34337
1239.30521 1.33804
1237.25677 1.33148
1235.20833 1.32559
1233.15989 1.31937
1231.11145 1.31170
1229.06301 1.30429
1227.01458 1.29890
1224.96614 1.29584
1222.91770 1.29562
1220.86926 1.29839
1218.82082 1.30343
1216.77238 1.30979
1214.72395 1.31603
1212.67551 1.32215
1210.62707 1.32925
1208.57863 1.33677
1206.53019 1.34403
1204.48175 1.35115
1202.43332 1.35827
1200.38488 1.36549
1198.33644 1.37275
1196.28800 1.37975
1194.23956 1.38578
1192.19112 1.39107
1190.14269 1.39728
1188.09425 1.40472
1186.04581 1.41180
1183.99737 1.41767
1181.94893 1.42248
1179.90049 1.42680
1177.85206 1.43186
1175.80362 1.43831
1173.75518 1.44584
1171.70674 1.45388
1169.65830 1.46245
1167.60986 1.47341
1165.56143 1.48857
1163.51299 1.50619
1161.46455 1.52125
1159.41611 1.52756
1157.36767 1.52317
1155.31923 1.51393
1153.27080 1.50667
1151.22236 1.50298
1149.17392 1.50178
1147.12548 1.50303
1145.07704 1.50683
1143.02860 1.51227
1140.98017 1.51818
1138.93173 1.52408
1136.88329 1.52935
1134.83485 1.53361
1132.78641 1.53856
1130.73797 1.54535
1128.68954 1.55349
1126.64110 1.56261
1124.59266 1.57258
1122.54422 1.58356
1120.49578 1.59548
1118.44734 1.60736
1116.39891 1.61791
1114.35047 1.62532
1112.30203 1.62711
1110.25359 1.62324
1108.20515 1.61700
1106.15671 1.61055
1104.10827 1.60357
1102.05984 1.59675
1100.01140 1.59197
1097.96296 1.58969
1095.91452 1.58848
1093.86608 1.58680
1091.81764 1.58429
1089.76921 1.58146
1087.72077 1.57893
1085.67233 1.57660
1083.62389 1.57382
1081.57545 1.57041
1079.52701 1.56609
1077.47858 1.56151
1075.43014 1.55930
1073.38170 1.56164
1071.33326 1.56872
1069.28482 1.57892
1067.23638 1.59107
1065.18795 1.60503
1063.13951 1.61908
1061.09107 1.63159
1059.04263 1.64307
1056.99419 1.65365
1054.94575 1.66264
1052.89732 1.66952
1050.84888 1.67465
1048.80044 1.67949
1046.75200 1.68475
1044.70356 1.68980
1042.65512 1.69486
1040.60669 1.70078
1038.55825 1.70715
1036.50981 1.71403
1034.46137 1.72194
1032.41293 1.73008
1030.36449 1.73690
1028.31606 1.74199
1026.26762 1.74695
1024.21918 1.75177
1022.17074 1.75458
1020.12230 1.75539
1018.07386 1.75563
1016.02543 1.75603
1013.97699 1.75791
1011.92855 1.76284
1009.88011 1.76835
1007.83167 1.77206
1005.78323 1.77536
1003.73480 1.77912
1001.68636 1.78317
999.63792 1.78589
997.58948 1.78688
995.54104 1.78857
993.49260 1.79092
991.44417 1.79274
989.39573 1.79377
987.34729 1.79357
985.29885 1.79278
983.25041 1.79358
981.20197 1.79662
979.15354 1.79973
977.10510 1.80197
975.05666 1.80262
973.00822 1.80106
970.95978 1.79820
968.91134 1.79408
966.86290 1.78895
964.81447 1.78319
962.76603 1.77707
960.71759 1.77180
958.66915 1.76737
956.62071 1.76363
954.57227 1.76155
952.52384 1.76142
950.47540 1.76217
948.42696 1.76178
946.37852 1.76020
944.33008 1.75902
942.28164 1.75860
940.23321 1.75960
938.18477 1.76215
936.13633 1.76513
934.08789 1.76743
932.03945 1.76806
929.99101 1.76716
927.94258 1.76622
925.89414 1.76677
923.84570 1.76854
921.79726 1.77018
919.74882 1.77157
917.70038 1.77318
915.65195 1.77520
913.60351 1.77708
911.55507 1.77588
909.50663 1.77010
907.45819 1.76297
905.40975 1.75661
903.36132 1.74894
901.31288 1.73794
899.26444 1.72420
897.21600 1.71003
895.16756 1.69795
893.11912 1.68891
891.07069 1.68237
889.02225 1.67836
886.97381 1.67746
884.92537 1.67765
882.87693 1.67499
880.82849 1.66891
878.78006 1.66244
876.73162 1.65971
874.68318 1.66237
872.63474 1.66589
870.58630 1.66505
868.53786 1.65889
866.48943 1.65022
864.44099 1.64569
862.39255 1.64681
860.34411 1.64664
858.29567 1.64347
856.24723 1.64308
854.19880 1.64612
852.15036 1.64848
850.10192 1.65063
848.05348 1.65639
846.00504 1.66639
843.95660 1.67840
841.90817 1.68968
839.85973 1.69543
837.81129 1.69483
835.76285 1.69348
833.71441 1.69372
831.66597 1.69418
829.61753 1.69405
827.56910 1.69400
825.52066 1.69493
823.47222 1.69672
821.42378 1.70115
819.37534 1.70981
817.32690 1.71847
815.27847 1.72140
813.23003 1.71971
811.18159 1.71669
809.13315 1.71272
807.08471 1.70994
805.03627 1.71241
802.98784 1.72159
800.93940 1.73494
798.89096 1.74960
796.84252 1.76470
794.79408 1.77775
792.74564 1.78716
790.69721 1.79374
788.64877 1.79359
786.60033 1.78480
784.55189 1.77406
782.50345 1.76712
780.45501 1.76556
778.40658 1.76828
776.35814 1.77195
774.30970 1.77232
772.26126 1.76839
770.21282 1.76614
768.16438 1.76910
766.11595 1.77254
764.06751 1.77140
762.01907 1.76672
759.97063 1.76174
757.92219 1.75724
755.87375 1.75431
753.82532 1.75417
751.77688 1.75403
749.72844 1.75227
747.68000 1.75150
745.63156 1.75023
743.58312 1.74609
741.53469 1.73830
739.48625 1.72852
737.43781 1.72480
735.38937 1.72837
733.34093 1.73217
731.29249 1.73277
729.24406 1.72991
727.19562 1.72406
725.14718 1.71904
723.09874 1.71646
721.05030 1.71331
719.00186 1.71215
716.95343 1.71628
714.90499 1.72259
712.85655 1.73059
710.80811 1.74484
708.75967 1.76405
706.71123 1.78160
704.66280 1.79589
702.61436 1.80812
700.56592 1.81921
698.51748 1.82678
696.46904 1.82585
694.42060 1.81153
692.37216 1.78771
690.32373 1.76994
688.27529 1.76534
686.22685 1.76672
684.17841 1.76648
682.12997 1.76932
680.08153 1.77921
678.03310 1.78199
675.98466 1.77096
673.93622 1.76260
671.88778 1.76814
669.83934 1.78835
667.79090 1.81145
665.74247 1.81184
663.69403 1.80333
661.64559 1.79023
659.59715 1.77427
657.54871 1.75865
655.50027 1.74610
653.45184 1.75081
651.40340 1.77322
649.35496 1.78499
647.30652 1.77007
645.25808 1.75092
643.20964 1.74751
641.16121 1.76005
639.11277 1.77770
637.06433 1.78253
635.01589 1.77766
632.96745 1.78791
630.91901 1.81168
628.87058 1.83093
626.82214 1.83773
624.77370 1.82705
622.72526 1.80973
620.67682 1.79409
618.62838 1.78714
616.57995 1.79590
614.53151 1.79956
612.48307 1.78861
610.43463 1.78603
608.38619 1.79207
606.33775 1.79047
604.28932 1.78686
602.24088 1.77220
600.19244 1.75083
598.14400 1.74334
