3996.50324 1.12062
3994.45480 1.12094
3992.40636 1.12072
3990.35792 1.12027
3988.30948 1.12019
3986.26104 1.12062
3984.21261 1.12130
3982.16417 1.12192
3980.11573 1.12210
3978.06729 1.12158
3976.01885 1.12120
3973.97041 1.12152
3971.92198 1.12201
3969.87354 1.12238
3967.82510 1.12240
3965.77666 1.12203
3963.72822 1.12190
3961.67978 1.12217
3959.63135 1.12221
3957.58291 1.12196
3955.53447 1.12168
3953.48603 1.12158
3951.43759 1.12186
3949.38915 1.12233
3947.34072 1.12258
3945.29228 1.12225
3943.24384 1.12218
3941.19540 1.12272
3939.14696 1.12257
3937.09852 1.12193
3935.05009 1.12134
3933.00165 1.12134
3930.95321 1.12235
3928.90477 1.12276
3926.85633 1.12244
3924.80789 1.12284
3922.75946 1.12335
3920.71102 1.12297
3918.66258 1.12278
3916.61414 1.12345
3914.56570 1.12397
3912.51726 1.12397
3910.46883 1.12360
3908.42039 1.12241
3906.37195 1.12129
3904.32351 1.12271
3902.27507 1.12570
3900.22663 1.12685
3898.17820 1.12659
3896.12976 1.12534
3894.08132 1.12378
3892.03288 1.12388
3889.98444 1.12478
3887.93600 1.12374
3885.88756 1.12327
3883.83913 1.12423
3881.79069 1.12412
3879.74225 1.12480
3877.69381 1.12478
3875.64537 1.12357
3873.59693 1.12360
3871.54850 1.12440
3869.50006 1.12658
3867.45162 1.12815
3865.40318 1.12820
3863.35474 1.12934
3861.30630 1.12972
3859.25787 1.12809
3857.20943 1.12540
3855.16099 1.12319
3853.11255 1.12780
3851.06411 1.13251
3849.01567 1.13106
3846.96724 1.12904
3844.91880 1.12800
3842.87036 1.12746
3840.82192 1.12743
3838.77348 1.12916
3836.72504 1.13122
3834.67661 1.13099
3832.62817 1.13037
3830.57973 1.13019
3828.53129 1.12940
3826.48285 1.12871
3824.43441 1.12750
3822.38598 1.12586
3820.33754 1.12771
3818.28910 1.12938
3816.24066 1.12981
3814.19222 1.13064
3812.14378 1.12982
3810.09535 1.12829
3808.04691 1.12802
3805.99847 1.12946
3803.95003 1.12924
3801.90159 1.12939
3799.85315 1.13211
3797.80472 1.13296
3795.75628 1.13341
3793.70784 1.13374
3791.65940 1.13321
3789.61096 1.13259
3787.56252 1.13181
3785.51409 1.13169
3783.46565 1.13212
3781.41721 1.13187
3779.36877 1.13252
3777.32033 1.13363
3775.27189 1.13298
3773.22346 1.13155
3771.17502 1.13121
3769.12658 1.13282
3767.07814 1.13414
3765.02970 1.13451
3762.98126 1.13435
3760.93283 1.13414
3758.88439 1.13648
3756.83595 1.13965
3754.78751 1.14005
3752.73907 1.13941
3750.69063 1.14320
3748.64219 1.14851
3746.59376 1.14935
3744.54532 1.15090
3742.49688 1.15377
3740.44844 1.15412
3738.40000 1.15404
3736.35156 1.15774
3734.30313 1.16588
3732.25469 1.17208
3730.20625 1.17507
3728.15781 1.17783
3726.10937 1.18285
3724.06093 1.18996
3722.01250 1.19803
3719.96406 1.20731
3717.91562 1.21728
3715.86718 1.22708
3713.81874 1.23862
3711.77030 1.25943
3709.72187 1.28775
3707.67343 1.31101
3705.62499 1.33213
3703.57655 1.35623
3701.52811 1.38306
3699.47967 1.40084
3697.43124 1.40446
3695.38280 1.39844
3693.33436 1.38758
3691.28592 1.37334
3689.23748 1.35366
3687.18904 1.33547
3685.14061 1.32422
3683.09217 1.31654
3681.04373 1.31220
3678.99529 1.31134
3676.94685 1.31469
3674.89841 1.32549
3672.84998 1.33476
3670.80154 1.33958
3668.75310 1.34223
3666.70466 1.34177
3664.65622 1.34055
3662.60778 1.34179
3660.55935 1.34620
3658.51091 1.35182
3656.46247 1.35777
3654.41403 1.36232
3652.36559 1.36361
3650.31715 1.36173
3648.26872 1.35635
3646.22028 1.35151
3644.17184 1.34875
3642.12340 1.34712
3640.07496 1.34712
3638.02652 1.34817
3635.97809 1.34977
3633.92965 1.35281
3631.88121 1.35607
3629.83277 1.36012
3627.78433 1.36932
3625.73589 1.37953
3623.68746 1.39085
3621.63902 1.40323
3619.59058 1.40538
3617.54214 1.38949
3615.49370 1.37187
3613.44526 1.35883
3611.39682 1.35045
3609.34839 1.34571
3607.29995 1.34126
3605.25151 1.33673
3603.20307 1.33269
3601.15463 1.32864
3599.10619 1.32432
3597.05776 1.31982
3595.00932 1.31466
3592.96088 1.30895
3590.91244 1.30435
3588.86400 1.30052
3586.81556 1.29618
3584.76713 1.29211
3582.71869 1.28879
3580.67025 1.28551
3578.62181 1.28237
3576.57337 1.27970
3574.52493 1.27741
3572.47650 1.27568
3570.42806 1.27452
3568.37962 1.27397
3566.33118 1.27319
3564.28274 1.27135
3562.23430 1.26952
3560.18587 1.26850
3558.13743 1.26786
3556.08899 1.26706
3554.04055 1.26679
3551.99211 1.26706
3549.94367 1.26710
3547.89524 1.26703
3545.84680 1.26713
3543.79836 1.26676
3541.74992 1.26570
3539.70148 1.26476
3537.65304 1.26484
3535.60461 1.26537
3533.55617 1.26546
3531.50773 1.26542
3529.45929 1.26549
3527.41085 1.26587
3525.36241 1.26645
3523.31398 1.26696
3521.26554 1.26712
3519.21710 1.26680
3517.16866 1.26660
3515.12022 1.26700
3513.07178 1.26730
3511.02335 1.26767
3508.97491 1.26872
3506.92647 1.26930
3504.87803 1.26906
3502.82959 1.26888
3500.78115 1.26858
3498.73272 1.26800
3496.68428 1.26757
3494.63584 1.26757
3492.58740 1.26837
3490.53896 1.26991
3488.49052 1.27130
3486.44209 1.27218
3484.39365 1.27259
3482.34521 1.27230
3480.29677 1.27126
3478.24833 1.27026
3476.19989 1.27047
3474.15146 1.27162
3472.10302 1.27243
3470.05458 1.27277
3468.00614 1.27317
3465.95770 1.27375
3463.90926 1.27414
3461.86082 1.27419
3459.81239 1.27437
3457.76395 1.27501
3455.71551 1.27600
3453.66707 1.27696
3451.61863 1.27747
3449.57019 1.27732
3447.52176 1.27706
3445.47332 1.27699
3443.42488 1.27673
3441.37644 1.27648
3439.32800 1.27633
3437.27956 1.27618
3435.23113 1.27642
3433.18269 1.27702
3431.13425 1.27727
3429.08581 1.27706
3427.03737 1.27717
3424.98893 1.27794
3422.94050 1.27894
3420.89206 1.27953
3418.84362 1.27947
3416.79518 1.27921
3414.74674 1.27926
3412.69830 1.27986
3410.64987 1.28087
3408.60143 1.28153
3406.55299 1.28135
3404.50455 1.28118
3402.45611 1.28118
3400.40767 1.28086
3398.35924 1.28062
3396.31080 1.28041
3394.26236 1.27991
3392.21392 1.27953
3390.16548 1.27926
3388.11704 1.27877
3386.06861 1.27802
3384.02017 1.27728
3381.97173 1.27713
3379.92329 1.27747
3377.87485 1.27743
3375.82641 1.27677
3373.77798 1.27650
3371.72954 1.27719
3369.68110 1.27795
3367.63266 1.27823
3365.58422 1.27844
3363.53578 1.27863
3361.48735 1.27859
3359.43891 1.27838
3357.39047 1.27864
3355.34203 1.27923
3353.29359 1.27910
3351.24515 1.27843
3349.19672 1.27786
3347.14828 1.27761
3345.09984 1.27790
3343.05140 1.27838
3341.00296 1.27820
3338.95452 1.27781
3336.90609 1.27818
3334.85765 1.27891
3332.80921 1.27937
3330.76077 1.27953
3328.71233 1.27944
3326.66389 1.27938
3324.61545 1.27950
3322.56702 1.27986
3320.51858 1.28018
3318.47014 1.28014
3316.42170 1.27996
3314.37326 1.27970
3312.32482 1.27926
3310.27639 1.27898
3308.22795 1.27891
3306.17951 1.27845
3304.13107 1.27778
3302.08263 1.27753
3300.03419 1.27745
3297.98576 1.27718
3295.93732 1.27699
3293.88888 1.27711
3291.84044 1.27689
3289.79200 1.27607
3287.74356 1.27512
3285.69513 1.27442
3283.64669 1.27415
3281.59825 1.27403
3279.54981 1.27377
3277.50137 1.27364
3275.45293 1.27346
3273.40450 1.27303
3271.35606 1.27297
3269.30762 1.27336
3267.25918 1.27366
3265.21074 1.27382
3263.16230 1.27344
3261.11387 1.27223
3259.06543 1.27090
3257.01699 1.27017
3254.96855 1.26999
3252.92011 1.26945
3250.87167 1.26839
3248.82324 1.26773
3246.77480 1.26752
3244.72636 1.26716
3242.67792 1.26687
3240.62948 1.26692
3238.58104 1.26659
3236.53261 1.26552
3234.48417 1.26458
3232.43573 1.26415
3230.38729 1.26364
3228.33885 1.26283
3226.29041 1.26201
3224.24198 1.26132
3222.19354 1.26094
3220.14510 1.26064
3218.09666 1.26005
3216.04822 1.25978
3213.99978 1.26001
3211.95135 1.26001
3209.90291 1.25940
3207.85447 1.25852
3205.80603 1.25766
3203.75759 1.25698
3201.70915 1.25659
3199.66072 1.25653
3197.61228 1.25665
3195.56384 1.25609
3193.51540 1.25467
3191.46696 1.25350
3189.41852 1.25280
3187.37008 1.25180
3185.32165 1.25059
3183.27321 1.24964
3181.22477 1.24872
3179.17633 1.24772
3177.12789 1.24656
3175.07945 1.24491
3173.03102 1.24345
3170.98258 1.24275
3168.93414 1.24221
3166.88570 1.24164
3164.83726 1.24154
3162.78882 1.24194
3160.74039 1.24231
3158.69195 1.24228
3156.64351 1.24176
3154.59507 1.24099
3152.54663 1.24037
3150.49819 1.23994
3148.44976 1.23964
3146.40132 1.23943
3144.35288 1.23901
3142.30444 1.23812
3140.25600 1.23669
3138.20756 1.23526
3136.15913 1.23430
3134.11069 1.23341
3132.06225 1.23230
3130.01381 1.23124
3127.96537 1.23022
3125.91693 1.22923
3123.86850 1.22867
3121.82006 1.22834
3119.77162 1.22767
3117.72318 1.22692
3115.67474 1.22649
3113.62630 1.22636
3111.57787 1.22645
3109.52943 1.22663
3107.48099 1.22653
3105.43255 1.22595
3103.38411 1.22533
3101.33567 1.22501
3099.28724 1.22471
3097.23880 1.22400
3095.19036 1.22302
3093.14192 1.22222
3091.09348 1.22162
3089.04504 1.22116
3086.99661 1.22081
3084.94817 1.22042
3082.89973 1.22001
3080.85129 1.21952
3078.80285 1.21879
3076.75441 1.21805
3074.70598 1.21765
3072.65754 1.21770
3070.60910 1.21767
3068.56066 1.21727
3066.51222 1.21686
3064.46378 1.21635
3062.41535 1.21564
3060.36691 1.21508
3058.31847 1.21491
3056.27003 1.21513
3054.22159 1.21533
3052.17315 1.21542
3050.12471 1.21582
3048.07628 1.21617
3046.02784 1.21587
3043.97940 1.21539
3041.93096 1.21512
3039.88252 1.21504
3037.83408 1.21546
3035.78565 1.21613
3033.73721 1.21635
3031.68877 1.21628
3029.64033 1.21616
3027.59189 1.21581
3025.54345 1.21546
3023.49502 1.21491
3021.44658 1.21356
3019.39814 1.21222
3017.34970 1.21159
3015.30126 1.21077
3013.25282 1.20937
3011.20439 1.20801
3009.15595 1.20718
3007.10751 1.20700
3005.05907 1.20724
3003.01063 1.20781
3000.96219 1.20874
2998.91376 1.20957
2996.86532 1.20968
2994.81688 1.20955
2992.76844 1.21018
2990.72000 1.21160
2988.67156 1.21320
2986.62313 1.21420
2984.57469 1.21442
2982.52625 1.21462
2980.47781 1.21515
2978.42937 1.21565
2976.38093 1.21603
2974.33250 1.21662
2972.28406 1.21772
2970.23562 1.21949
2968.18718 1.22179
2966.13874 1.22386
2964.09030 1.22521
2962.04187 1.22605
2959.99343 1.22638
2957.94499 1.22628
2955.89655 1.22621
2953.84811 1.22610
2951.79967 1.22576
2949.75124 1.22563
2947.70280 1.22581
2945.65436 1.22590
2943.60592 1.22582
2941.55748 1.22588
2939.50904 1.22642
2937.46061 1.22754
2935.41217 1.22921
2933.36373 1.23139
2931.31529 1.23368
2929.26685 1.23533
2927.21841 1.23561
2925.16998 1.23466
2923.12154 1.23330
2921.07310 1.23180
2919.02466 1.22999
2916.97622 1.22773
2914.92778 1.22497
2912.87934 1.22207
2910.83091 1.21941
2908.78247 1.21695
2906.73403 1.21459
2904.68559 1.21231
2902.63715 1.21001
2900.58871 1.20783
2898.54028 1.20629
2896.49184 1.20553
2894.44340 1.20508
2892.39496 1.20447
2890.34652 1.20382
2888.29808 1.20335
2886.24965 1.20270
2884.20121 1.20206
2882.15277 1.20188
2880.10433 1.20151
2878.05589 1.20057
2876.00745 1.19977
2873.95902 1.19939
2871.91058 1.19928
2869.86214 1.19939
2867.81370 1.19988
2865.76526 1.20056
2863.71682 1.20064
2861.66839 1.20033
2859.61995 1.20042
2857.57151 1.20105
2855.52307 1.20196
2853.47463 1.20229
2851.42619 1.20126
2849.37776 1.19921
2847.32932 1.19656
2845.28088 1.19366
2843.23244 1.19085
2841.18400 1.18824
2839.13556 1.18566
2837.08713 1.18291
2835.03869 1.18057
2832.99025 1.17923
2830.94181 1.17824
2828.89337 1.17667
2826.84493 1.17475
2824.79650 1.17332
2822.74806 1.17268
2820.69962 1.17250
2818.65118 1.17233
2816.60274 1.17206
2814.55430 1.17158
2812.50587 1.17080
2810.45743 1.16978
2808.40899 1.16857
2806.36055 1.16749
2804.31211 1.16702
2802.26367 1.16704
2800.21524 1.16688
2798.16680 1.16610
2796.11836 1.16501
2794.06992 1.16413
2792.02148 1.16322
2789.97304 1.16207
2787.92461 1.16119
2785.87617 1.16099
2783.82773 1.16127
2781.77929 1.16141
2779.73085 1.16099
2777.68241 1.16032
2775.63397 1.15990
2773.58554 1.15939
2771.53710 1.15820
2769.48866 1.15687
2767.44022 1.15640
2765.39178 1.15666
2763.34334 1.15700
2761.29491 1.15722
2759.24647 1.15730
2757.19803 1.15731
2755.14959 1.15708
2753.10115 1.15630
2751.05271 1.15532
2749.00428 1.15485
2746.95584 1.15493
2744.90740 1.15508
2742.85896 1.15501
2740.81052 1.15488
2738.76208 1.15473
2736.71365 1.15420
2734.66521 1.15351
2732.61677 1.15315
2730.56833 1.15323
2728.51989 1.15354
2726.47145 1.15384
2724.42302 1.15406
2722.37458 1.15442
2720.32614 1.15502
2718.27770 1.15550
2716.22926 1.15558
2714.18082 1.15568
2712.13239 1.15601
2710.08395 1.15583
2708.03551 1.15480
2705.98707 1.15360
2703.93863 1.15263
2701.89019 1.15152
2699.84176 1.15020
2697.79332 1.14940
2695.74488 1.14961
2693.69644 1.15026
2691.64800 1.15055
2689.59956 1.15035
2687.55113 1.15018
2685.50269 1.15026
2683.45425 1.15036
2681.40581 1.15040
2679.35737 1.15053
2677.30893 1.15074
2675.26050 1.15086
2673.21206 1.15100
2671.16362 1.15095
2669.11518 1.15043
2667.06674 1.14988
2665.01830 1.14974
2662.96987 1.14971
2660.92143 1.14921
2658.87299 1.14840
2656.82455 1.14782
2654.77611 1.14754
2652.72767 1.14732
2650.67924 1.14697
2648.63080 1.14649
2646.58236 1.14601
2644.53392 1.14550
2642.48548 1.14494
2640.43704 1.14475
2638.38860 1.14498
2636.34017 1.14486
2634.29173 1.14410
2632.24329 1.14350
2630.19485 1.14358
2628.14641 1.14394
2626.09797 1.14424
2624.04954 1.14448
2622.00110 1.14460
2619.95266 1.14442
2617.90422 1.14439
2615.85578 1.14455
2613.80734 1.14417
2611.75891 1.14331
2609.71047 1.14262
2607.66203 1.14247
2605.61359 1.14271
2603.56515 1.14287
2601.51671 1.14256
2599.46828 1.14179
2597.41984 1.14076
2595.37140 1.13957
2593.32296 1.13856
2591.27452 1.13802
2589.22608 1.13787
2587.17765 1.13770
2585.12921 1.13747
2583.08077 1.13769
2581.03233 1.13829
2578.98389 1.13864
2576.93545 1.13877
2574.88702 1.13910
2572.83858 1.13954
2570.79014 1.13982
2568.74170 1.13987
2566.69326 1.13965
2564.64482 1.13958
2562.59639 1.14013
2560.54795 1.14106
2558.49951 1.14157
2556.45107 1.14143
2554.40263 1.14117
2552.35419 1.14104
2550.30576 1.14088
2548.25732 1.14044
2546.20888 1.13986
2544.16044 1.13960
2542.11200 1.13975
2540.06356 1.14012
2538.01513 1.14054
2535.96669 1.14088
2533.91825 1.14147
2531.86981 1.14245
2529.82137 1.14318
2527.77293 1.14331
2525.72450 1.14310
2523.67606 1.14301
2521.62762 1.14318
2519.57918 1.14324
2517.53074 1.14304
2515.48230 1.14306
2513.43387 1.14344
2511.38543 1.14366
2509.33699 1.14345
2507.28855 1.14282
2505.24011 1.14183
2503.19167 1.14119
2501.14324 1.14140
2499.09480 1.14204
2497.04636 1.14266
2494.99792 1.14301
2492.94948 1.14281
2490.90104 1.14213
2488.85260 1.14118
2486.80417 1.14018
2484.75573 1.13949
2482.70729 1.13897
2480.65885 1.13839
2478.61041 1.13793
2476.56197 1.13787
2474.51354 1.13823
2472.46510 1.13873
2470.41666 1.13890
2468.36822 1.13856
2466.31978 1.13797
2464.27134 1.13770
2462.22291 1.13819
2460.17447 1.13899
2458.12603 1.13915
2456.07759 1.13840
2454.02915 1.13752
2451.98071 1.13729
2449.93228 1.13760
2447.88384 1.13817
2445.83540 1.13878
2443.78696 1.13900
2441.73852 1.13870
2439.69008 1.13816
2437.64165 1.13791
2435.59321 1.13808
2433.54477 1.13803
2431.49633 1.13758
2429.44789 1.13701
2427.39945 1.13632
2425.35102 1.13584
2423.30258 1.13572
2421.25414 1.13560
2419.20570 1.13565
2417.15726 1.13617
2415.10882 1.13670
2413.06039 1.13676
2411.01195 1.13632
2408.96351 1.13559
2406.91507 1.13511
2404.86663 1.13536
2402.81819 1.13621
2400.76976 1.13710
2398.72132 1.13759
2396.67288 1.13775
2394.62444 1.13776
2392.57600 1.13780
2390.52756 1.13796
2388.47913 1.13850
2386.43069 1.13947
2384.38225 1.14061
2382.33381 1.14197
2380.28537 1.14356
2378.23693 1.14527
2376.18850 1.14736
2374.14006 1.14973
2372.09162 1.15170
2370.04318 1.15377
2367.99474 1.15691
2365.94630 1.16097
2363.89787 1.16468
2361.84943 1.16661
2359.80099 1.16745
2357.75255 1.16768
2355.70411 1.16695
2353.65567 1.16583
2351.60723 1.16423
2349.55880 1.16289
2347.51036 1.16408
2345.46192 1.16945
2343.41348 1.17710
2341.36504 1.18348
2339.31660 1.18942
2337.26817 1.19673
2335.21973 1.20415
2333.17129 1.20736
2331.12285 1.20355
2329.07441 1.19524
2327.02597 1.18688
2324.97754 1.17942
2322.92910 1.17243
2320.88066 1.16640
2318.83222 1.16118
2316.78378 1.15702
2314.73534 1.15460
2312.68691 1.15319
2310.63847 1.15182
2308.59003 1.15038
2306.54159 1.14887
2304.49315 1.14720
2302.44471 1.14570
2300.39628 1.14477
2298.34784 1.14432
2296.29940 1.14414
2294.25096 1.14418
2292.20252 1.14453
2290.15408 1.14533
2288.10565 1.14601
2286.05721 1.14585
2284.00877 1.14533
2281.96033 1.14493
2279.91189 1.14457
2277.86345 1.14471
2275.81502 1.14561
2273.76658 1.14669
2271.71814 1.14780
2269.66970 1.14929
2267.62126 1.15095
2265.57282 1.15232
2263.52439 1.15318
2261.47595 1.15344
2259.42751 1.15324
2257.37907 1.15308
2255.33063 1.15361
2253.28219 1.15481
2251.23376 1.15605
2249.18532 1.15714
2247.13688 1.15809
2245.08844 1.15874
2243.04000 1.15922
2240.99156 1.15974
2238.94313 1.16020
2236.89469 1.16034
2234.84625 1.15990
2232.79781 1.15910
2230.74937 1.15833
2228.70093 1.15764
2226.65250 1.15725
2224.60406 1.15704
2222.55562 1.15680
2220.50718 1.15685
2218.45874 1.15702
2216.41030 1.15661
2214.36186 1.15556
2212.31343 1.15427
2210.26499 1.15295
2208.21655 1.15213
2206.16811 1.15210
2204.11967 1.15219
2202.07123 1.15175
2200.02280 1.15097
2197.97436 1.15077
2195.92592 1.15164
2193.87748 1.15286
2191.82904 1.15343
2189.78060 1.15339
2187.73217 1.15347
2185.68373 1.15356
2183.63529 1.15321
2181.58685 1.15279
2179.53841 1.15308
2177.48997 1.15396
2175.44154 1.15458
2173.39310 1.15450
2171.34466 1.15398
2169.29622 1.15371
2167.24778 1.15405
2165.19934 1.15449
2163.15091 1.15458
2161.10247 1.15508
2159.05403 1.15650
2157.00559 1.15822
2154.95715 1.15955
2152.90871 1.16052
2150.86028 1.16144
2148.81184 1.16231
2146.76340 1.16305
2144.71496 1.16368
2142.66652 1.16437
2140.61808 1.16507
2138.56965 1.16523
2136.52121 1.16450
2134.47277 1.16333
2132.42433 1.16211
2130.37589 1.16105
2128.32745 1.16040
2126.27902 1.15971
2124.23058 1.15868
2122.18214 1.15818
2120.13370 1.15874
2118.08526 1.15967
2116.03682 1.16012
2113.98839 1.15989
2111.93995 1.15947
2109.89151 1.15935
2107.84307 1.15954
2105.79463 1.16005
2103.74619 1.16086
2101.69776 1.16158
2099.64932 1.16206
2097.60088 1.16267
2095.55244 1.16364
2093.50400 1.16476
2091.45556 1.16556
2089.40713 1.16601
2087.35869 1.16659
2085.31025 1.16728
2083.26181 1.16773
2081.21337 1.16818
2079.16493 1.16901
2077.11649 1.17032
2075.06806 1.17200
2073.01962 1.17359
2070.97118 1.17430
2068.92274 1.17408
2066.87430 1.17387
2064.82586 1.17428
2062.77743 1.17482
2060.72899 1.17529
2058.68055 1.17587
2056.63211 1.17627
2054.58367 1.17667
2052.53523 1.17752
2050.48680 1.17871
2048.43836 1.18040
2046.38992 1.18255
2044.34148 1.18471
2042.29304 1.18713
2040.24460 1.18944
2038.19617 1.19039
2036.14773 1.19066
2034.09929 1.19148
2032.05085 1.19238
2030.00241 1.19281
2027.95397 1.19335
2025.90554 1.19429
2023.85710 1.19477
2021.80866 1.19447
2019.76022 1.19452
2017.71178 1.19569
2015.66334 1.19757
2013.61491 1.19974
2011.56647 1.20220
2009.51803 1.20469
2007.46959 1.20685
2005.42115 1.20862
2003.37271 1.21007
2001.32428 1.21092
1999.27584 1.21117
1997.22740 1.21151
1995.17896 1.21261
1993.13052 1.21432
1991.08208 1.21558
1989.03365 1.21561
1986.98521 1.21509
1984.93677 1.21478
1982.88833 1.21492
1980.83989 1.21582
1978.79145 1.21707
1976.74302 1.21804
1974.69458 1.21874
1972.64614 1.21937
1970.59770 1.21997
1968.54926 1.22022
1966.50082 1.21965
1964.45239 1.21872
1962.40395 1.21792
1960.35551 1.21725
1958.30707 1.21740
1956.25863 1.21897
1954.21019 1.22117
1952.16176 1.22308
1950.11332 1.22469
1948.06488 1.22591
1946.01644 1.22627
1943.96800 1.22554
1941.91956 1.22422
1939.87112 1.22314
1937.82269 1.22235
1935.77425 1.22156
1933.72581 1.22057
1931.67737 1.21924
1929.62893 1.21796
1927.58049 1.21717
1925.53206 1.21672
1923.48362 1.21639
1921.43518 1.21604
1919.38674 1.21603
1917.33830 1.21666
1915.28986 1.21727
1913.24143 1.21793
1911.19299 1.21905
1909.14455 1.21985
1907.09611 1.22002
1905.04767 1.22084
1902.99923 1.22258
1900.95080 1.22401
1898.90236 1.22480
1896.85392 1.22551
1894.80548 1.22572
1892.75704 1.22526
1890.70860 1.22537
1888.66017 1.22620
1886.61173 1.22664
1884.56329 1.22660
1882.51485 1.22700
1880.46641 1.22859
1878.41797 1.23090
1876.36954 1.23255
1874.32110 1.23320
1872.27266 1.23369
1870.22422 1.23457
1868.17578 1.23560
1866.12734 1.23588
1864.07891 1.23552
1862.03047 1.23507
1859.98203 1.23440
1857.93359 1.23359
1855.88515 1.23316
1853.83671 1.23268
1851.78828 1.23148
1849.73984 1.23014
1847.69140 1.22951
1845.64296 1.22990
1843.59452 1.23118
1841.54608 1.23193
1839.49765 1.23180
1837.44921 1.23153
1835.40077 1.23145
1833.35233 1.23186
1831.30389 1.23326
1829.25545 1.23508
1827.20702 1.23581
1825.15858 1.23604
1823.11014 1.23616
1821.06170 1.23626
1819.01326 1.23676
1816.96482 1.23729
1814.91639 1.23762
1812.86795 1.23779
1810.81951 1.23724
1808.77107 1.23590
1806.72263 1.23475
1804.67419 1.23395
1802.62575 1.23327
1800.57732 1.23296
1798.52888 1.23353
1796.48044 1.23498
1794.43200 1.23632
1792.38356 1.23674
1790.33512 1.23604
1788.28669 1.23510
1786.23825 1.23463
1784.18981 1.23427
1782.14137 1.23391
1780.09293 1.23392
1778.04449 1.23362
1775.99606 1.23295
1773.94762 1.23253
1771.89918 1.23222
1769.85074 1.23189
1767.80230 1.23175
1765.75386 1.23158
1763.70543 1.23120
1761.65699 1.23035
1759.60855 1.22919
1757.56011 1.22871
1755.51167 1.22896
1753.46323 1.22929
1751.41480 1.23046
1749.36636 1.23291
1747.31792 1.23476
1745.26948 1.23541
1743.22104 1.23503
1741.17260 1.23425
1739.12417 1.23373
1737.07573 1.23322
1735.02729 1.23385
1732.97885 1.23670
1730.93041 1.23804
1728.88197 1.23780
1726.83354 1.23734
1724.78510 1.23737
1722.73666 1.23822
1720.68822 1.23942
1718.63978 1.24108
1716.59134 1.24279
1714.54291 1.24203
1712.49447 1.24035
1710.44603 1.23959
1708.39759 1.23999
1706.34915 1.24151
1704.30071 1.24266
1702.25228 1.24230
1700.20384 1.24254
1698.15540 1.24494
1696.10696 1.24844
1694.05852 1.25178
1692.01008 1.25375
1689.96165 1.25553
1687.91321 1.25709
1685.86477 1.25841
1683.81633 1.26218
1681.76789 1.26558
1679.71945 1.26662
1677.67102 1.26721
1675.62258 1.26841
1673.57414 1.26980
1671.52570 1.27021
1669.47726 1.27023
1667.42882 1.27033
1665.38038 1.27068
1663.33195 1.27186
1661.28351 1.27307
1659.23507 1.27356
1657.18663 1.27402
1655.13819 1.27424
1653.08975 1.27596
1651.04132 1.27869
1648.99288 1.27982
1646.94444 1.28159
1644.89600 1.28253
1642.84756 1.28212
1640.79912 1.28200
1638.75069 1.28198
1636.70225 1.28219
1634.65381 1.28338
1632.60537 1.28411
1630.55693 1.28459
1628.50849 1.28575
1626.46006 1.28749
1624.41162 1.28961
1622.36318 1.29143
1620.31474 1.29121
1618.26630 1.28955
1616.21786 1.28668
1614.16943 1.28384
1612.12099 1.28221
1610.07255 1.28131
1608.02411 1.28010
1605.97567 1.27831
1603.92723 1.27698
1601.87880 1.27602
1599.83036 1.27419
1597.78192 1.27125
1595.73348 1.26771
1593.68504 1.26415
1591.63660 1.26126
1589.58817 1.25946
1587.53973 1.25844
1585.49129 1.25741
1583.44285 1.25617
1581.39441 1.25477
1579.34597 1.25292
1577.29754 1.25027
1575.24910 1.24761
1573.20066 1.24605
1571.15222 1.24487
1569.10378 1.24383
1567.05534 1.24325
1565.00691 1.24312
1562.95847 1.24263
1560.91003 1.24093
1558.86159 1.23868
1556.81315 1.23985
1554.76471 1.24170
1552.71628 1.24283
1550.66784 1.24278
1548.61940 1.24204
1546.57096 1.24183
1544.52252 1.24250
1542.47408 1.24320
1540.42565 1.24436
1538.37721 1.24534
1536.32877 1.24466
1534.28033 1.24385
1532.23189 1.24340
1530.18345 1.24326
1528.13501 1.24386
1526.08658 1.24502
1524.03814 1.24548
1521.98970 1.24512
1519.94126 1.24443
1517.89282 1.24380
1515.84438 1.24355
1513.79595 1.24349
1511.74751 1.24360
1509.69907 1.24383
1507.65063 1.24377
1505.60219 1.24250
1503.55375 1.24080
1501.50532 1.23985
1499.45688 1.24059
1497.40844 1.24308
1495.36000 1.24511
1493.31156 1.24596
1491.26312 1.24674
1489.21469 1.24738
1487.16625 1.24710
1485.11781 1.24635
1483.06937 1.24567
1481.02093 1.24542
1478.97249 1.24565
1476.92406 1.24638
1474.87562 1.24796
1472.82718 1.25053
1470.77874 1.25250
1468.73030 1.25317
1466.68186 1.25386
1464.63343 1.25578
1462.58499 1.25843
1460.53655 1.26062
1458.48811 1.26369
1456.43967 1.27001
1454.39123 1.27394
1452.34280 1.27469
1450.29436 1.27451
1448.24592 1.27466
1446.19748 1.27544
1444.14904 1.27614
1442.10060 1.27684
1440.05217 1.27764
1438.00373 1.27794
1435.95529 1.27752
1433.90685 1.27701
1431.85841 1.27657
1429.80997 1.27599
1427.76154 1.27470
1425.71310 1.27256
1423.66466 1.27047
1421.61622 1.26922
1419.56778 1.26809
1417.51934 1.26543
1415.47091 1.26190
1413.42247 1.25895
1411.37403 1.25640
1409.32559 1.25320
1407.27715 1.24953
1405.22871 1.24646
1403.18028 1.24452
1401.13184 1.24320
1399.08340 1.24198
1397.03496 1.24121
1394.98652 1.24118
1392.93808 1.24106
1390.88965 1.24096
1388.84121 1.24177
1386.79277 1.24314
1384.74433 1.24427
1382.69589 1.24595
1380.64745 1.24813
1378.59901 1.24921
1376.55058 1.24874
1374.50214 1.24759
1372.45370 1.24671
1370.40526 1.24643
1368.35682 1.24663
1366.30838 1.24669
1364.25995 1.24581
1362.21151 1.24378
1360.16307 1.24140
1358.11463 1.23981
1356.06619 1.23928
1354.01775 1.23950
1351.96932 1.23997
1349.92088 1.23926
1347.87244 1.23666
1345.82400 1.23397
1343.77556 1.23238
1341.72712 1.23156
1339.67869 1.23080
1337.63025 1.22931
1335.58181 1.22715
1333.53337 1.22446
1331.48493 1.22218
1329.43649 1.22121
1327.38806 1.22077
1325.33962 1.22074
1323.29118 1.22160
1321.24274 1.22243
1319.19430 1.22295
1317.14586 1.22342
1315.09743 1.22312
1313.04899 1.22249
1311.00055 1.22244
1308.95211 1.22267
1306.90367 1.22300
1304.85523 1.22422
1302.80680 1.22649
1300.75836 1.22859
1298.70992 1.22961
1296.66148 1.22973
1294.61304 1.22977
1292.56460 1.23045
1290.51617 1.23165
1288.46773 1.23264
1286.41929 1.23240
1284.37085 1.23087
1282.32241 1.22969
1280.27397 1.23002
1278.22554 1.23174
1276.17710 1.23416
1274.12866 1.23634
1272.08022 1.23809
1270.03178 1.23999
1267.98334 1.24238
1265.93491 1.24477
1263.88647 1.24671
1261.83803 1.24805
1259.78959 1.24836
1257.74115 1.24809
1255.69271 1.24845
1253.64428 1.24981
1251.59584 1.25159
1249.54740 1.25331
1247.49896 1.25529
1245.45052 1.25793
1243.40208 1.26042
1241.35364 1.26171
1239.30521 1.26217
1237.25677 1.26290
1235.20833 1.26458
1233.15989 1.26733
1231.11145 1.27070
1229.06301 1.27293
1227.01458 1.27252
1224.96614 1.27083
1222.91770 1.26973
1220.86926 1.26888
1218.82082 1.26811
1216.77238 1.26795
1214.72395 1.26783
1212.67551 1.26738
1210.62707 1.26731
1208.57863 1.26801
1206.53019 1.26960
1204.48175 1.27178
1202.43332 1.27375
1200.38488 1.27566
1198.33644 1.27787
1196.28800 1.27996
1194.23956 1.28166
1192.19112 1.28326
1190.14269 1.28520
1188.09425 1.28743
1186.04581 1.29011
1183.99737 1.29350
1181.94893 1.29690
1179.90049 1.30018
1177.85206 1.30411
1175.80362 1.30862
1173.75518 1.31325
1171.70674 1.31768
1169.65830 1.32184
1167.60986 1.32602
1165.56143 1.33014
1163.51299 1.33394
1161.46455 1.33766
1159.41611 1.34186
1157.36767 1.34701
1155.31923 1.35353
1153.27080 1.36126
1151.22236 1.36925
1149.17392 1.37706
1147.12548 1.38527
1145.07704 1.39399
1143.02860 1.40207
1140.98017 1.40844
1138.93173 1.41329
1136.88329 1.41722
1134.83485 1.42005
1132.78641 1.42200
1130.73797 1.42411
1128.68954 1.42686
1126.64110 1.43013
1124.59266 1.43391
1122.54422 1.43786
1120.49578 1.44170
1118.44734 1.44561
1116.39891 1.45016
1114.35047 1.45550
1112.30203 1.46002
1110.25359 1.46170
1108.20515 1.46029
1106.15671 1.45715
1104.10827 1.45343
1102.05984 1.44968
1100.01140 1.44636
1097.96296 1.44369
1095.91452 1.44141
1093.86608 1.43904
1091.81764 1.43662
1089.76921 1.43459
1087.72077 1.43286
1085.67233 1.43135
1083.62389 1.43030
1081.57545 1.42975
1079.52701 1.42920
1077.47858 1.42827
1075.43014 1.42778
1073.38170 1.42815
1071.33326 1.42825
1069.28482 1.42759
1067.23638 1.42684
1065.18795 1.42599
1063.13951 1.42457
1061.09107 1.42283
1059.04263 1.42088
1056.99419 1.41877
1054.94575 1.41701
1052.89732 1.41601
1050.84888 1.41562
1048.80044 1.41508
1046.75200 1.41377
1044.70356 1.41220
1042.65512 1.41107
1040.60669 1.41056
1038.55825 1.41064
1036.50981 1.41134
1034.46137 1.41324
1032.41293 1.41679
1030.36449 1.42185
1028.31606 1.42848
1026.26762 1.43552
1024.21918 1.44053
1022.17074 1.44294
1020.12230 1.44409
1018.07386 1.44492
1016.02543 1.44528
1013.97699 1.44471
1011.92855 1.44344
1009.88011 1.44231
1007.83167 1.44262
1005.78323 1.44555
1003.73480 1.45073
1001.68636 1.45655
999.63792 1.46139
997.58948 1.46440
995.54104 1.46615
993.49260 1.46674
991.44417 1.46628
989.39573 1.46616
987.34729 1.46650
985.29885 1.46647
983.25041 1.46626
981.20197 1.46644
979.15354 1.46698
977.10510 1.46746
975.05666 1.46797
973.00822 1.46917
970.95978 1.47022
968.91134 1.46976
966.86290 1.46834
964.81447 1.46681
962.76603 1.46540
960.71759 1.46403
958.66915 1.46196
956.62071 1.45886
954.57227 1.45544
952.52384 1.45218
950.47540 1.44961
948.42696 1.44824
946.37852 1.44761
944.33008 1.44741
942.28164 1.44782
940.23321 1.44844
938.18477 1.44864
936.13633 1.44890
934.08789 1.45005
932.03945 1.45130
929.99101 1.45179
927.94258 1.45152
925.89414 1.45050
923.84570 1.44918
921.79726 1.44832
919.74882 1.44807
917.70038 1.44806
915.65195 1.44804
913.60351 1.44756
911.55507 1.44597
909.50663 1.44376
907.45819 1.44139
905.40975 1.43832
903.36132 1.43429
901.31288 1.42944
899.26444 1.42369
897.21600 1.41794
895.16756 1.41373
893.11912 1.41113
891.07069 1.40892
889.02225 1.40621
886.97381 1.40355
884.92537 1.40131
882.87693 1.39940
880.82849 1.39802
878.78006 1.39657
876.73162 1.39471
874.68318 1.39263
872.63474 1.39045
870.58630 1.38807
868.53786 1.38561
866.48943 1.38398
864.44099 1.38325
862.39255 1.38270
860.34411 1.38185
858.29567 1.38082
856.24723 1.38004
854.19880 1.37970
852.15036 1.37998
850.10192 1.38121
848.05348 1.38318
846.00504 1.38538
843.95660 1.38745
841.90817 1.38932
839.85973 1.39148
837.81129 1.39449
835.76285 1.39831
833.71441 1.40218
831.66597 1.40517
829.61753 1.40692
827.56910 1.40788
825.52066 1.40852
823.47222 1.40796
821.42378 1.40487
819.37534 1.39981
817.32690 1.39422
815.27847 1.38917
813.23003 1.38480
811.18159 1.38079
809.13315 1.37793
807.08471 1.37752
805.03627 1.38078
802.98784 1.38682
800.93940 1.39168
798.89096 1.39341
796.84252 1.39326
794.79408 1.39201
792.74564 1.38972
790.69721 1.38738
788.64877 1.38602
786.60033 1.38524
784.55189 1.38352
782.50345 1.37967
780.45501 1.37442
778.40658 1.37071
776.35814 1.37065
774.30970 1.37335
772.26126 1.37613
770.21282 1.37658
768.16438 1.37627
766.11595 1.37934
764.06751 1.38562
762.01907 1.39088
759.97063 1.39382
757.92219 1.39599
755.87375 1.39709
753.82532 1.39652
751.77688 1.39552
749.72844 1.39531
747.68000 1.39595
745.63156 1.39764
743.58312 1.39976
741.53469 1.40170
739.48625 1.40426
737.43781 1.40691
735.38937 1.40956
733.34093 1.41256
731.29249 1.41452
729.24406 1.41530
727.19562 1.41634
725.14718 1.41906
723.09874 1.42407
721.05030 1.42884
719.00186 1.42964
716.95343 1.42821
714.90499 1.42784
712.85655 1.42783
710.80811 1.42759
708.75967 1.42768
706.71123 1.42954
704.66280 1.43364
702.61436 1.43625
700.56592 1.43608
698.51748 1.43719
696.46904 1.43969
694.42060 1.43939
692.37216 1.43786
690.32373 1.44013
688.27529 1.44256
686.22685 1.43915
684.17841 1.43381
682.12997 1.43127
680.08153 1.43096
678.03310 1.43153
675.98466 1.43085
673.93622 1.42679
671.88778 1.42171
669.83934 1.42163
667.79090 1.42955
665.74247 1.43226
663.69403 1.42815
661.64559 1.42616
659.59715 1.42577
657.54871 1.42123
655.50027 1.41713
653.45184 1.41806
651.40340 1.42284
649.35496 1.42858
647.30652 1.42977
645.25808 1.43006
643.20964 1.43566
641.16121 1.44107
639.11277 1.43878
637.06433 1.43041
635.01589 1.42378
632.96745 1.42283
630.91901 1.42556
628.87058 1.43128
626.82214 1.43888
624.77370 1.44193
622.72526 1.44226
620.67682 1.44638
618.62838 1.44879
616.57995 1.44332
614.53151 1.43720
612.48307 1.43791
610.43463 1.43704
608.38619 1.43348
606.33775 1.43974
604.28932 1.45117
602.24088 1.45414
600.19244 1.45138
598.14400 1.45223
