3996.50324 1.21497
3994.45480 1.21526
3992.40636 1.21478
3990.35792 1.21383
3988.30948 1.21279
3986.26104 1.21193
3984.21261 1.21153
3982.16417 1.21126
3980.11573 1.21117
3978.06729 1.21146
3976.01885 1.21169
3973.97041 1.21144
3971.92198 1.21097
3969.87354 1.21043
3967.82510 1.20971
3965.77666 1.20927
3963.72822 1.20913
3961.67978 1.20900
3959.63135 1.20944
3957.58291 1.21028
3955.53447 1.21059
3953.48603 1.21034
3951.43759 1.21054
3949.38915 1.21175
3947.34072 1.21259
3945.29228 1.21246
3943.24384 1.21193
3941.19540 1.21104
3939.14696 1.21067
3937.09852 1.21118
3935.05009 1.21236
3933.00165 1.21417
3930.95321 1.21515
3928.90477 1.21439
3926.85633 1.21397
3924.80789 1.21430
3922.75946 1.21349
3920.71102 1.21275
3918.66258 1.21331
3916.61414 1.21276
3914.56570 1.21088
3912.51726 1.20978
3910.46883 1.20959
3908.42039 1.21021
3906.37195 1.21202
3904.32351 1.21408
3902.27507 1.21454
3900.22663 1.21411
3898.17820 1.21359
3896.12976 1.21316
3894.08132 1.21346
3892.03288 1.21444
3889.98444 1.21455
3887.93600 1.21420
3885.88756 1.21497
3883.83913 1.21583
3881.79069 1.21564
3879.74225 1.21463
3877.69381 1.21317
3875.64537 1.21304
3873.59693 1.21452
3871.54850 1.21606
3869.50006 1.21679
3867.45162 1.21630
3865.40318 1.21587
3863.35474 1.21556
3861.30630 1.21441
3859.25787 1.21400
3857.20943 1.21497
3855.16099 1.21635
3853.11255 1.21778
3851.06411 1.21680
3849.01567 1.21450
3846.96724 1.21360
3844.91880 1.21488
3842.87036 1.21690
3840.82192 1.21845
3838.77348 1.22023
3836.72504 1.22014
3834.67661 1.21835
3832.62817 1.21677
3830.57973 1.21551
3828.53129 1.21520
3826.48285 1.21591
3824.43441 1.21644
3822.38598 1.21696
3820.33754 1.21738
3818.28910 1.21660
3816.24066 1.21577
3814.19222 1.21449
3812.14378 1.21276
3810.09535 1.21170
3808.04691 1.21249
3805.99847 1.21446
3803.95003 1.21593
3801.90159 1.21718
3799.85315 1.21663
3797.80472 1.21504
3795.75628 1.21365
3793.70784 1.21198
3791.65940 1.21108
3789.61096 1.21183
3787.56252 1.21333
3785.51409 1.21477
3783.46565 1.21563
3781.41721 1.21631
3779.36877 1.21715
3777.32033 1.21712
3775.27189 1.21696
3773.22346 1.21819
3771.17502 1.22061
3769.12658 1.22254
3767.07814 1.22348
3765.02970 1.22412
3762.98126 1.22504
3760.93283 1.22745
3758.88439 1.23089
3756.83595 1.23221
3754.78751 1.23300
3752.73907 1.23548
3750.69063 1.23976
3748.64219 1.24351
3746.59376 1.24632
3744.54532 1.25047
3742.49688 1.25504
3740.44844 1.25865
3738.40000 1.26280
3736.35156 1.26982
3734.30313 1.27721
3732.25469 1.28115
3730.20625 1.28515
3728.15781 1.29205
3726.10937 1.30240
3724.06093 1.31458
3722.01250 1.32841
3719.96406 1.34438
3717.91562 1.36238
3715.86718 1.38245
3713.81874 1.40749
3711.77030 1.44833
3709.72187 1.50188
3707.67343 1.54996
3705.62499 1.59703
3703.57655 1.65157
3701.52811 1.71527
3699.47967 1.76252
3697.43124 1.77547
3695.38280 1.76338
3693.33436 1.73990
3691.28592 1.70901
3689.23748 1.66504
3687.18904 1.62587
3685.14061 1.60406
3683.09217 1.59092
3681.04373 1.58570
3678.99529 1.58887
3676.94685 1.60215
3674.89841 1.62865
3672.84998 1.64923
3670.80154 1.66401
3668.75310 1.67362
3666.70466 1.67262
3664.65622 1.67182
3662.60778 1.67797
3660.55935 1.69053
3658.51091 1.70670
3656.46247 1.72503
3654.41403 1.73798
3652.36559 1.74336
3650.31715 1.74712
3648.26872 1.74160
3646.22028 1.72794
3644.17184 1.72090
3642.12340 1.71913
3640.07496 1.72006
3638.02652 1.72348
3635.97809 1.72962
3633.92965 1.73803
3631.88121 1.74708
3629.83277 1.75855
3627.78433 1.77616
3625.73589 1.79417
3623.68746 1.81726
3621.63902 1.84663
3619.59058 1.85883
3617.54214 1.82859
3615.49370 1.79197
3613.44526 1.76823
3611.39682 1.75512
3609.34839 1.74716
3607.29995 1.73822
3605.25151 1.73047
3603.20307 1.72485
3601.15463 1.71788
3599.10619 1.70911
3597.05776 1.70210
3595.00932 1.69613
3592.96088 1.68844
3590.91244 1.68222
3588.86400 1.67836
3586.81556 1.67353
3584.76713 1.66781
3582.71869 1.66346
3580.67025 1.65994
3578.62181 1.65654
3576.57337 1.65366
3574.52493 1.65082
3572.47650 1.64846
3570.42806 1.64946
3568.37962 1.65386
3566.33118 1.65461
3564.28274 1.65045
3562.23430 1.64716
3560.18587 1.64436
3558.13743 1.64234
3556.08899 1.64308
3554.04055 1.64540
3551.99211 1.64649
3549.94367 1.64626
3547.89524 1.64680
3545.84680 1.64925
3543.79836 1.65086
3541.74992 1.65006
3539.70148 1.64928
3537.65304 1.64948
3535.60461 1.65004
3533.55617 1.65125
3531.50773 1.65373
3529.45929 1.65728
3527.41085 1.66115
3525.36241 1.66468
3523.31398 1.66702
3521.26554 1.66761
3519.21710 1.66812
3517.16866 1.66982
3515.12022 1.67227
3513.07178 1.67450
3511.02335 1.67623
3508.97491 1.67886
3506.92647 1.68284
3504.87803 1.68678
3502.82959 1.68904
3500.78115 1.68907
3498.73272 1.69032
3496.68428 1.69359
3494.63584 1.69549
3492.58740 1.69728
3490.53896 1.70118
3488.49052 1.70484
3486.44209 1.70699
3484.39365 1.70947
3482.34521 1.71376
3480.29677 1.71809
3478.24833 1.72018
3476.19989 1.72198
3474.15146 1.72595
3472.10302 1.73034
3470.05458 1.73377
3468.00614 1.73730
3465.95770 1.74079
3463.90926 1.74416
3461.86082 1.74760
3459.81239 1.75135
3457.76395 1.75546
3455.71551 1.75969
3453.66707 1.76377
3451.61863 1.76701
3449.57019 1.77049
3447.52176 1.77515
3445.47332 1.77967
3443.42488 1.78332
3441.37644 1.78685
3439.32800 1.79026
3437.27956 1.79350
3435.23113 1.79673
3433.18269 1.79890
3431.13425 1.80026
3429.08581 1.80265
3427.03737 1.80524
3424.98893 1.80637
3422.94050 1.80851
3420.89206 1.81225
3418.84362 1.81426
3416.79518 1.81521
3414.74674 1.81644
3412.69830 1.81688
3410.64987 1.81752
3408.60143 1.81891
3406.55299 1.81994
3404.50455 1.82089
3402.45611 1.82301
3400.40767 1.82678
3398.35924 1.83005
3396.31080 1.83135
3394.26236 1.83140
3392.21392 1.83121
3390.16548 1.83289
3388.11704 1.83651
3386.06861 1.83884
3384.02017 1.83799
3381.97173 1.83598
3379.92329 1.83611
3377.87485 1.83798
3375.82641 1.83887
3373.77798 1.83863
3371.72954 1.83901
3369.68110 1.84096
3367.63266 1.84201
3365.58422 1.83976
3363.53578 1.83683
3361.48735 1.83500
3359.43891 1.83278
3357.39047 1.82949
3355.34203 1.82652
3353.29359 1.82617
3351.24515 1.82776
3349.19672 1.82769
3347.14828 1.82536
3345.09984 1.82280
3343.05140 1.81959
3341.00296 1.81566
3338.95452 1.81323
3336.90609 1.81266
3334.85765 1.81175
3332.80921 1.80960
3330.76077 1.80792
3328.71233 1.80729
3326.66389 1.80717
3324.61545 1.80755
3322.56702 1.80735
3320.51858 1.80599
3318.47014 1.80485
3316.42170 1.80490
3314.37326 1.80592
3312.32482 1.80666
3310.27639 1.80570
3308.22795 1.80328
3306.17951 1.80058
3304.13107 1.79854
3302.08263 1.79658
3300.03419 1.79427
3297.98576 1.79309
3295.93732 1.79308
3293.88888 1.79337
3291.84044 1.79365
3289.79200 1.79329
3287.74356 1.79201
3285.69513 1.79040
3283.64669 1.78899
3281.59825 1.78676
3279.54981 1.78347
3277.50137 1.78126
3275.45293 1.78079
3273.40450 1.78000
3271.35606 1.77865
3269.30762 1.77719
3267.25918 1.77493
3265.21074 1.77212
3263.16230 1.76902
3261.11387 1.76605
3259.06543 1.76328
3257.01699 1.76075
3254.96855 1.75891
3252.92011 1.75728
3250.87167 1.75576
3248.82324 1.75428
3246.77480 1.75254
3244.72636 1.74980
3242.67792 1.74558
3240.62948 1.74160
3238.58104 1.73878
3236.53261 1.73670
3234.48417 1.73531
3232.43573 1.73370
3230.38729 1.73129
3228.33885 1.72905
3226.29041 1.72713
3224.24198 1.72505
3222.19354 1.72330
3220.14510 1.72184
3218.09666 1.71996
3216.04822 1.71807
3213.99978 1.71683
3211.95135 1.71584
3209.90291 1.71428
3207.85447 1.71159
3205.80603 1.70879
3203.75759 1.70683
3201.70915 1.70462
3199.66072 1.70194
3197.61228 1.70028
3195.56384 1.69968
3193.51540 1.69866
3191.46696 1.69649
3189.41852 1.69365
3187.37008 1.69070
3185.32165 1.68822
3183.27321 1.68643
3181.22477 1.68465
3179.17633 1.68231
3177.12789 1.67894
3175.07945 1.67545
3173.03102 1.67358
3170.98258 1.67283
3168.93414 1.67147
3166.88570 1.66937
3164.83726 1.66700
3162.78882 1.66416
3160.74039 1.66116
3158.69195 1.65812
3156.64351 1.65513
3154.59507 1.65354
3152.54663 1.65272
3150.49819 1.64972
3148.44976 1.64451
3146.40132 1.64035
3144.35288 1.63829
3142.30444 1.63698
3140.25600 1.63581
3138.20756 1.63447
3136.15913 1.63273
3134.11069 1.63057
3132.06225 1.62745
3130.01381 1.62364
3127.96537 1.62070
3125.91693 1.61948
3123.86850 1.61938
3121.82006 1.61854
3119.77162 1.61612
3117.72318 1.61364
3115.67474 1.61215
3113.62630 1.61131
3111.57787 1.61040
3109.52943 1.60936
3107.48099 1.60881
3105.43255 1.60831
3103.38411 1.60700
3101.33567 1.60540
3099.28724 1.60440
3097.23880 1.60415
3095.19036 1.60450
3093.14192 1.60554
3091.09348 1.60705
3089.04504 1.60779
3086.99661 1.60724
3084.94817 1.60667
3082.89973 1.60718
3080.85129 1.60772
3078.80285 1.60674
3076.75441 1.60569
3074.70598 1.60598
3072.65754 1.60661
3070.60910 1.60726
3068.56066 1.60839
3066.51222 1.60957
3064.46378 1.61013
3062.41535 1.61021
3060.36691 1.61081
3058.31847 1.61235
3056.27003 1.61412
3054.22159 1.61552
3052.17315 1.61698
3050.12471 1.61972
3048.07628 1.62378
3046.02784 1.62795
3043.97940 1.63211
3041.93096 1.63765
3039.88252 1.64524
3037.83408 1.65347
3035.78565 1.66111
3033.73721 1.66922
3031.68877 1.67916
3029.64033 1.68981
3027.59189 1.69997
3025.54345 1.71069
3023.49502 1.72259
3021.44658 1.73503
3019.39814 1.74750
3017.34970 1.76038
3015.30126 1.77507
3013.25282 1.79259
3011.20439 1.81131
3009.15595 1.82851
3007.10751 1.84391
3005.05907 1.85897
3003.01063 1.87319
3000.96219 1.88479
2998.91376 1.89513
2996.86532 1.90478
2994.81688 1.91181
2992.76844 1.91719
2990.72000 1.92225
2988.67156 1.92677
2986.62313 1.93091
2984.57469 1.93510
2982.52625 1.94052
2980.47781 1.94909
2978.42937 1.96173
2976.38093 1.97838
2974.33250 1.99973
2972.28406 2.02411
2970.23562 2.04895
2968.18718 2.07340
2966.13874 2.09490
2964.09030 2.11041
2962.04187 2.11883
2959.99343 2.12050
2957.94499 2.11722
2955.89655 2.11208
2953.84811 2.10518
2951.79967 2.09619
2949.75124 2.08776
2947.70280 2.08039
2945.65436 2.07373
2943.60592 2.06977
2941.55748 2.06937
2939.50904 2.07004
2937.46061 2.07129
2935.41217 2.07375
2933.36373 2.07431
2931.31529 2.07075
2929.26685 2.06378
2927.21841 2.05574
2925.16998 2.04845
2923.12154 2.04100
2921.07310 2.03304
2919.02466 2.02507
2916.97622 2.01590
2914.92778 2.00313
2912.87934 1.98695
2910.83091 1.97117
2908.78247 1.95736
2906.73403 1.94490
2904.68559 1.93406
2902.63715 1.92404
2900.58871 1.91457
2898.54028 1.90592
2896.49184 1.89732
2894.44340 1.88948
2892.39496 1.88227
2890.34652 1.87339
2888.29808 1.86356
2886.24965 1.85761
2884.20121 1.86011
2882.15277 1.87124
2880.10433 1.88796
2878.05589 1.90597
2876.00745 1.91800
2873.95902 1.91812
2871.91058 1.90764
2869.86214 1.89169
2867.81370 1.87356
2865.76526 1.85536
2863.71682 1.83902
2861.66839 1.82405
2859.61995 1.81014
2857.57151 1.79947
2855.52307 1.79438
2853.47463 1.79589
2851.42619 1.80050
2849.37776 1.79682
2847.32932 1.77544
2845.28088 1.74233
2843.23244 1.70858
2841.18400 1.67816
2839.13556 1.65143
2837.08713 1.62800
2835.03869 1.60702
2832.99025 1.58764
2830.94181 1.56994
2828.89337 1.55462
2826.84493 1.54154
2824.79650 1.52963
2822.74806 1.51818
2820.69962 1.50730
2818.65118 1.49696
2816.60274 1.48729
2814.55430 1.47866
2812.50587 1.47086
2810.45743 1.46365
2808.40899 1.45718
2806.36055 1.45144
2804.31211 1.44588
2802.26367 1.44017
2800.21524 1.43475
2798.16680 1.42967
2796.11836 1.42448
2794.06992 1.41987
2792.02148 1.41647
2789.97304 1.41381
2787.92461 1.41158
2785.87617 1.40961
2783.82773 1.40756
2781.77929 1.40553
2779.73085 1.40360
2777.68241 1.40161
2775.63397 1.39991
2773.58554 1.39859
2771.53710 1.39735
2769.48866 1.39612
2767.44022 1.39463
2765.39178 1.39241
2763.34334 1.38998
2761.29491 1.38823
2759.24647 1.38679
2757.19803 1.38506
2755.14959 1.38328
2753.10115 1.38210
2751.05271 1.38184
2749.00428 1.38222
2746.95584 1.38291
2744.90740 1.38360
2742.85896 1.38399
2740.81052 1.38374
2738.76208 1.38277
2736.71365 1.38120
2734.66521 1.37904
2732.61677 1.37638
2730.56833 1.37322
2728.51989 1.36950
2726.47145 1.36561
2724.42302 1.36225
2722.37458 1.35952
2720.32614 1.35721
2718.27770 1.35502
2716.22926 1.35227
2714.18082 1.34949
2712.13239 1.34746
2710.08395 1.34551
2708.03551 1.34337
2705.98707 1.34150
2703.93863 1.33984
2701.89019 1.33823
2699.84176 1.33695
2697.79332 1.33609
2695.74488 1.33520
2693.69644 1.33407
2691.64800 1.33305
2689.59956 1.33220
2687.55113 1.33111
2685.50269 1.32977
2683.45425 1.32869
2681.40581 1.32791
2679.35737 1.32726
2677.30893 1.32706
2675.26050 1.32730
2673.21206 1.32727
2671.16362 1.32664
2669.11518 1.32595
2667.06674 1.32595
2665.01830 1.32653
2662.96987 1.32662
2660.92143 1.32581
2658.87299 1.32459
2656.82455 1.32310
2654.77611 1.32122
2652.72767 1.31905
2650.67924 1.31698
2648.63080 1.31533
2646.58236 1.31406
2644.53392 1.31337
2642.48548 1.31304
2640.43704 1.31253
2638.38860 1.31183
2636.34017 1.31122
2634.29173 1.31083
2632.24329 1.31038
2630.19485 1.30989
2628.14641 1.30952
2626.09797 1.30886
2624.04954 1.30769
2622.00110 1.30655
2619.95266 1.30613
2617.90422 1.30629
2615.85578 1.30682
2613.80734 1.30750
2611.75891 1.30778
2609.71047 1.30776
2607.66203 1.30814
2605.61359 1.30909
2603.56515 1.31008
2601.51671 1.31075
2599.46828 1.31109
2597.41984 1.31070
2595.37140 1.30930
2593.32296 1.30747
2591.27452 1.30598
2589.22608 1.30489
2587.17765 1.30370
2585.12921 1.30221
2583.08077 1.30078
2581.03233 1.29970
2578.98389 1.29864
2576.93545 1.29712
2574.88702 1.29533
2572.83858 1.29390
2570.79014 1.29309
2568.74170 1.29287
2566.69326 1.29301
2564.64482 1.29294
2562.59639 1.29235
2560.54795 1.29154
2558.49951 1.29066
2556.45107 1.28964
2554.40263 1.28875
2552.35419 1.28805
2550.30576 1.28714
2548.25732 1.28610
2546.20888 1.28504
2544.16044 1.28395
2542.11200 1.28334
2540.06356 1.28314
2538.01513 1.28252
2535.96669 1.28164
2533.91825 1.28096
2531.86981 1.28038
2529.82137 1.27982
2527.77293 1.27912
2525.72450 1.27828
2523.67606 1.27752
2521.62762 1.27701
2519.57918 1.27688
2517.53074 1.27704
2515.48230 1.27711
2513.43387 1.27693
2511.38543 1.27614
2509.33699 1.27478
2507.28855 1.27331
2505.24011 1.27186
2503.19167 1.27044
2501.14324 1.26905
2499.09480 1.26773
2497.04636 1.26660
2494.99792 1.26569
2492.94948 1.26482
2490.90104 1.26370
2488.85260 1.26257
2486.80417 1.26183
2484.75573 1.26129
2482.70729 1.26059
2480.65885 1.25980
2478.61041 1.25933
2476.56197 1.25919
2474.51354 1.25902
2472.46510 1.25909
2470.41666 1.25975
2468.36822 1.26050
2466.31978 1.26055
2464.27134 1.25989
2462.22291 1.25927
2460.17447 1.25896
2458.12603 1.25882
2456.07759 1.25897
2454.02915 1.25918
2451.98071 1.25946
2449.93228 1.25978
2447.88384 1.25984
2445.83540 1.25977
2443.78696 1.25971
2441.73852 1.25942
2439.69008 1.25902
2437.64165 1.25901
2435.59321 1.25947
2433.54477 1.26040
2431.49633 1.26172
2429.44789 1.26303
2427.39945 1.26411
2425.35102 1.26497
2423.30258 1.26542
2421.25414 1.26519
2419.20570 1.26443
2417.15726 1.26380
2415.10882 1.26370
2413.06039 1.26388
2411.01195 1.26413
2408.96351 1.26448
2406.91507 1.26487
2404.86663 1.26566
2402.81819 1.26689
2400.76976 1.26808
2398.72132 1.26894
2396.67288 1.26934
2394.62444 1.26916
2392.57600 1.26859
2390.52756 1.26799
2388.47913 1.26756
2386.43069 1.26753
2384.38225 1.26823
2382.33381 1.26983
2380.28537 1.27227
2378.23693 1.27523
2376.18850 1.27842
2374.14006 1.28168
2372.09162 1.28455
2370.04318 1.28713
2367.99474 1.28997
2365.94630 1.29250
2363.89787 1.29467
2361.84943 1.29717
2359.80099 1.30007
2357.75255 1.30289
2355.70411 1.30362
2353.65567 1.30172
2351.60723 1.29879
2349.55880 1.29792
2347.51036 1.30240
2345.46192 1.31352
2343.41348 1.32729
2341.36504 1.33999
2339.31660 1.35378
2337.26817 1.36916
2335.21973 1.38320
2333.17129 1.38887
2331.12285 1.38061
2329.07441 1.36381
2327.02597 1.34774
2324.97754 1.33472
2322.92910 1.32309
2320.88066 1.31190
2318.83222 1.30191
2316.78378 1.29431
2314.73534 1.28941
2312.68691 1.28615
2310.63847 1.28366
2308.59003 1.28191
2306.54159 1.28021
2304.49315 1.27792
2302.44471 1.27600
2300.39628 1.27490
2298.34784 1.27402
2296.29940 1.27315
2294.25096 1.27179
2292.20252 1.27008
2290.15408 1.26916
2288.10565 1.26885
2286.05721 1.26830
2284.00877 1.26770
2281.96033 1.26758
2279.91189 1.26805
2277.86345 1.26871
2275.81502 1.26940
2273.76658 1.27011
2271.71814 1.27043
2269.66970 1.27029
2267.62126 1.27035
2265.57282 1.27067
2263.52439 1.27038
2261.47595 1.26970
2259.42751 1.26978
2257.37907 1.27048
2255.33063 1.27095
2253.28219 1.27088
2251.23376 1.27052
2249.18532 1.27003
2247.13688 1.26950
2245.08844 1.26955
2243.04000 1.27000
2240.99156 1.26966
2238.94313 1.26862
2236.89469 1.26797
2234.84625 1.26772
2232.79781 1.26740
2230.74937 1.26722
2228.70093 1.26715
2226.65250 1.26690
2224.60406 1.26688
2222.55562 1.26746
2220.50718 1.26825
2218.45874 1.26850
2216.41030 1.26793
2214.36186 1.26697
2212.31343 1.26635
2210.26499 1.26630
2208.21655 1.26639
2206.16811 1.26676
2204.11967 1.26763
2202.07123 1.26843
2200.02280 1.26921
2197.97436 1.27028
2195.92592 1.27101
2193.87748 1.27127
2191.82904 1.27162
2189.78060 1.27204
2187.73217 1.27242
2185.68373 1.27326
2183.63529 1.27472
2181.58685 1.27632
2179.53841 1.27745
2177.48997 1.27793
2175.44154 1.27860
2173.39310 1.28027
2171.34466 1.28256
2169.29622 1.28456
2167.24778 1.28557
2165.19934 1.28542
2163.15091 1.28461
2161.10247 1.28392
2159.05403 1.28397
2157.00559 1.28468
2154.95715 1.28530
2152.90871 1.28580
2150.86028 1.28686
2148.81184 1.28876
2146.76340 1.29099
2144.71496 1.29268
2142.66652 1.29345
2140.61808 1.29355
2138.56965 1.29386
2136.52121 1.29485
2134.47277 1.29599
2132.42433 1.29652
2130.37589 1.29663
2128.32745 1.29724
2126.27902 1.29837
2124.23058 1.29943
2122.18214 1.30026
2120.13370 1.30072
2118.08526 1.30086
2116.03682 1.30060
2113.98839 1.29991
2111.93995 1.29945
2109.89151 1.29983
2107.84307 1.30103
2105.79463 1.30255
2103.74619 1.30380
2101.69776 1.30472
2099.64932 1.30580
2097.60088 1.30676
2095.55244 1.30699
2093.50400 1.30702
2091.45556 1.30753
2089.40713 1.30853
2087.35869 1.30952
2085.31025 1.31007
2083.26181 1.31043
2081.21337 1.31104
2079.16493 1.31230
2077.11649 1.31406
2075.06806 1.31550
2073.01962 1.31664
2070.97118 1.31792
2068.92274 1.31937
2066.87430 1.32128
2064.82586 1.32352
2062.77743 1.32525
2060.72899 1.32639
2058.68055 1.32772
2056.63211 1.32986
2054.58367 1.33274
2052.53523 1.33565
2050.48680 1.33783
2048.43836 1.33897
2046.38992 1.33933
2044.34148 1.34028
2042.29304 1.34273
2040.24460 1.34572
2038.19617 1.34806
2036.14773 1.34984
2034.09929 1.35125
2032.05085 1.35193
2030.00241 1.35181
2027.95397 1.35145
2025.90554 1.35156
2023.85710 1.35278
2021.80866 1.35521
2019.76022 1.35758
2017.71178 1.35895
2015.66334 1.36000
2013.61491 1.36156
2011.56647 1.36395
2009.51803 1.36700
2007.46959 1.36968
2005.42115 1.37153
2003.37271 1.37315
2001.32428 1.37473
1999.27584 1.37576
1997.22740 1.37595
1995.17896 1.37602
1993.13052 1.37680
1991.08208 1.37804
1989.03365 1.37917
1986.98521 1.37977
1984.93677 1.37989
1982.88833 1.37961
1980.83989 1.37890
1978.79145 1.37859
1976.74302 1.37938
1974.69458 1.38025
1972.64614 1.38002
1970.59770 1.37919
1968.54926 1.37874
1966.50082 1.37853
1964.45239 1.37803
1962.40395 1.37741
1960.35551 1.37694
1958.30707 1.37677
1956.25863 1.37707
1954.21019 1.37759
1952.16176 1.37755
1950.11332 1.37696
1948.06488 1.37660
1946.01644 1.37668
1943.96800 1.37686
1941.91956 1.37669
1939.87112 1.37613
1937.82269 1.37541
1935.77425 1.37413
1933.72581 1.37224
1931.67737 1.37058
1929.62893 1.37006
1927.58049 1.37129
1925.53206 1.37398
1923.48362 1.37701
1921.43518 1.37905
1919.38674 1.38022
1917.33830 1.38165
1915.28986 1.38385
1913.24143 1.38704
1911.19299 1.39112
1909.14455 1.39561
1907.09611 1.39965
1905.04767 1.40275
1902.99923 1.40523
1900.95080 1.40789
1898.90236 1.41104
1896.85392 1.41461
1894.80548 1.41841
1892.75704 1.42170
1890.70860 1.42465
1888.66017 1.42692
1886.61173 1.42794
1884.56329 1.42850
1882.51485 1.42968
1880.46641 1.43174
1878.41797 1.43405
1876.36954 1.43639
1874.32110 1.43870
1872.27266 1.44117
1870.22422 1.44448
1868.17578 1.44686
1866.12734 1.44531
1864.07891 1.44203
1862.03047 1.43839
1859.98203 1.43424
1857.93359 1.43043
1855.88515 1.42783
1853.83671 1.42620
1851.78828 1.42509
1849.73984 1.42433
1847.69140 1.42390
1845.64296 1.42388
1843.59452 1.42288
1841.54608 1.42093
1839.49765 1.41999
1837.44921 1.42010
1835.40077 1.42050
1833.35233 1.42213
1831.30389 1.42643
1829.25545 1.43205
1827.20702 1.43608
1825.15858 1.44008
1823.11014 1.44424
1821.06170 1.44716
1819.01326 1.44980
1816.96482 1.45232
1814.91639 1.45485
1812.86795 1.45763
1810.81951 1.46003
1808.77107 1.46185
1806.72263 1.46416
1804.67419 1.46753
1802.62575 1.47204
1800.57732 1.47713
1798.52888 1.48091
1796.48044 1.48330
1794.43200 1.48598
1792.38356 1.49094
1790.33512 1.49515
1788.28669 1.49701
1786.23825 1.49948
1784.18981 1.50351
1782.14137 1.50874
1780.09293 1.51509
1778.04449 1.52136
1775.99606 1.52738
1773.94762 1.53615
1771.89918 1.54868
1769.85074 1.56012
1767.80230 1.57213
1765.75386 1.58679
1763.70543 1.60439
1761.65699 1.63077
1759.60855 1.66224
1757.56011 1.70008
1755.51167 1.74886
1753.46323 1.80133
1751.41480 1.87611
1749.36636 1.99651
1747.31792 2.12697
1745.26948 2.23349
1743.22104 2.31322
1741.17260 2.35286
1739.12417 2.35170
1737.07573 2.33154
1735.02729 2.29166
1732.97885 2.22441
1730.93041 2.17888
1728.88197 2.14600
1726.83354 2.11687
1724.78510 2.09412
1722.73666 2.07820
1720.68822 2.06977
1718.63978 2.06178
1716.59134 2.04308
1714.54291 2.01604
1712.49447 1.98979
1710.44603 1.96324
1708.39759 1.93776
1706.34915 1.91182
1704.30071 1.88908
1702.25228 1.87372
1700.20384 1.85974
1698.15540 1.84866
1696.10696 1.83835
1694.05852 1.82814
1692.01008 1.82273
1689.96165 1.81946
1687.91321 1.81688
1685.86477 1.81466
1683.81633 1.80812
1681.76789 1.79843
1679.71945 1.78925
1677.67102 1.78129
1675.62258 1.77477
1673.57414 1.76924
1671.52570 1.76630
1669.47726 1.76490
1667.42882 1.76282
1665.38038 1.76251
1663.33195 1.76508
1661.28351 1.76726
1659.23507 1.76889
1657.18663 1.77165
1655.13819 1.77402
1653.08975 1.77437
1651.04132 1.77431
1648.99288 1.77515
1646.94444 1.77466
1644.89600 1.77120
1642.84756 1.76929
1640.79912 1.76972
1638.75069 1.77149
1636.70225 1.77291
1634.65381 1.76865
1632.60537 1.76251
1630.55693 1.75825
1628.50849 1.75451
1626.46006 1.75034
1624.41162 1.74598
1622.36318 1.74045
1620.31474 1.73540
1618.26630 1.73256
1616.21786 1.72949
1614.16943 1.72483
1612.12099 1.72096
1610.07255 1.71828
1608.02411 1.71502
1605.97567 1.70996
1603.92723 1.70434
1601.87880 1.69874
1599.83036 1.69287
1597.78192 1.68756
1595.73348 1.68296
1593.68504 1.67911
1591.63660 1.67667
1589.58817 1.67488
1587.53973 1.67339
1585.49129 1.67350
1583.44285 1.67572
1581.39441 1.67899
1579.34597 1.68303
1577.29754 1.68762
1575.24910 1.68849
1573.20066 1.68578
1571.15222 1.68279
1569.10378 1.67690
1567.05534 1.67106
1565.00691 1.66870
1562.95847 1.66821
1560.91003 1.66927
1558.86159 1.67200
1556.81315 1.67169
1554.76471 1.67099
1552.71628 1.67227
1550.66784 1.67515
1548.61940 1.67811
1546.57096 1.68080
1544.52252 1.68504
1542.47408 1.68928
1540.42565 1.68487
1538.37721 1.67381
1536.32877 1.66764
1534.28033 1.66146
1532.23189 1.65283
1530.18345 1.64690
1528.13501 1.64387
1526.08658 1.64293
1524.03814 1.64400
1521.98970 1.64460
1519.94126 1.64235
1517.89282 1.64003
1515.84438 1.63693
1513.79595 1.63385
1511.74751 1.63431
1509.69907 1.63847
1507.65063 1.64581
1505.60219 1.65115
1503.55375 1.65594
1501.50532 1.66718
1499.45688 1.69002
1497.40844 1.73227
1495.36000 1.78685
1493.31156 1.83311
1491.26312 1.88286
1489.21469 1.94600
1487.16625 1.98128
1485.11781 1.98721
1483.06937 1.98774
1481.02093 1.98823
1478.97249 1.99055
1476.92406 1.99664
1474.87562 2.00559
1472.82718 2.01236
1470.77874 2.01531
1468.73030 2.01901
1466.68186 2.02391
1464.63343 2.02544
1462.58499 2.02354
1460.53655 2.02451
1458.48811 2.02938
1456.43967 2.03216
1454.39123 2.02983
1452.34280 2.02787
1450.29436 2.02574
1448.24592 2.01942
1446.19748 2.00508
1444.14904 1.98730
1442.10060 1.97085
1440.05217 1.95986
1438.00373 1.95628
1435.95529 1.95421
1433.90685 1.94377
1431.85841 1.92245
1429.80997 1.88757
1427.76154 1.85018
1425.71310 1.81996
1423.66466 1.79473
1421.61622 1.77687
1419.56778 1.76379
1417.51934 1.75236
1415.47091 1.74657
1413.42247 1.74628
1411.37403 1.75105
1409.32559 1.76006
1407.27715 1.77260
1405.22871 1.78820
1403.18028 1.80161
1401.13184 1.81036
1399.08340 1.81827
1397.03496 1.82684
1394.98652 1.83776
1392.93808 1.85046
1390.88965 1.86288
1388.84121 1.87413
1386.79277 1.87806
1384.74433 1.87255
1382.69589 1.86352
1380.64745 1.85182
1378.59901 1.83600
1376.55058 1.81777
1374.50214 1.79908
1372.45370 1.78482
1370.40526 1.77900
1368.35682 1.77712
1366.30838 1.77510
1364.25995 1.77308
1362.21151 1.76927
1360.16307 1.76196
1358.11463 1.75435
1356.06619 1.74837
1354.01775 1.74285
1351.96932 1.73662
1349.92088 1.72991
1347.87244 1.72424
1345.82400 1.72249
1343.77556 1.72527
1341.72712 1.73070
1339.67869 1.73564
1337.63025 1.73557
1335.58181 1.73161
1333.53337 1.72807
1331.48493 1.72708
1329.43649 1.72891
1327.38806 1.73248
1325.33962 1.73594
1323.29118 1.73889
1321.24274 1.74230
1319.19430 1.74656
1317.14586 1.75140
1315.09743 1.75736
1313.04899 1.76507
1311.00055 1.77372
1308.95211 1.78344
1306.90367 1.79380
1304.85523 1.80267
1302.80680 1.81012
1300.75836 1.81782
1298.70992 1.82624
1296.66148 1.83573
1294.61304 1.84769
1292.56460 1.86234
1290.51617 1.87910
1288.46773 1.89922
1286.41929 1.92458
1284.37085 1.95568
1282.32241 1.99155
1280.27397 2.02943
1278.22554 2.06623
1276.17710 2.09714
1274.12866 2.11655
1272.08022 2.12382
1270.03178 2.12243
1267.98334 2.11734
1265.93491 2.11138
1263.88647 2.10396
1261.83803 2.09646
1259.78959 2.09139
1257.74115 2.09049
1255.69271 2.09745
1253.64428 2.11323
1251.59584 2.13285
1249.54740 2.15061
1247.49896 2.16467
1245.45052 2.17323
1243.40208 2.17298
1241.35364 2.16462
1239.30521 2.15060
1237.25677 2.13134
1235.20833 2.10957
1233.15989 2.09134
1231.11145 2.07781
1229.06301 2.06629
1227.01458 2.05645
1224.96614 2.04845
1222.91770 2.04184
1220.86926 2.03766
1218.82082 2.03785
1216.77238 2.04302
1214.72395 2.05212
1212.67551 2.06453
1210.62707 2.08256
1208.57863 2.10765
1206.53019 2.13679
1204.48175 2.16616
1202.43332 2.19190
1200.38488 2.20996
1198.33644 2.21910
1196.28800 2.22183
1194.23956 2.22174
1192.19112 2.21913
1190.14269 2.21273
1188.09425 2.20335
1186.04581 2.19407
1183.99737 2.18835
1181.94893 2.18448
1179.90049 2.17919
1177.85206 2.17300
1175.80362 2.16606
1173.75518 2.15806
1171.70674 2.15037
1169.65830 2.14512
1167.60986 2.14343
1165.56143 2.14387
1163.51299 2.14337
1161.46455 2.14006
1159.41611 2.13313
1157.36767 2.12067
1155.31923 2.10216
1153.27080 2.08114
1151.22236 2.06150
1149.17392 2.04333
1147.12548 2.02568
1145.07704 2.01004
1143.02860 1.99880
1140.98017 1.99295
1138.93173 1.99022
1136.88329 1.98735
1134.83485 1.98542
1132.78641 1.98624
1130.73797 1.98816
1128.68954 1.98961
1126.64110 1.98977
1124.59266 1.98915
1122.54422 1.98981
1120.49578 1.99067
1118.44734 1.98994
1116.39891 1.98849
1114.35047 1.98798
1112.30203 1.98884
1110.25359 1.98890
1108.20515 1.98734
1106.15671 1.98528
1104.10827 1.98272
1102.05984 1.98083
1100.01140 1.98014
1097.96296 1.97895
1095.91452 1.97771
1093.86608 1.97709
1091.81764 1.97580
1089.76921 1.97449
1087.72077 1.97394
1085.67233 1.97266
1083.62389 1.97032
1081.57545 1.96858
1079.52701 1.96776
1077.47858 1.96660
1075.43014 1.96529
1073.38170 1.96412
1071.33326 1.96245
1069.28482 1.96111
1067.23638 1.96116
1065.18795 1.96080
1063.13951 1.95744
1061.09107 1.95106
1059.04263 1.94310
1056.99419 1.93548
1054.94575 1.92959
1052.89732 1.92343
1050.84888 1.91524
1048.80044 1.90729
1046.75200 1.90038
1044.70356 1.89323
1042.65512 1.88663
1040.60669 1.88145
1038.55825 1.87711
1036.50981 1.87374
1034.46137 1.87269
1032.41293 1.87571
1030.36449 1.88461
1028.31606 1.89809
1026.26762 1.91106
1024.21918 1.92042
1022.17074 1.92481
1020.12230 1.92336
1018.07386 1.91814
1016.02543 1.91168
1013.97699 1.90662
1011.92855 1.90560
1009.88011 1.90936
1007.83167 1.91899
1005.78323 1.93546
1003.73480 1.95542
1001.68636 1.97396
999.63792 1.98865
997.58948 1.99845
995.54104 2.00515
993.49260 2.01079
991.44417 2.01464
989.39573 2.01733
987.34729 2.02101
985.29885 2.02607
983.25041 2.02997
981.20197 2.03263
979.15354 2.03765
977.10510 2.04421
975.05666 2.04863
973.00822 2.05091
970.95978 2.05291
968.91134 2.05393
966.86290 2.05154
964.81447 2.04523
962.76603 2.03744
960.71759 2.03189
958.66915 2.02918
956.62071 2.02755
954.57227 2.02763
952.52384 2.03035
950.47540 2.03305
948.42696 2.03197
946.37852 2.02827
944.33008 2.02692
942.28164 2.02885
940.23321 2.03090
938.18477 2.03114
936.13633 2.02877
934.08789 2.02382
932.03945 2.01805
929.99101 2.01301
927.94258 2.00811
925.89414 2.00358
923.84570 2.00251
921.79726 2.00521
919.74882 2.00835
917.70038 2.01122
915.65195 2.01483
913.60351 2.01836
911.55507 2.01935
909.50663 2.01591
907.45819 2.01010
905.40975 2.00527
903.36132 2.00062
901.31288 1.99380
899.26444 1.98525
897.21600 1.97460
895.16756 1.96066
893.11912 1.94687
891.07069 1.93660
889.02225 1.92891
886.97381 1.92389
884.92537 1.92233
882.87693 1.92122
880.82849 1.91699
878.78006 1.91206
876.73162 1.90965
874.68318 1.90780
872.63474 1.90675
870.58630 1.90778
868.53786 1.90709
866.48943 1.90382
864.44099 1.90156
862.39255 1.89985
860.34411 1.89637
858.29567 1.89341
856.24723 1.89401
854.19880 1.89811
852.15036 1.90276
850.10192 1.90405
848.05348 1.90381
846.00504 1.90625
843.95660 1.91024
841.90817 1.91283
839.85973 1.91528
837.81129 1.92204
835.76285 1.93426
833.71441 1.94784
831.66597 1.95807
829.61753 1.96400
827.56910 1.96757
825.52066 1.97148
823.47222 1.97642
821.42378 1.98088
819.37534 1.98513
817.32690 1.98623
815.27847 1.98208
813.23003 1.97801
811.18159 1.97623
809.13315 1.97419
807.08471 1.97216
805.03627 1.97189
802.98784 1.97284
800.93940 1.97435
798.89096 1.97697
796.84252 1.98180
794.79408 1.98771
792.74564 1.98973
790.69721 1.98601
788.64877 1.98306
786.60033 1.98591
784.55189 1.98889
782.50345 1.98795
780.45501 1.98837
778.40658 1.99255
776.35814 1.99552
774.30970 1.99087
772.26126 1.98147
770.21282 1.97737
768.16438 1.97969
766.11595 1.98472
764.06751 1.99163
762.01907 1.99868
759.97063 2.00405
757.92219 2.00701
755.87375 2.00920
753.82532 2.01100
751.77688 2.00848
749.72844 1.99868
747.68000 1.98247
745.63156 1.96434
743.58312 1.94854
741.53469 1.93624
739.48625 1.92917
737.43781 1.92563
735.38937 1.92046
733.34093 1.91534
731.29249 1.91082
729.24406 1.90181
727.19562 1.89133
725.14718 1.88544
723.09874 1.88255
721.05030 1.88064
719.00186 1.87788
716.95343 1.87361
714.90499 1.87427
712.85655 1.88259
710.80811 1.89433
708.75967 1.90665
706.71123 1.91397
704.66280 1.91380
702.61436 1.91321
700.56592 1.91325
698.51748 1.91282
696.46904 1.91308
694.42060 1.91063
692.37216 1.90475
690.32373 1.89692
688.27529 1.88706
686.22685 1.87886
684.17841 1.87807
682.12997 1.88052
680.08153 1.87897
678.03310 1.87761
675.98466 1.87998
673.93622 1.88229
671.88778 1.88677
669.83934 1.89939
667.79090 1.89761
665.74247 1.87086
663.69403 1.85635
661.64559 1.85397
659.59715 1.85787
657.54871 1.86822
655.50027 1.88109
653.45184 1.89126
651.40340 1.89634
649.35496 1.89823
647.30652 1.90452
645.25808 1.92308
643.20964 1.93919
641.16121 1.93260
639.11277 1.91863
637.06433 1.91603
635.01589 1.92579
632.96745 1.93458
630.91901 1.93306
628.87058 1.92143
626.82214 1.89571
624.77370 1.87534
622.72526 1.87340
620.67682 1.87357
618.62838 1.88362
616.57995 1.90700
614.53151 1.90426
612.48307 1.88167
610.43463 1.87081
608.38619 1.86116
606.33775 1.85941
604.28932 1.87861
602.24088 1.88242
600.19244 1.86732
598.14400 1.88062
