3996.50324 1.61266
3994.45480 1.61227
3992.40636 1.61219
3990.35792 1.61230
3988.30948 1.61250
3986.26104 1.61277
3984.21261 1.61354
3982.16417 1.61444
3980.11573 1.61495
3978.06729 1.61520
3976.01885 1.61581
3973.97041 1.61661
3971.92198 1.61598
3969.87354 1.61471
3967.82510 1.61391
3965.77666 1.61264
3963.72822 1.61229
3961.67978 1.61463
3959.63135 1.61619
3957.58291 1.61538
3955.53447 1.61501
3953.48603 1.61460
3951.43759 1.61255
3949.38915 1.61190
3947.34072 1.61437
3945.29228 1.61369
3943.24384 1.61254
3941.19540 1.61560
3939.14696 1.61652
3937.09852 1.61451
3935.05009 1.61108
3933.00165 1.61029
3930.95321 1.61700
3928.90477 1.62174
3926.85633 1.61865
3924.80789 1.61575
3922.75946 1.61552
3920.71102 1.61309
3918.66258 1.61237
3916.61414 1.61695
3914.56570 1.62025
3912.51726 1.61894
3910.46883 1.61626
3908.42039 1.61133
3906.37195 1.60356
3904.32351 1.60172
3902.27507 1.60895
3900.22663 1.61758
3898.17820 1.62460
3896.12976 1.62217
3894.08132 1.61172
3892.03288 1.60964
3889.98444 1.61651
3887.93600 1.61190
3885.88756 1.60691
3883.83913 1.61138
3881.79069 1.61211
3879.74225 1.61689
3877.69381 1.61761
3875.64537 1.60858
3873.59693 1.60427
3871.54850 1.60500
3869.50006 1.61222
3867.45162 1.61666
3865.40318 1.61194
3863.35474 1.61446
3861.30630 1.61943
3859.25787 1.61435
3857.20943 1.59995
3855.16099 1.58475
3853.11255 1.60274
3851.06411 1.63230
3849.01567 1.63042
3846.96724 1.61815
3844.91880 1.60792
3842.87036 1.60292
3840.82192 1.60072
3838.77348 1.60462
3836.72504 1.61585
3834.67661 1.62024
3832.62817 1.61898
3830.57973 1.61676
3828.53129 1.61142
3826.48285 1.60741
3824.43441 1.60256
3822.38598 1.59632
3820.33754 1.60614
3818.28910 1.61239
3816.24066 1.61288
3814.19222 1.62186
3812.14378 1.62094
3810.09535 1.61087
3808.04691 1.60478
3805.99847 1.60829
3803.95003 1.60503
3801.90159 1.60481
3799.85315 1.61870
3797.80472 1.62060
3795.75628 1.61922
3793.70784 1.61921
3791.65940 1.61633
3789.61096 1.61436
3787.56252 1.61253
3785.51409 1.61278
3783.46565 1.61429
3781.41721 1.61153
3779.36877 1.61305
3777.32033 1.61915
3775.27189 1.61724
3773.22346 1.60944
3771.17502 1.60519
3769.12658 1.61137
3767.07814 1.61773
3765.02970 1.61953
3762.98126 1.61699
3760.93283 1.61043
3758.88439 1.61217
3756.83595 1.61663
3754.78751 1.60754
3752.73907 1.59318
3750.69063 1.60078
3748.64219 1.61943
3746.59376 1.61713
3744.54532 1.62042
3742.49688 1.63237
3740.44844 1.62481
3738.40000 1.60855
3736.35156 1.60357
3734.30313 1.61846
3732.25469 1.63205
3730.20625 1.63083
3728.15781 1.62155
3726.10937 1.61659
3724.06093 1.62017
3722.01250 1.62470
3719.96406 1.62791
3717.91562 1.62756
3715.86718 1.62071
3713.81874 1.60970
3711.77030 1.60907
3709.72187 1.62559
3707.67343 1.63402
3705.62499 1.62934
3703.57655 1.62233
3701.52811 1.62595
3699.47967 1.63230
3697.43124 1.63076
3695.38280 1.62708
3693.33436 1.62059
3691.28592 1.61422
3689.23748 1.62657
3687.18904 1.64479
3685.14061 1.64392
3683.09217 1.63545
3681.04373 1.62859
3678.99529 1.62217
3676.94685 1.61917
3674.89841 1.63609
3672.84998 1.64570
3670.80154 1.64337
3668.75310 1.65516
3666.70466 1.66111
3664.65622 1.65575
3662.60778 1.65114
3660.55935 1.64834
3658.51091 1.64513
3656.46247 1.64796
3654.41403 1.65263
3652.36559 1.64442
3650.31715 1.63688
3648.26872 1.65756
3646.22028 1.67615
3644.17184 1.67614
3642.12340 1.67227
3640.07496 1.67132
3638.02652 1.67166
3635.97809 1.67126
3633.92965 1.67044
3631.88121 1.66568
3629.83277 1.66424
3627.78433 1.68404
3625.73589 1.69451
3623.68746 1.68743
3621.63902 1.67837
3619.59058 1.68039
3617.54214 1.69257
3615.49370 1.69532
3613.44526 1.69411
3611.39682 1.69563
3609.34839 1.69608
3607.29995 1.69966
3605.25151 1.70275
3603.20307 1.70056
3601.15463 1.69947
3599.10619 1.70143
3597.05776 1.70171
3595.00932 1.70401
3592.96088 1.70944
3590.91244 1.70844
3588.86400 1.70533
3586.81556 1.71405
3584.76713 1.72180
3582.71869 1.72001
3580.67025 1.71758
3578.62181 1.71770
3576.57337 1.71992
3574.52493 1.72262
3572.47650 1.72265
3570.42806 1.71789
3568.37962 1.71447
3566.33118 1.72265
3564.28274 1.72956
3562.23430 1.72908
3560.18587 1.73011
3558.13743 1.73237
3556.08899 1.73222
3554.04055 1.73114
3551.99211 1.73284
3549.94367 1.73358
3547.89524 1.73069
3545.84680 1.73270
3543.79836 1.74008
3541.74992 1.74310
3539.70148 1.74151
3537.65304 1.73975
3535.60461 1.74077
3533.55617 1.74276
3531.50773 1.74254
3529.45929 1.74278
3527.41085 1.74544
3525.36241 1.74791
3523.31398 1.75002
3521.26554 1.75088
3519.21710 1.74952
3517.16866 1.74870
3515.12022 1.74961
3513.07178 1.75001
3511.02335 1.74991
3508.97491 1.75207
3506.92647 1.75434
3504.87803 1.75459
3502.82959 1.75642
3500.78115 1.75942
3498.73272 1.75986
3496.68428 1.75876
3494.63584 1.75923
3492.58740 1.76115
3490.53896 1.76181
3488.49052 1.76227
3486.44209 1.76424
3484.39365 1.76523
3482.34521 1.76561
3480.29677 1.76693
3478.24833 1.76678
3476.19989 1.76534
3474.15146 1.76570
3472.10302 1.76752
3470.05458 1.76808
3468.00614 1.76817
3465.95770 1.76938
3463.90926 1.76921
3461.86082 1.76727
3459.81239 1.76746
3457.76395 1.77052
3455.71551 1.77367
3453.66707 1.77452
3451.61863 1.77341
3449.57019 1.77245
3447.52176 1.77278
3445.47332 1.77457
3443.42488 1.77595
3441.37644 1.77526
3439.32800 1.77305
3437.27956 1.77147
3435.23113 1.77231
3433.18269 1.77374
3431.13425 1.77366
3429.08581 1.77369
3427.03737 1.77509
3424.98893 1.77686
3422.94050 1.77870
3420.89206 1.78057
3418.84362 1.78140
3416.79518 1.78078
3414.74674 1.78014
3412.69830 1.77998
3410.64987 1.77962
3408.60143 1.78016
3406.55299 1.78246
3404.50455 1.78510
3402.45611 1.78624
3400.40767 1.78467
3398.35924 1.78159
3396.31080 1.78060
3394.26236 1.78131
3392.21392 1.78173
3390.16548 1.78202
3388.11704 1.78063
3386.06861 1.77855
3384.02017 1.77797
3381.97173 1.77703
3379.92329 1.77582
3377.87485 1.77697
3375.82641 1.77862
3373.77798 1.77831
3371.72954 1.77801
3369.68110 1.77821
3367.63266 1.77762
3365.58422 1.77652
3363.53578 1.77535
3361.48735 1.77520
3359.43891 1.77663
3357.39047 1.77780
3355.34203 1.77756
3353.29359 1.77715
3351.24515 1.77680
3349.19672 1.77563
3347.14828 1.77432
3345.09984 1.77399
3343.05140 1.77487
3341.00296 1.77583
3338.95452 1.77514
3336.90609 1.77297
3334.85765 1.77108
3332.80921 1.77128
3330.76077 1.77305
3328.71233 1.77304
3326.66389 1.77072
3324.61545 1.76935
3322.56702 1.76983
3320.51858 1.77055
3318.47014 1.77074
3316.42170 1.77088
3314.37326 1.77116
3312.32482 1.77092
3310.27639 1.77012
3308.22795 1.76990
3306.17951 1.77010
3304.13107 1.76940
3302.08263 1.76812
3300.03419 1.76670
3297.98576 1.76502
3295.93732 1.76426
3293.88888 1.76517
3291.84044 1.76617
3289.79200 1.76634
3287.74356 1.76615
3285.69513 1.76566
3283.64669 1.76528
3281.59825 1.76484
3279.54981 1.76375
3277.50137 1.76250
3275.45293 1.76119
3273.40450 1.76101
3271.35606 1.76316
3269.30762 1.76409
3267.25918 1.76216
3265.21074 1.76069
3263.16230 1.76009
3261.11387 1.75930
3259.06543 1.75869
3257.01699 1.75823
3254.96855 1.75806
3252.92011 1.75851
3250.87167 1.75996
3248.82324 1.76160
3246.77480 1.76106
3244.72636 1.75882
3242.67792 1.75801
3240.62948 1.75962
3238.58104 1.76156
3236.53261 1.76144
3234.48417 1.76053
3232.43573 1.76054
3230.38729 1.76053
3228.33885 1.75988
3226.29041 1.75883
3224.24198 1.75814
3222.19354 1.75818
3220.14510 1.75835
3218.09666 1.75800
3216.04822 1.75646
3213.99978 1.75483
3211.95135 1.75459
3209.90291 1.75520
3207.85447 1.75617
3205.80603 1.75643
3203.75759 1.75581
3201.70915 1.75513
3199.66072 1.75396
3197.61228 1.75380
3195.56384 1.75493
3193.51540 1.75493
3191.46696 1.75400
3189.41852 1.75279
3187.37008 1.75145
3185.32165 1.75023
3183.27321 1.74861
3181.22477 1.74749
3179.17633 1.74737
3177.12789 1.74645
3175.07945 1.74506
3173.03102 1.74460
3170.98258 1.74413
3168.93414 1.74312
3166.88570 1.74223
3164.83726 1.74158
3162.78882 1.74081
3160.74039 1.73959
3158.69195 1.73836
3156.64351 1.73745
3154.59507 1.73603
3152.54663 1.73440
3150.49819 1.73403
3148.44976 1.73405
3146.40132 1.73350
3144.35288 1.73346
3142.30444 1.73371
3140.25600 1.73350
3138.20756 1.73339
3136.15913 1.73277
3134.11069 1.73167
3132.06225 1.73173
3130.01381 1.73225
3127.96537 1.73202
3125.91693 1.73165
3123.86850 1.73130
3121.82006 1.73029
3119.77162 1.72914
3117.72318 1.72902
3115.67474 1.72982
3113.62630 1.73068
3111.57787 1.73061
3109.52943 1.72917
3107.48099 1.72712
3105.43255 1.72546
3103.38411 1.72486
3101.33567 1.72549
3099.28724 1.72639
3097.23880 1.72650
3095.19036 1.72645
3093.14192 1.72584
3091.09348 1.72401
3089.04504 1.72258
3086.99661 1.72193
3084.94817 1.72134
3082.89973 1.72186
3080.85129 1.72269
3078.80285 1.72206
3076.75441 1.72128
3074.70598 1.72093
3072.65754 1.72017
3070.60910 1.71860
3068.56066 1.71683
3066.51222 1.71622
3064.46378 1.71652
3062.41535 1.71699
3060.36691 1.71718
3058.31847 1.71683
3056.27003 1.71649
3054.22159 1.71560
3052.17315 1.71367
3050.12471 1.71210
3048.07628 1.71180
3046.02784 1.71243
3043.97940 1.71383
3041.93096 1.71540
3039.88252 1.71555
3037.83408 1.71403
3035.78565 1.71302
3033.73721 1.71336
3031.68877 1.71407
3029.64033 1.71515
3027.59189 1.71632
3025.54345 1.71680
3023.49502 1.71697
3021.44658 1.71706
3019.39814 1.71771
3017.34970 1.71944
3015.30126 1.72148
3013.25282 1.72356
3011.20439 1.72502
3009.15595 1.72532
3007.10751 1.72530
3005.05907 1.72523
3003.01063 1.72540
3000.96219 1.72602
2998.91376 1.72624
2996.86532 1.72577
2994.81688 1.72535
2992.76844 1.72595
2990.72000 1.72742
2988.67156 1.72911
2986.62313 1.73120
2984.57469 1.73318
2982.52625 1.73522
2980.47781 1.73901
2978.42937 1.74454
2976.38093 1.74959
2974.33250 1.75300
2972.28406 1.75699
2970.23562 1.76376
2968.18718 1.77145
2966.13874 1.77740
2964.09030 1.78298
2962.04187 1.78908
2959.99343 1.79270
2957.94499 1.79335
2955.89655 1.79381
2953.84811 1.79404
2951.79967 1.79339
2949.75124 1.79308
2947.70280 1.79372
2945.65436 1.79533
2943.60592 1.79802
2941.55748 1.80211
2939.50904 1.80735
2937.46061 1.81271
2935.41217 1.81760
2933.36373 1.82257
2931.31529 1.82869
2929.26685 1.83538
2927.21841 1.83998
2925.16998 1.84157
2923.12154 1.84177
2921.07310 1.84049
2919.02466 1.83697
2916.97622 1.83186
2914.92778 1.82481
2912.87934 1.81537
2910.83091 1.80662
2908.78247 1.80108
2906.73403 1.79618
2904.68559 1.79058
2902.63715 1.78606
2900.58871 1.78184
2898.54028 1.77773
2896.49184 1.77543
2894.44340 1.77321
2892.39496 1.76963
2890.34652 1.76586
2888.29808 1.76210
2886.24965 1.75907
2884.20121 1.75746
2882.15277 1.75673
2880.10433 1.75712
2878.05589 1.75862
2876.00745 1.76007
2873.95902 1.76078
2871.91058 1.76135
2869.86214 1.76248
2867.81370 1.76410
2865.76526 1.76646
2863.71682 1.77018
2861.66839 1.77595
2859.61995 1.78327
2857.57151 1.79004
2855.52307 1.79444
2853.47463 1.79624
2851.42619 1.79647
2849.37776 1.79352
2847.32932 1.78507
2845.28088 1.77279
2843.23244 1.75997
2841.18400 1.74888
2839.13556 1.74039
2837.08713 1.73415
2835.03869 1.72950
2832.99025 1.72552
2830.94181 1.72153
2828.89337 1.71807
2826.84493 1.71490
2824.79650 1.71115
2822.74806 1.70763
2820.69962 1.70472
2818.65118 1.70162
2816.60274 1.69841
2814.55430 1.69557
2812.50587 1.69399
2810.45743 1.69390
2808.40899 1.69376
2806.36055 1.69253
2804.31211 1.69059
2802.26367 1.68882
2800.21524 1.68735
2798.16680 1.68621
2796.11836 1.68547
2794.06992 1.68440
2792.02148 1.68291
2789.97304 1.68138
2787.92461 1.68024
2785.87617 1.67928
2783.82773 1.67753
2781.77929 1.67543
2779.73085 1.67428
2777.68241 1.67377
2775.63397 1.67317
2773.58554 1.67297
2771.53710 1.67323
2769.48866 1.67347
2767.44022 1.67346
2765.39178 1.67312
2763.34334 1.67287
2761.29491 1.67264
2759.24647 1.67237
2757.19803 1.67288
2755.14959 1.67383
2753.10115 1.67437
2751.05271 1.67467
2749.00428 1.67472
2746.95584 1.67454
2744.90740 1.67434
2742.85896 1.67411
2740.81052 1.67422
2738.76208 1.67458
2736.71365 1.67487
2734.66521 1.67523
2732.61677 1.67549
2730.56833 1.67497
2728.51989 1.67390
2726.47145 1.67374
2724.42302 1.67447
2722.37458 1.67463
2720.32614 1.67405
2718.27770 1.67339
2716.22926 1.67254
2714.18082 1.67158
2712.13239 1.67089
2710.08395 1.67045
2708.03551 1.67002
2705.98707 1.66945
2703.93863 1.66898
2701.89019 1.66861
2699.84176 1.66838
2697.79332 1.66828
2695.74488 1.66821
2693.69644 1.66855
2691.64800 1.66900
2689.59956 1.66871
2687.55113 1.66748
2685.50269 1.66636
2683.45425 1.66615
2681.40581 1.66644
2679.35737 1.66652
2677.30893 1.66599
2675.26050 1.66538
2673.21206 1.66555
2671.16362 1.66605
2669.11518 1.66567
2667.06674 1.66427
2665.01830 1.66284
2662.96987 1.66198
2660.92143 1.66237
2658.87299 1.66437
2656.82455 1.66565
2654.77611 1.66407
2652.72767 1.66158
2650.67924 1.66095
2648.63080 1.66178
2646.58236 1.66271
2644.53392 1.66338
2642.48548 1.66304
2640.43704 1.66186
2638.38860 1.66143
2636.34017 1.66175
2634.29173 1.66162
2632.24329 1.66060
2630.19485 1.65946
2628.14641 1.65925
2626.09797 1.65926
2624.04954 1.65887
2622.00110 1.65838
2619.95266 1.65732
2617.90422 1.65631
2615.85578 1.65656
2613.80734 1.65726
2611.75891 1.65744
2609.71047 1.65713
2607.66203 1.65637
2605.61359 1.65568
2603.56515 1.65563
2601.51671 1.65571
2599.46828 1.65530
2597.41984 1.65515
2595.37140 1.65575
2593.32296 1.65600
2591.27452 1.65543
2589.22608 1.65486
2587.17765 1.65508
2585.12921 1.65608
2583.08077 1.65671
2581.03233 1.65627
2578.98389 1.65551
2576.93545 1.65498
2574.88702 1.65462
2572.83858 1.65453
2570.79014 1.65453
2568.74170 1.65458
2566.69326 1.65481
2564.64482 1.65458
2562.59639 1.65420
2560.54795 1.65448
2558.49951 1.65480
2556.45107 1.65440
2554.40263 1.65416
2552.35419 1.65485
2550.30576 1.65547
2548.25732 1.65522
2546.20888 1.65430
2544.16044 1.65337
2542.11200 1.65314
2540.06356 1.65319
2538.01513 1.65302
2535.96669 1.65299
2533.91825 1.65327
2531.86981 1.65377
2529.82137 1.65422
2527.77293 1.65445
2525.72450 1.65474
2523.67606 1.65550
2521.62762 1.65693
2519.57918 1.65830
2517.53074 1.65899
2515.48230 1.65989
2513.43387 1.66112
2511.38543 1.66213
2509.33699 1.66325
2507.28855 1.66447
2505.24011 1.66528
2503.19167 1.66558
2501.14324 1.66549
2499.09480 1.66548
2497.04636 1.66581
2494.99792 1.66597
2492.94948 1.66633
2490.90104 1.66750
2488.85260 1.66845
2486.80417 1.66879
2484.75573 1.66934
2482.70729 1.66956
2480.65885 1.66914
2478.61041 1.66928
2476.56197 1.67058
2474.51354 1.67204
2472.46510 1.67288
2470.41666 1.67367
2468.36822 1.67454
2466.31978 1.67447
2464.27134 1.67372
2462.22291 1.67352
2460.17447 1.67421
2458.12603 1.67562
2456.07759 1.67691
2454.02915 1.67741
2451.98071 1.67770
2449.93228 1.67866
2447.88384 1.68059
2445.83540 1.68373
2443.78696 1.68854
2441.73852 1.69457
2439.69008 1.70119
2437.64165 1.70962
2435.59321 1.72160
2433.54477 1.73723
2431.49633 1.75441
2429.44789 1.76847
2427.39945 1.77257
2425.35102 1.76405
2423.30258 1.74806
2421.25414 1.73038
2419.20570 1.71395
2417.15726 1.70073
2415.10882 1.69080
2413.06039 1.68397
2411.01195 1.68002
2408.96351 1.67720
2406.91507 1.67489
2404.86663 1.67355
2402.81819 1.67288
2400.76976 1.67219
2398.72132 1.67140
2396.67288 1.67109
2394.62444 1.67100
2392.57600 1.67044
2390.52756 1.66929
2388.47913 1.66776
2386.43069 1.66639
2384.38225 1.66517
2382.33381 1.66310
2380.28537 1.66015
2378.23693 1.65830
2376.18850 1.65800
2374.14006 1.65689
2372.09162 1.65486
2370.04318 1.65395
2367.99474 1.65534
2365.94630 1.65897
2363.89787 1.66031
2361.84943 1.65574
2359.80099 1.65197
2357.75255 1.65594
2355.70411 1.66508
2353.65567 1.67352
2351.60723 1.67603
2349.55880 1.67136
2347.51036 1.66382
2345.46192 1.66105
2343.41348 1.66736
2341.36504 1.67449
2339.31660 1.67812
2337.26817 1.68050
2335.21973 1.68161
2333.17129 1.67976
2331.12285 1.67717
2329.07441 1.67621
2327.02597 1.67333
2324.97754 1.66867
2322.92910 1.66735
2320.88066 1.66994
2318.83222 1.67150
2316.78378 1.66945
2314.73534 1.66637
2312.68691 1.66566
2310.63847 1.66683
2308.59003 1.66727
2306.54159 1.66664
2304.49315 1.66616
2302.44471 1.66694
2300.39628 1.66798
2298.34784 1.66774
2296.29940 1.66716
2294.25096 1.66733
2292.20252 1.66780
2290.15408 1.66801
2288.10565 1.66777
2286.05721 1.66687
2284.00877 1.66510
2281.96033 1.66349
2279.91189 1.66324
2277.86345 1.66375
2275.81502 1.66390
2273.76658 1.66399
2271.71814 1.66477
2269.66970 1.66554
2267.62126 1.66524
2265.57282 1.66423
2263.52439 1.66357
2261.47595 1.66354
2259.42751 1.66373
2257.37907 1.66360
2255.33063 1.66248
2253.28219 1.66116
2251.23376 1.66143
2249.18532 1.66297
2247.13688 1.66399
2245.08844 1.66411
2243.04000 1.66379
2240.99156 1.66331
2238.94313 1.66314
2236.89469 1.66357
2234.84625 1.66417
2232.79781 1.66397
2230.74937 1.66292
2228.70093 1.66222
2226.65250 1.66268
2224.60406 1.66378
2222.55562 1.66420
2220.50718 1.66329
2218.45874 1.66215
2216.41030 1.66200
2214.36186 1.66228
2212.31343 1.66236
2210.26499 1.66232
2208.21655 1.66260
2206.16811 1.66310
2204.11967 1.66332
2202.07123 1.66337
2200.02280 1.66291
2197.97436 1.66153
2195.92592 1.66025
2193.87748 1.66048
2191.82904 1.66205
2189.78060 1.66346
2187.73217 1.66354
2185.68373 1.66259
2183.63529 1.66178
2181.58685 1.66136
2179.53841 1.66114
2177.48997 1.66086
2175.44154 1.66060
2173.39310 1.66128
2171.34466 1.66203
2169.29622 1.66173
2167.24778 1.66131
2165.19934 1.66106
2163.15091 1.66089
2161.10247 1.66112
2159.05403 1.66102
2157.00559 1.66021
2154.95715 1.65974
2152.90871 1.65992
2150.86028 1.65959
2148.81184 1.65912
2146.76340 1.65976
2144.71496 1.66066
2142.66652 1.66065
2140.61808 1.66020
2138.56965 1.66009
2136.52121 1.66014
2134.47277 1.65991
2132.42433 1.65943
2130.37589 1.65930
2128.32745 1.66011
2126.27902 1.66095
2124.23058 1.66096
2122.18214 1.66109
2120.13370 1.66145
2118.08526 1.66138
2116.03682 1.66119
2113.98839 1.66150
2111.93995 1.66191
2109.89151 1.66186
2107.84307 1.66193
2105.79463 1.66223
2103.74619 1.66248
2101.69776 1.66276
2099.64932 1.66306
2097.60088 1.66389
2095.55244 1.66518
2093.50400 1.66588
2091.45556 1.66561
2089.40713 1.66536
2087.35869 1.66608
2085.31025 1.66704
2083.26181 1.66725
2081.21337 1.66719
2079.16493 1.66718
2077.11649 1.66723
2075.06806 1.66752
2073.01962 1.66790
2070.97118 1.66777
2068.92274 1.66672
2066.87430 1.66603
2064.82586 1.66697
2062.77743 1.66830
2060.72899 1.66866
2058.68055 1.66828
2056.63211 1.66725
2054.58367 1.66612
2052.53523 1.66585
2050.48680 1.66603
2048.43836 1.66598
2046.38992 1.66625
2044.34148 1.66709
2042.29304 1.66775
2040.24460 1.66746
2038.19617 1.66621
2036.14773 1.66504
2034.09929 1.66498
2032.05085 1.66538
2030.00241 1.66516
2027.95397 1.66476
2025.90554 1.66537
2023.85710 1.66687
2021.80866 1.66755
2019.76022 1.66663
2017.71178 1.66582
2015.66334 1.66601
2013.61491 1.66628
2011.56647 1.66680
2009.51803 1.66751
2007.46959 1.66725
2005.42115 1.66639
2003.37271 1.66662
2001.32428 1.66748
1999.27584 1.66699
1997.22740 1.66574
1995.17896 1.66442
1993.13052 1.66350
1991.08208 1.66427
1989.03365 1.66513
1986.98521 1.66486
1984.93677 1.66394
1982.88833 1.66293
1980.83989 1.66242
1978.79145 1.66202
1976.74302 1.66148
1974.69458 1.66110
1972.64614 1.66129
1970.59770 1.66131
1968.54926 1.66080
1966.50082 1.66112
1964.45239 1.66185
1962.40395 1.66222
1960.35551 1.66307
1958.30707 1.66392
1956.25863 1.66385
1954.21019 1.66331
1952.16176 1.66324
1950.11332 1.66391
1948.06488 1.66449
1946.01644 1.66377
1943.96800 1.66279
1941.91956 1.66440
1939.87112 1.66656
1937.82269 1.66701
1935.77425 1.66719
1933.72581 1.66765
1931.67737 1.66811
1929.62893 1.66791
1927.58049 1.66740
1925.53206 1.66733
1923.48362 1.66861
1921.43518 1.67018
1919.38674 1.67031
1917.33830 1.67185
1915.28986 1.67395
1913.24143 1.67428
1911.19299 1.67401
1909.14455 1.67347
1907.09611 1.67253
1905.04767 1.67181
1902.99923 1.67257
1900.95080 1.67415
1898.90236 1.67436
1896.85392 1.67329
1894.80548 1.67269
1892.75704 1.67205
1890.70860 1.67232
1888.66017 1.67547
1886.61173 1.67677
1884.56329 1.67515
1882.51485 1.67401
1880.46641 1.67405
1878.41797 1.67523
1876.36954 1.67661
1874.32110 1.67598
1872.27266 1.67172
1870.22422 1.66741
1868.17578 1.66994
1866.12734 1.67527
1864.07891 1.67634
1862.03047 1.67535
1859.98203 1.67490
1857.93359 1.67513
1855.88515 1.67481
1853.83671 1.67372
1851.78828 1.67240
1849.73984 1.67099
1847.69140 1.66899
1845.64296 1.66764
1843.59452 1.67196
1841.54608 1.67540
1839.49765 1.67317
1837.44921 1.67217
1835.40077 1.67382
1833.35233 1.67268
1831.30389 1.66929
1829.25545 1.66927
1827.20702 1.67032
1825.15858 1.67164
1823.11014 1.67441
1821.06170 1.67406
1819.01326 1.67218
1816.96482 1.67229
1814.91639 1.67299
1812.86795 1.67327
1810.81951 1.67466
1808.77107 1.67551
1806.72263 1.67454
1804.67419 1.67327
1802.62575 1.67281
1800.57732 1.67428
1798.52888 1.67544
1796.48044 1.67356
1794.43200 1.67125
1792.38356 1.67525
1790.33512 1.68262
1788.28669 1.68313
1786.23825 1.68133
1784.18981 1.68165
1782.14137 1.68177
1780.09293 1.68315
1778.04449 1.68527
1775.99606 1.68298
1773.94762 1.67861
1771.89918 1.68179
1769.85074 1.69024
1767.80230 1.69550
1765.75386 1.69688
1763.70543 1.69504
1761.65699 1.69601
1759.60855 1.69939
1757.56011 1.70321
1755.51167 1.70872
1753.46323 1.70994
1751.41480 1.71091
1749.36636 1.72135
1747.31792 1.73508
1745.26948 1.74400
1743.22104 1.74969
1741.17260 1.75503
1739.12417 1.76058
1737.07573 1.76020
1735.02729 1.75480
1732.97885 1.75462
1730.93041 1.75526
1728.88197 1.75312
1726.83354 1.75042
1724.78510 1.74750
1722.73666 1.74471
1720.68822 1.73902
1718.63978 1.73320
1716.59134 1.73794
1714.54291 1.74554
1712.49447 1.74745
1710.44603 1.74710
1708.39759 1.74527
1706.34915 1.74422
1704.30071 1.74302
1702.25228 1.73708
1700.20384 1.73494
1698.15540 1.74071
1696.10696 1.74555
1694.05852 1.74906
1692.01008 1.74707
1689.96165 1.74400
1687.91321 1.74060
1685.86477 1.73420
1683.81633 1.73909
1681.76789 1.75067
1679.71945 1.75208
1677.67102 1.74961
1675.62258 1.74900
1673.57414 1.75063
1671.52570 1.75071
1669.47726 1.75587
1667.42882 1.76224
1665.38038 1.76035
1663.33195 1.75926
1661.28351 1.76427
1659.23507 1.76590
1657.18663 1.75935
1655.13819 1.74782
1653.08975 1.75299
1651.04132 1.76778
1648.99288 1.76429
1646.94444 1.76320
1644.89600 1.76970
1642.84756 1.77015
1640.79912 1.76624
1638.75069 1.76012
1636.70225 1.75897
1634.65381 1.76942
1632.60537 1.77196
1630.55693 1.76724
1628.50849 1.76493
1626.46006 1.76591
1624.41162 1.76651
1622.36318 1.76681
1620.31474 1.76282
1618.26630 1.75750
1616.21786 1.76203
1614.16943 1.76759
1612.12099 1.76560
1610.07255 1.76322
1608.02411 1.76213
1605.97567 1.76009
1603.92723 1.75861
1601.87880 1.75955
1599.83036 1.76070
1597.78192 1.75985
1595.73348 1.75753
1593.68504 1.75528
1591.63660 1.75496
1589.58817 1.75627
1587.53973 1.75617
1585.49129 1.75373
1583.44285 1.75198
1581.39441 1.75194
1579.34597 1.75050
1577.29754 1.74901
1575.24910 1.75137
1573.20066 1.74868
1571.15222 1.74374
1569.10378 1.74727
1567.05534 1.75143
1565.00691 1.74841
1562.95847 1.74086
1560.91003 1.73009
1558.86159 1.73440
1556.81315 1.75146
1554.76471 1.75097
1552.71628 1.74734
1550.66784 1.74630
1548.61940 1.74767
1546.57096 1.74595
1544.52252 1.74017
1542.47408 1.73442
1540.42565 1.74116
1538.37721 1.75444
1536.32877 1.75119
1534.28033 1.74426
1532.23189 1.74191
1530.18345 1.73748
1528.13501 1.73215
1526.08658 1.73226
1524.03814 1.73274
1521.98970 1.73149
1519.94126 1.73113
1517.89282 1.73068
1515.84438 1.73436
1513.79595 1.73613
1511.74751 1.73056
1509.69907 1.71984
1507.65063 1.71583
1505.60219 1.73227
1503.55375 1.73607
1501.50532 1.72993
1499.45688 1.72365
1497.40844 1.72322
1495.36000 1.72715
1493.31156 1.72542
1491.26312 1.72115
1489.21469 1.72432
1487.16625 1.73068
1485.11781 1.73192
1483.06937 1.73293
1481.02093 1.73634
1478.97249 1.73802
1476.92406 1.73727
1474.87562 1.74000
1472.82718 1.75337
1470.77874 1.76876
1468.73030 1.77350
1466.68186 1.77456
1464.63343 1.77788
1462.58499 1.77759
1460.53655 1.76983
1458.48811 1.76272
1456.43967 1.77073
1454.39123 1.77798
1452.34280 1.77607
1450.29436 1.77200
1448.24592 1.77083
1446.19748 1.77351
1444.14904 1.77472
1442.10060 1.77273
1440.05217 1.76812
1438.00373 1.76409
1435.95529 1.76617
1433.90685 1.76792
1431.85841 1.76582
1429.80997 1.76447
1427.76154 1.76306
1425.71310 1.76104
1423.66466 1.76156
1421.61622 1.76242
1419.56778 1.76386
1417.51934 1.76907
1415.47091 1.77098
1413.42247 1.77041
1411.37403 1.77039
1409.32559 1.76855
1407.27715 1.76408
1405.22871 1.76168
1403.18028 1.76241
1401.13184 1.76148
1399.08340 1.75955
1397.03496 1.75790
1394.98652 1.75680
1392.93808 1.75733
1390.88965 1.75695
1388.84121 1.75641
1386.79277 1.75856
1384.74433 1.76043
1382.69589 1.76095
1380.64745 1.76325
1378.59901 1.76515
1376.55058 1.76307
1374.50214 1.75986
1372.45370 1.75774
1370.40526 1.75528
1368.35682 1.75408
1366.30838 1.75337
1364.25995 1.75109
1362.21151 1.74992
1360.16307 1.75014
1358.11463 1.74990
1356.06619 1.75018
1354.01775 1.75059
1351.96932 1.74968
1349.92088 1.74786
1347.87244 1.74649
1345.82400 1.74638
1343.77556 1.74600
1341.72712 1.74357
1339.67869 1.74116
1337.63025 1.74104
1335.58181 1.74198
1333.53337 1.74369
1331.48493 1.74535
1329.43649 1.74487
1327.38806 1.74305
1325.33962 1.74265
1323.29118 1.74388
1321.24274 1.74449
1319.19430 1.74412
1317.14586 1.74410
1315.09743 1.74430
1313.04899 1.74487
1311.00055 1.74592
1308.95211 1.74658
1306.90367 1.74670
1304.85523 1.74645
1302.80680 1.74624
1300.75836 1.74677
1298.70992 1.74789
1296.66148 1.74911
1294.61304 1.74952
1292.56460 1.74918
1290.51617 1.75006
1288.46773 1.75269
1286.41929 1.75476
1284.37085 1.75476
1282.32241 1.75424
1280.27397 1.75526
1278.22554 1.75760
1276.17710 1.75947
1274.12866 1.76039
1272.08022 1.76162
1270.03178 1.76462
1267.98334 1.77008
1265.93491 1.77582
1263.88647 1.77834
1261.83803 1.77747
1259.78959 1.77491
1257.74115 1.77193
1255.69271 1.76961
1253.64428 1.76776
1251.59584 1.76586
1249.54740 1.76418
1247.49896 1.76344
1245.45052 1.76386
1243.40208 1.76392
1241.35364 1.76216
1239.30521 1.76042
1237.25677 1.76115
1235.20833 1.76335
1233.15989 1.76464
1231.11145 1.76411
1229.06301 1.76337
1227.01458 1.76542
1224.96614 1.76936
1222.91770 1.76986
1220.86926 1.76612
1218.82082 1.76414
1216.77238 1.76709
1214.72395 1.77103
1212.67551 1.77129
1210.62707 1.76827
1208.57863 1.76674
1206.53019 1.76948
1204.48175 1.77340
1202.43332 1.77496
1200.38488 1.77464
1198.33644 1.77311
1196.28800 1.77072
1194.23956 1.76944
1192.19112 1.77018
1190.14269 1.77196
1188.09425 1.77282
1186.04581 1.77144
1183.99737 1.76966
1181.94893 1.77025
1179.90049 1.77267
1177.85206 1.77412
1175.80362 1.77305
1173.75518 1.77065
1171.70674 1.76948
1169.65830 1.77105
1167.60986 1.77306
1165.56143 1.77253
1163.51299 1.76999
1161.46455 1.76780
1159.41611 1.76784
1157.36767 1.76878
1155.31923 1.76836
1153.27080 1.76719
1151.22236 1.76624
1149.17392 1.76586
1147.12548 1.76728
1145.07704 1.77075
1143.02860 1.77300
1140.98017 1.77167
1138.93173 1.76993
1136.88329 1.77106
1134.83485 1.77345
1132.78641 1.77456
1130.73797 1.77478
1128.68954 1.77619
1126.64110 1.77985
1124.59266 1.78399
1122.54422 1.78580
1120.49578 1.78476
1118.44734 1.78356
1116.39891 1.78547
1114.35047 1.78957
1112.30203 1.79133
1110.25359 1.78904
1108.20515 1.78602
1106.15671 1.78553
1104.10827 1.78641
1102.05984 1.78655
1100.01140 1.78582
1097.96296 1.78454
1095.91452 1.78306
1093.86608 1.78223
1091.81764 1.78190
1089.76921 1.78070
1087.72077 1.77933
1085.67233 1.77892
1083.62389 1.77868
1081.57545 1.77784
1079.52701 1.77676
1077.47858 1.77740
1075.43014 1.77953
1073.38170 1.77961
1071.33326 1.77727
1069.28482 1.77635
1067.23638 1.77920
1065.18795 1.78345
1063.13951 1.78457
1061.09107 1.78180
1059.04263 1.78028
1056.99419 1.78427
1054.94575 1.79087
1052.89732 1.79384
1050.84888 1.79266
1048.80044 1.79193
1046.75200 1.79349
1044.70356 1.79570
1042.65512 1.79673
1040.60669 1.79589
1038.55825 1.79377
1036.50981 1.79161
1034.46137 1.79012
1032.41293 1.79019
1030.36449 1.79270
1028.31606 1.79516
1026.26762 1.79490
1024.21918 1.79352
1022.17074 1.79276
1020.12230 1.79187
1018.07386 1.79128
1016.02543 1.79221
1013.97699 1.79278
1011.92855 1.79070
1009.88011 1.78763
1007.83167 1.78665
1005.78323 1.78790
1003.73480 1.78770
1001.68636 1.78329
999.63792 1.77810
997.58948 1.77686
995.54104 1.77894
993.49260 1.77945
991.44417 1.77566
989.39573 1.77129
987.34729 1.77106
985.29885 1.77314
983.25041 1.77263
981.20197 1.76965
979.15354 1.76758
977.10510 1.76810
975.05666 1.77004
973.00822 1.77135
970.95978 1.77074
968.91134 1.76835
966.86290 1.76660
964.81447 1.76621
962.76603 1.76481
960.71759 1.76222
958.66915 1.76126
956.62071 1.76334
954.57227 1.76507
952.52384 1.76291
950.47540 1.76055
948.42696 1.76278
946.37852 1.76685
944.33008 1.76776
942.28164 1.76599
940.23321 1.76596
938.18477 1.76895
936.13633 1.77131
934.08789 1.77107
932.03945 1.77018
929.99101 1.76967
927.94258 1.76941
925.89414 1.76980
923.84570 1.77097
921.79726 1.77300
919.74882 1.77485
917.70038 1.77525
915.65195 1.77628
913.60351 1.77894
911.55507 1.78030
909.50663 1.77972
907.45819 1.77844
905.40975 1.77733
903.36132 1.77819
901.31288 1.78195
899.26444 1.78667
897.21600 1.78788
895.16756 1.78516
893.11912 1.78527
891.07069 1.79240
889.02225 1.80232
886.97381 1.80808
884.92537 1.80741
882.87693 1.80434
880.82849 1.80551
878.78006 1.81147
876.73162 1.81446
874.68318 1.81117
872.63474 1.80609
870.58630 1.80238
868.53786 1.80019
866.48943 1.79867
864.44099 1.79846
862.39255 1.80059
860.34411 1.80269
858.29567 1.80318
856.24723 1.80456
854.19880 1.80970
852.15036 1.81739
850.10192 1.82050
848.05348 1.81824
846.00504 1.81773
843.95660 1.81979
841.90817 1.82167
839.85973 1.82311
837.81129 1.82398
835.76285 1.82534
833.71441 1.83072
831.66597 1.83898
829.61753 1.84531
827.56910 1.84670
825.52066 1.84388
823.47222 1.84502
821.42378 1.85303
819.37534 1.85943
817.32690 1.85928
815.27847 1.85813
813.23003 1.86032
811.18159 1.86189
809.13315 1.86037
807.08471 1.86148
805.03627 1.86861
802.98784 1.87447
800.93940 1.87576
798.89096 1.88339
796.84252 1.90229
794.79408 1.92158
792.74564 1.93687
790.69721 1.95120
788.64877 1.95850
786.60033 1.95855
784.55189 1.96482
782.50345 1.98288
780.45501 2.00532
778.40658 2.02490
776.35814 2.03739
774.30970 2.04553
772.26126 2.05438
770.21282 2.06318
768.16438 2.07113
766.11595 2.07653
764.06751 2.08579
762.01907 2.10889
759.97063 2.13601
757.92219 2.15401
755.87375 2.17143
753.82532 2.19580
751.77688 2.21415
749.72844 2.21468
747.68000 2.20463
745.63156 2.20024
743.58312 2.20778
741.53469 2.22048
739.48625 2.23247
737.43781 2.23573
735.38937 2.23357
733.34093 2.23744
731.29249 2.24153
729.24406 2.24310
727.19562 2.24448
725.14718 2.24541
723.09874 2.24746
721.05030 2.25212
719.00186 2.26167
716.95343 2.27082
714.90499 2.28219
712.85655 2.30158
710.80811 2.31727
708.75967 2.32480
706.71123 2.32821
704.66280 2.32952
702.61436 2.32712
700.56592 2.31199
698.51748 2.30296
696.46904 2.32470
694.42060 2.34800
692.37216 2.32258
690.32373 2.27993
688.27529 2.27249
686.22685 2.27501
684.17841 2.25840
682.12997 2.24721
680.08153 2.24695
678.03310 2.24505
675.98466 2.24238
673.93622 2.24017
671.88778 2.23443
669.83934 2.22230
667.79090 2.22651
665.74247 2.26041
663.69403 2.28230
661.64559 2.27770
659.59715 2.25948
657.54871 2.25229
655.50027 2.27184
653.45184 2.28828
651.40340 2.27626
649.35496 2.29257
647.30652 2.32491
645.25808 2.30312
643.20964 2.27576
641.16121 2.28663
639.11277 2.29223
637.06433 2.27991
635.01589 2.27765
632.96745 2.25875
630.91901 2.21688
628.87058 2.17214
626.82214 2.13973
624.77370 2.15532
622.72526 2.18240
620.67682 2.14866
618.62838 2.14822
616.57995 2.22406
614.53151 2.23346
612.48307 2.18830
610.43463 2.16138
608.38619 2.14020
606.33775 2.15034
604.28932 2.15492
602.24088 2.11498
600.19244 2.09463
598.14400 2.09673
