3996.50324 0.84809
3994.45480 0.84761
3992.40636 0.84733
3990.35792 0.84707
3988.30948 0.84662
3986.26104 0.84579
3984.21261 0.84488
3982.16417 0.84422
3980.11573 0.84333
3978.06729 0.84178
3976.01885 0.84014
3973.97041 0.83898
3971.92198 0.83779
3969.87354 0.83631
3967.82510 0.83492
3965.77666 0.83350
3963.72822 0.83195
3961.67978 0.83072
3959.63135 0.82943
3957.58291 0.82789
3955.53447 0.82642
3953.48603 0.82462
3951.43759 0.82245
3949.38915 0.82106
3947.34072 0.82045
3945.29228 0.81880
3943.24384 0.81719
3941.19540 0.81682
3939.14696 0.81561
3937.09852 0.81313
3935.05009 0.81005
3933.00165 0.80800
3930.95321 0.80830
3928.90477 0.80805
3926.85633 0.80608
3924.80789 0.80494
3922.75946 0.80455
3920.71102 0.80287
3918.66258 0.80179
3916.61414 0.80300
3914.56570 0.80384
3912.51726 0.80294
3910.46883 0.80145
3908.42039 0.79891
3906.37195 0.79518
3904.32351 0.79358
3902.27507 0.79550
3900.22663 0.79838
3898.17820 0.80089
3896.12976 0.80036
3894.08132 0.79726
3892.03288 0.79693
3889.98444 0.79927
3887.93600 0.79804
3885.88756 0.79725
3883.83913 0.79915
3881.79069 0.79990
3879.74225 0.80335
3877.69381 0.80547
3875.64537 0.80373
3873.59693 0.80273
3871.54850 0.80324
3869.50006 0.80727
3867.45162 0.81025
3865.40318 0.81053
3863.35474 0.81494
3861.30630 0.81973
3859.25787 0.81969
3857.20943 0.81601
3855.16099 0.81271
3853.11255 0.82177
3851.06411 0.83347
3849.01567 0.83489
3846.96724 0.83338
3844.91880 0.83219
3842.87036 0.83219
3840.82192 0.83268
3838.77348 0.83629
3836.72504 0.84362
3834.67661 0.84743
3832.62817 0.84890
3830.57973 0.85052
3828.53129 0.85098
3826.48285 0.85147
3824.43441 0.85053
3822.38598 0.84865
3820.33754 0.85333
3818.28910 0.85735
3816.24066 0.86034
3814.19222 0.86559
3812.14378 0.86594
3810.09535 0.86288
3808.04691 0.86191
3805.99847 0.86476
3803.95003 0.86453
3801.90159 0.86589
3799.85315 0.87253
3797.80472 0.87529
3795.75628 0.87767
3793.70784 0.88013
3791.65940 0.88101
3789.61096 0.88184
3787.56252 0.88250
3785.51409 0.88419
3783.46565 0.88682
3781.41721 0.88814
3779.36877 0.89109
3777.32033 0.89532
3775.27189 0.89658
3773.22346 0.89562
3771.17502 0.89532
3769.12658 0.89792
3767.07814 0.90053
3765.02970 0.90244
3762.98126 0.90266
3760.93283 0.90086
3758.88439 0.90188
3756.83595 0.90402
3754.78751 0.90187
3752.73907 0.89820
3750.69063 0.90163
3748.64219 0.90739
3746.59376 0.90658
3744.54532 0.90983
3742.49688 0.91590
3740.44844 0.91399
3738.40000 0.90889
3736.35156 0.90745
3734.30313 0.91365
3732.25469 0.91995
3730.20625 0.92064
3728.15781 0.91827
3726.10937 0.91735
3724.06093 0.91924
3722.01250 0.92159
3719.96406 0.92346
3717.91562 0.92352
3715.86718 0.92051
3713.81874 0.91536
3711.77030 0.91475
3709.72187 0.92080
3707.67343 0.92260
3705.62499 0.91951
3703.57655 0.91606
3701.52811 0.91629
3699.47967 0.91745
3697.43124 0.91581
3695.38280 0.91263
3693.33436 0.90812
3691.28592 0.90350
3689.23748 0.90470
3687.18904 0.90831
3685.14061 0.90642
3683.09217 0.90166
3681.04373 0.89671
3678.99529 0.89128
3676.94685 0.88647
3674.89841 0.88785
3672.84998 0.88722
3670.80154 0.88322
3668.75310 0.88408
3666.70466 0.88372
3664.65622 0.87984
3662.60778 0.87610
3660.55935 0.87257
3658.51091 0.86827
3656.46247 0.86566
3654.41403 0.86364
3652.36559 0.85739
3650.31715 0.85099
3648.26872 0.85434
3646.22028 0.85791
3644.17184 0.85546
3642.12340 0.85165
3640.07496 0.84870
3638.02652 0.84592
3635.97809 0.84278
3633.92965 0.83907
3631.88121 0.83393
3629.83277 0.83028
3627.78433 0.83333
3625.73589 0.83400
3623.68746 0.82991
3621.63902 0.82497
3619.59058 0.82252
3617.54214 0.82273
3615.49370 0.82088
3613.44526 0.81853
3611.39682 0.81720
3609.34839 0.81627
3607.29995 0.81715
3605.25151 0.81746
3603.20307 0.81542
3601.15463 0.81363
3599.10619 0.81319
3597.05776 0.81243
3595.00932 0.81215
3592.96088 0.81237
3590.91244 0.81019
3588.86400 0.80749
3586.81556 0.80963
3584.76713 0.81222
3582.71869 0.81146
3580.67025 0.81037
3578.62181 0.81003
3576.57337 0.80981
3574.52493 0.80947
3572.47650 0.80854
3570.42806 0.80622
3568.37962 0.80452
3566.33118 0.80753
3564.28274 0.81103
3562.23430 0.81137
3560.18587 0.81118
3558.13743 0.81132
3556.08899 0.81090
3554.04055 0.81049
3551.99211 0.81130
3549.94367 0.81170
3547.89524 0.81090
3545.84680 0.81170
3543.79836 0.81415
3541.74992 0.81561
3539.70148 0.81589
3537.65304 0.81641
3535.60461 0.81776
3533.55617 0.81846
3531.50773 0.81814
3529.45929 0.81860
3527.41085 0.82051
3525.36241 0.82254
3523.31398 0.82444
3521.26554 0.82611
3519.21710 0.82719
3517.16866 0.82833
3515.12022 0.82974
3513.07178 0.83093
3511.02335 0.83232
3508.97491 0.83447
3506.92647 0.83604
3504.87803 0.83683
3502.82959 0.83885
3500.78115 0.84136
3498.73272 0.84256
3496.68428 0.84362
3494.63584 0.84558
3492.58740 0.84755
3490.53896 0.84903
3488.49052 0.85065
3486.44209 0.85247
3484.39365 0.85413
3482.34521 0.85631
3480.29677 0.85915
3478.24833 0.86154
3476.19989 0.86368
3474.15146 0.86618
3472.10302 0.86872
3470.05458 0.87110
3468.00614 0.87361
3465.95770 0.87638
3463.90926 0.87922
3461.86082 0.88208
3459.81239 0.88493
3457.76395 0.88770
3455.71551 0.89051
3453.66707 0.89325
3451.61863 0.89578
3449.57019 0.89792
3447.52176 0.90045
3445.47332 0.90365
3443.42488 0.90666
3441.37644 0.90966
3439.32800 0.91272
3437.27956 0.91578
3435.23113 0.91877
3433.18269 0.92148
3431.13425 0.92418
3429.08581 0.92682
3427.03737 0.92917
3424.98893 0.93138
3422.94050 0.93367
3420.89206 0.93633
3418.84362 0.93934
3416.79518 0.94173
3414.74674 0.94346
3412.69830 0.94544
3410.64987 0.94774
3408.60143 0.95003
3406.55299 0.95196
3404.50455 0.95340
3402.45611 0.95467
3400.40767 0.95589
3398.35924 0.95704
3396.31080 0.95816
3394.26236 0.95918
3392.21392 0.96024
3390.16548 0.96115
3388.11704 0.96165
3386.06861 0.96213
3384.02017 0.96271
3381.97173 0.96296
3379.92329 0.96267
3377.87485 0.96217
3375.82641 0.96181
3373.77798 0.96156
3371.72954 0.96107
3369.68110 0.96008
3367.63266 0.95890
3365.58422 0.95795
3363.53578 0.95711
3361.48735 0.95609
3359.43891 0.95462
3357.39047 0.95286
3355.34203 0.95158
3353.29359 0.95070
3351.24515 0.94955
3349.19672 0.94815
3347.14828 0.94658
3345.09984 0.94480
3343.05140 0.94296
3341.00296 0.94115
3338.95452 0.93936
3336.90609 0.93754
3334.85765 0.93568
3332.80921 0.93375
3330.76077 0.93163
3328.71233 0.92924
3326.66389 0.92684
3324.61545 0.92469
3322.56702 0.92267
3320.51858 0.92057
3318.47014 0.91836
3316.42170 0.91609
3314.37326 0.91399
3312.32482 0.91199
3310.27639 0.90969
3308.22795 0.90713
3306.17951 0.90456
3304.13107 0.90190
3302.08263 0.89920
3300.03419 0.89660
3297.98576 0.89412
3295.93732 0.89166
3293.88888 0.88934
3291.84044 0.88729
3289.79200 0.88510
3287.74356 0.88250
3285.69513 0.87996
3283.64669 0.87786
3281.59825 0.87595
3279.54981 0.87396
3277.50137 0.87203
3275.45293 0.87027
3273.40450 0.86854
3271.35606 0.86673
3269.30762 0.86505
3267.25918 0.86379
3265.21074 0.86295
3263.16230 0.86219
3261.11387 0.86113
3259.06543 0.85978
3257.01699 0.85818
3254.96855 0.85657
3252.92011 0.85529
3250.87167 0.85385
3248.82324 0.85186
3246.77480 0.84983
3244.72636 0.84837
3242.67792 0.84708
3240.62948 0.84539
3238.58104 0.84367
3236.53261 0.84209
3234.48417 0.84025
3232.43573 0.83840
3230.38729 0.83696
3228.33885 0.83576
3226.29041 0.83455
3224.24198 0.83328
3222.19354 0.83192
3220.14510 0.83045
3218.09666 0.82891
3216.04822 0.82739
3213.99978 0.82616
3211.95135 0.82531
3209.90291 0.82461
3207.85447 0.82385
3205.80603 0.82280
3203.75759 0.82166
3201.70915 0.82073
3199.66072 0.82008
3197.61228 0.81973
3195.56384 0.81919
3193.51540 0.81822
3191.46696 0.81727
3189.41852 0.81671
3187.37008 0.81648
3185.32165 0.81653
3183.27321 0.81678
3181.22477 0.81696
3179.17633 0.81712
3177.12789 0.81754
3175.07945 0.81810
3173.03102 0.81859
3170.98258 0.81896
3168.93414 0.81920
3166.88570 0.81946
3164.83726 0.82000
3162.78882 0.82092
3160.74039 0.82197
3158.69195 0.82297
3156.64351 0.82397
3154.59507 0.82518
3152.54663 0.82666
3150.49819 0.82830
3148.44976 0.83008
3146.40132 0.83202
3144.35288 0.83408
3142.30444 0.83643
3140.25600 0.83894
3138.20756 0.84107
3136.15913 0.84298
3134.11069 0.84539
3132.06225 0.84840
3130.01381 0.85150
3127.96537 0.85419
3125.91693 0.85650
3123.86850 0.85903
3121.82006 0.86195
3119.77162 0.86484
3117.72318 0.86773
3115.67474 0.87075
3113.62630 0.87366
3111.57787 0.87656
3109.52943 0.87947
3107.48099 0.88226
3105.43255 0.88500
3103.38411 0.88781
3101.33567 0.89087
3099.28724 0.89419
3097.23880 0.89766
3095.19036 0.90151
3093.14192 0.90556
3091.09348 0.90934
3089.04504 0.91272
3086.99661 0.91582
3084.94817 0.91897
3082.89973 0.92228
3080.85129 0.92566
3078.80285 0.92915
3076.75441 0.93273
3074.70598 0.93610
3072.65754 0.93908
3070.60910 0.94196
3068.56066 0.94500
3066.51222 0.94806
3064.46378 0.95101
3062.41535 0.95383
3060.36691 0.95634
3058.31847 0.95830
3056.27003 0.95981
3054.22159 0.96114
3052.17315 0.96227
3050.12471 0.96333
3048.07628 0.96433
3046.02784 0.96504
3043.97940 0.96539
3041.93096 0.96535
3039.88252 0.96499
3037.83408 0.96452
3035.78565 0.96404
3033.73721 0.96346
3031.68877 0.96282
3029.64033 0.96214
3027.59189 0.96123
3025.54345 0.96044
3023.49502 0.95986
3021.44658 0.95923
3019.39814 0.95878
3017.34970 0.95844
3015.30126 0.95781
3013.25282 0.95696
3011.20439 0.95607
3009.15595 0.95504
3007.10751 0.95379
3005.05907 0.95256
3003.01063 0.95144
3000.96219 0.95039
2998.91376 0.94938
2996.86532 0.94827
2994.81688 0.94693
2992.76844 0.94534
2990.72000 0.94355
2988.67156 0.94195
2986.62313 0.94082
2984.57469 0.93982
2982.52625 0.93861
2980.47781 0.93742
2978.42937 0.93651
2976.38093 0.93574
2974.33250 0.93499
2972.28406 0.93433
2970.23562 0.93378
2968.18718 0.93319
2966.13874 0.93234
2964.09030 0.93129
2962.04187 0.93015
2959.99343 0.92890
2957.94499 0.92728
2955.89655 0.92507
2953.84811 0.92234
2951.79967 0.91915
2949.75124 0.91576
2947.70280 0.91266
2945.65436 0.91001
2943.60592 0.90797
2941.55748 0.90659
2939.50904 0.90534
2937.46061 0.90374
2935.41217 0.90203
2933.36373 0.90073
2931.31529 0.89980
2929.26685 0.89896
2927.21841 0.89796
2925.16998 0.89644
2923.12154 0.89434
2921.07310 0.89196
2919.02466 0.88941
2916.97622 0.88635
2914.92778 0.88244
2912.87934 0.87795
2910.83091 0.87370
2908.78247 0.87024
2906.73403 0.86740
2904.68559 0.86476
2902.63715 0.86215
2900.58871 0.85977
2898.54028 0.85756
2896.49184 0.85523
2894.44340 0.85282
2892.39496 0.85045
2890.34652 0.84818
2888.29808 0.84612
2886.24965 0.84407
2884.20121 0.84186
2882.15277 0.83988
2880.10433 0.83823
2878.05589 0.83654
2876.00745 0.83480
2873.95902 0.83334
2871.91058 0.83205
2869.86214 0.83068
2867.81370 0.82936
2865.76526 0.82832
2863.71682 0.82755
2861.66839 0.82701
2859.61995 0.82678
2857.57151 0.82680
2855.52307 0.82708
2853.47463 0.82741
2851.42619 0.82716
2849.37776 0.82584
2847.32932 0.82362
2845.28088 0.82114
2843.23244 0.81893
2841.18400 0.81716
2839.13556 0.81576
2837.08713 0.81476
2835.03869 0.81424
2832.99025 0.81385
2830.94181 0.81347
2828.89337 0.81346
2826.84493 0.81380
2824.79650 0.81434
2822.74806 0.81509
2820.69962 0.81600
2818.65118 0.81708
2816.60274 0.81832
2814.55430 0.81964
2812.50587 0.82107
2810.45743 0.82264
2808.40899 0.82422
2806.36055 0.82589
2804.31211 0.82769
2802.26367 0.82942
2800.21524 0.83118
2798.16680 0.83302
2796.11836 0.83470
2794.06992 0.83621
2792.02148 0.83771
2789.97304 0.83927
2787.92461 0.84097
2785.87617 0.84275
2783.82773 0.84442
2781.77929 0.84593
2779.73085 0.84760
2777.68241 0.84956
2775.63397 0.85169
2773.58554 0.85383
2771.53710 0.85595
2769.48866 0.85831
2767.44022 0.86092
2765.39178 0.86331
2763.34334 0.86556
2761.29491 0.86816
2759.24647 0.87095
2757.19803 0.87362
2755.14959 0.87619
2753.10115 0.87868
2751.05271 0.88092
2749.00428 0.88285
2746.95584 0.88460
2744.90740 0.88638
2742.85896 0.88833
2740.81052 0.89038
2738.76208 0.89242
2736.71365 0.89440
2734.66521 0.89621
2732.61677 0.89792
2730.56833 0.89980
2728.51989 0.90168
2726.47145 0.90325
2724.42302 0.90469
2722.37458 0.90625
2720.32614 0.90801
2718.27770 0.90993
2716.22926 0.91186
2714.18082 0.91386
2712.13239 0.91607
2710.08395 0.91832
2708.03551 0.92033
2705.98707 0.92196
2703.93863 0.92329
2701.89019 0.92469
2699.84176 0.92631
2697.79332 0.92765
2695.74488 0.92833
2693.69644 0.92886
2691.64800 0.92970
2689.59956 0.93054
2687.55113 0.93094
2685.50269 0.93076
2683.45425 0.93039
2681.40581 0.93023
2679.35737 0.93026
2677.30893 0.93029
2675.26050 0.93030
2673.21206 0.93044
2671.16362 0.93078
2669.11518 0.93128
2667.06674 0.93175
2665.01830 0.93212
2662.96987 0.93249
2660.92143 0.93277
2658.87299 0.93291
2656.82455 0.93297
2654.77611 0.93294
2652.72767 0.93296
2650.67924 0.93323
2648.63080 0.93351
2646.58236 0.93355
2644.53392 0.93344
2642.48548 0.93330
2640.43704 0.93306
2638.38860 0.93245
2636.34017 0.93151
2634.29173 0.93062
2632.24329 0.92967
2630.19485 0.92836
2628.14641 0.92685
2626.09797 0.92505
2624.04954 0.92264
2622.00110 0.91980
2619.95266 0.91687
2617.90422 0.91399
2615.85578 0.91119
2613.80734 0.90856
2611.75891 0.90608
2609.71047 0.90351
2607.66203 0.90096
2605.61359 0.89866
2603.56515 0.89629
2601.51671 0.89353
2599.46828 0.89061
2597.41984 0.88756
2595.37140 0.88406
2593.32296 0.88031
2591.27452 0.87682
2589.22608 0.87372
2587.17765 0.87073
2585.12921 0.86776
2583.08077 0.86503
2581.03233 0.86236
2578.98389 0.85947
2576.93545 0.85656
2574.88702 0.85383
2572.83858 0.85138
2570.79014 0.84919
2568.74170 0.84694
2566.69326 0.84456
2564.64482 0.84222
2562.59639 0.83988
2560.54795 0.83750
2558.49951 0.83522
2556.45107 0.83322
2554.40263 0.83149
2552.35419 0.82980
2550.30576 0.82791
2548.25732 0.82577
2546.20888 0.82356
2544.16044 0.82164
2542.11200 0.82008
2540.06356 0.81870
2538.01513 0.81745
2535.96669 0.81630
2533.91825 0.81515
2531.86981 0.81407
2529.82137 0.81330
2527.77293 0.81278
2525.72450 0.81210
2523.67606 0.81124
2521.62762 0.81060
2519.57918 0.81038
2517.53074 0.81048
2515.48230 0.81067
2513.43387 0.81079
2511.38543 0.81088
2509.33699 0.81109
2507.28855 0.81132
2505.24011 0.81147
2503.19167 0.81154
2501.14324 0.81159
2499.09480 0.81182
2497.04636 0.81236
2494.99792 0.81314
2492.94948 0.81411
2490.90104 0.81509
2488.85260 0.81599
2486.80417 0.81693
2484.75573 0.81791
2482.70729 0.81879
2480.65885 0.81972
2478.61041 0.82097
2476.56197 0.82251
2474.51354 0.82409
2472.46510 0.82577
2470.41666 0.82753
2468.36822 0.82927
2466.31978 0.83116
2464.27134 0.83347
2462.22291 0.83613
2460.17447 0.83872
2458.12603 0.84084
2456.07759 0.84276
2454.02915 0.84483
2451.98071 0.84682
2449.93228 0.84852
2447.88384 0.85010
2445.83540 0.85161
2443.78696 0.85286
2441.73852 0.85419
2439.69008 0.85629
2437.64165 0.85910
2435.59321 0.86215
2433.54477 0.86536
2431.49633 0.86873
2429.44789 0.87182
2427.39945 0.87373
2425.35102 0.87371
2423.30258 0.87201
2421.25414 0.86947
2419.20570 0.86693
2417.15726 0.86477
2415.10882 0.86287
2413.06039 0.86130
2411.01195 0.86003
2408.96351 0.85878
2406.91507 0.85762
2404.86663 0.85699
2402.81819 0.85690
2400.76976 0.85687
2398.72132 0.85684
2396.67288 0.85717
2394.62444 0.85794
2392.57600 0.85897
2390.52756 0.86004
2388.47913 0.86095
2386.43069 0.86175
2384.38225 0.86248
2382.33381 0.86298
2380.28537 0.86320
2378.23693 0.86331
2376.18850 0.86349
2374.14006 0.86386
2372.09162 0.86459
2370.04318 0.86592
2367.99474 0.86764
2365.94630 0.86926
2363.89787 0.87054
2361.84943 0.87119
2359.80099 0.87219
2357.75255 0.87517
2355.70411 0.88017
2353.65567 0.88594
2351.60723 0.88993
2349.55880 0.89028
2347.51036 0.88849
2345.46192 0.88782
2343.41348 0.88998
2341.36504 0.89240
2339.31660 0.89351
2337.26817 0.89412
2335.21973 0.89487
2333.17129 0.89555
2331.12285 0.89657
2329.07441 0.89798
2327.02597 0.89920
2324.97754 0.90022
2322.92910 0.90112
2320.88066 0.90197
2318.83222 0.90272
2316.78378 0.90320
2314.73534 0.90352
2312.68691 0.90379
2310.63847 0.90406
2308.59003 0.90462
2306.54159 0.90537
2304.49315 0.90592
2302.44471 0.90624
2300.39628 0.90611
2298.34784 0.90541
2296.29940 0.90467
2294.25096 0.90416
2292.20252 0.90375
2290.15408 0.90357
2288.10565 0.90372
2286.05721 0.90398
2284.00877 0.90425
2281.96033 0.90463
2279.91189 0.90481
2277.86345 0.90438
2275.81502 0.90359
2273.76658 0.90296
2271.71814 0.90256
2269.66970 0.90229
2267.62126 0.90201
2265.57282 0.90139
2263.52439 0.90053
2261.47595 0.89976
2259.42751 0.89916
2257.37907 0.89866
2255.33063 0.89778
2253.28219 0.89624
2251.23376 0.89457
2249.18532 0.89302
2247.13688 0.89119
2245.08844 0.88894
2243.04000 0.88624
2240.99156 0.88329
2238.94313 0.88048
2236.89469 0.87772
2234.84625 0.87491
2232.79781 0.87230
2230.74937 0.86992
2228.70093 0.86754
2226.65250 0.86504
2224.60406 0.86229
2222.55562 0.85921
2220.50718 0.85601
2218.45874 0.85313
2216.41030 0.85066
2214.36186 0.84846
2212.31343 0.84636
2210.26499 0.84423
2208.21655 0.84218
2206.16811 0.84028
2204.11967 0.83871
2202.07123 0.83767
2200.02280 0.83709
2197.97436 0.83673
2195.92592 0.83627
2193.87748 0.83559
2191.82904 0.83489
2189.78060 0.83447
2187.73217 0.83452
2185.68373 0.83487
2183.63529 0.83526
2181.58685 0.83542
2179.53841 0.83521
2177.48997 0.83502
2175.44154 0.83499
2173.39310 0.83475
2171.34466 0.83404
2169.29622 0.83288
2167.24778 0.83156
2165.19934 0.83024
2163.15091 0.82886
2161.10247 0.82739
2159.05403 0.82590
2157.00559 0.82450
2154.95715 0.82331
2152.90871 0.82245
2150.86028 0.82189
2148.81184 0.82143
2146.76340 0.82104
2144.71496 0.82091
2142.66652 0.82129
2140.61808 0.82207
2138.56965 0.82277
2136.52121 0.82322
2134.47277 0.82374
2132.42433 0.82463
2130.37589 0.82577
2128.32745 0.82668
2126.27902 0.82736
2124.23058 0.82809
2122.18214 0.82895
2120.13370 0.82975
2118.08526 0.83029
2116.03682 0.83079
2113.98839 0.83156
2111.93995 0.83234
2109.89151 0.83291
2107.84307 0.83369
2105.79463 0.83495
2103.74619 0.83639
2101.69776 0.83783
2099.64932 0.83939
2097.60088 0.84110
2095.55244 0.84283
2093.50400 0.84453
2091.45556 0.84626
2089.40713 0.84804
2087.35869 0.84964
2085.31025 0.85107
2083.26181 0.85256
2081.21337 0.85423
2079.16493 0.85585
2077.11649 0.85714
2075.06806 0.85830
2073.01962 0.85945
2070.97118 0.86027
2068.92274 0.86071
2066.87430 0.86112
2064.82586 0.86193
2062.77743 0.86325
2060.72899 0.86509
2058.68055 0.86743
2056.63211 0.86994
2054.58367 0.87229
2052.53523 0.87445
2050.48680 0.87650
2048.43836 0.87855
2046.38992 0.88075
2044.34148 0.88309
2042.29304 0.88562
2040.24460 0.88851
2038.19617 0.89138
2036.14773 0.89379
2034.09929 0.89585
2032.05085 0.89769
2030.00241 0.89926
2027.95397 0.90048
2025.90554 0.90148
2023.85710 0.90248
2021.80866 0.90311
2019.76022 0.90288
2017.71178 0.90220
2015.66334 0.90158
2013.61491 0.90082
2011.56647 0.89996
2009.51803 0.89920
2007.46959 0.89830
2005.42115 0.89710
2003.37271 0.89564
2001.32428 0.89394
1999.27584 0.89204
1997.22740 0.89003
1995.17896 0.88778
1993.13052 0.88578
1991.08208 0.88492
1989.03365 0.88453
1986.98521 0.88393
1984.93677 0.88338
1982.88833 0.88302
1980.83989 0.88280
1978.79145 0.88241
1976.74302 0.88174
1974.69458 0.88111
1972.64614 0.88088
1970.59770 0.88065
1968.54926 0.87995
1966.50082 0.87914
1964.45239 0.87848
1962.40395 0.87818
1960.35551 0.87839
1958.30707 0.87895
1956.25863 0.88003
1954.21019 0.88188
1952.16176 0.88403
1950.11332 0.88605
1948.06488 0.88802
1946.01644 0.88982
1943.96800 0.89183
1941.91956 0.89523
1939.87112 0.89886
1937.82269 0.90107
1935.77425 0.90235
1933.72581 0.90320
1931.67737 0.90356
1929.62893 0.90357
1927.58049 0.90331
1925.53206 0.90259
1923.48362 0.90214
1921.43518 0.90217
1919.38674 0.90162
1917.33830 0.90113
1915.28986 0.90069
1913.24143 0.89955
1911.19299 0.89824
1909.14455 0.89736
1907.09611 0.89694
1905.04767 0.89654
1902.99923 0.89607
1900.95080 0.89535
1898.90236 0.89413
1896.85392 0.89281
1894.80548 0.89193
1892.75704 0.89085
1890.70860 0.88960
1888.66017 0.88946
1886.61173 0.88935
1884.56329 0.88845
1882.51485 0.88733
1880.46641 0.88592
1878.41797 0.88453
1876.36954 0.88352
1874.32110 0.88223
1872.27266 0.87975
1870.22422 0.87706
1868.17578 0.87724
1866.12734 0.87921
1864.07891 0.87943
1862.03047 0.87847
1859.98203 0.87767
1857.93359 0.87718
1855.88515 0.87684
1853.83671 0.87676
1851.78828 0.87648
1849.73984 0.87529
1847.69140 0.87291
1845.64296 0.87022
1843.59452 0.86977
1841.54608 0.86993
1839.49765 0.86809
1837.44921 0.86573
1835.40077 0.86375
1833.35233 0.86090
1831.30389 0.85738
1829.25545 0.85548
1827.20702 0.85473
1825.15858 0.85437
1823.11014 0.85494
1821.06170 0.85510
1819.01326 0.85511
1816.96482 0.85607
1814.91639 0.85762
1812.86795 0.85937
1810.81951 0.86230
1808.77107 0.86601
1806.72263 0.86894
1804.67419 0.87083
1802.62575 0.87247
1800.57732 0.87530
1798.52888 0.87838
1796.48044 0.87974
1794.43200 0.88011
1792.38356 0.88301
1790.33512 0.88835
1788.28669 0.89108
1786.23825 0.89222
1784.18981 0.89401
1782.14137 0.89590
1780.09293 0.89791
1778.04449 0.89902
1775.99606 0.89754
1773.94762 0.89554
1771.89918 0.89770
1769.85074 0.90190
1767.80230 0.90389
1765.75386 0.90393
1763.70543 0.90263
1761.65699 0.90283
1759.60855 0.90408
1757.56011 0.90458
1755.51167 0.90494
1753.46323 0.90343
1751.41480 0.90106
1749.36636 0.90165
1747.31792 0.90404
1745.26948 0.90547
1743.22104 0.90627
1741.17260 0.90725
1739.12417 0.90847
1737.07573 0.90737
1735.02729 0.90544
1732.97885 0.90900
1730.93041 0.91300
1728.88197 0.91388
1726.83354 0.91328
1724.78510 0.91205
1722.73666 0.91073
1720.68822 0.90799
1718.63978 0.90475
1716.59134 0.90640
1714.54291 0.91071
1712.49447 0.91203
1710.44603 0.91112
1708.39759 0.90919
1706.34915 0.90810
1704.30071 0.90738
1702.25228 0.90439
1700.20384 0.90212
1698.15540 0.90325
1696.10696 0.90518
1694.05852 0.90676
1692.01008 0.90553
1689.96165 0.90339
1687.91321 0.90123
1685.86477 0.89824
1683.81633 0.89980
1681.76789 0.90388
1679.71945 0.90373
1677.67102 0.90190
1675.62258 0.90139
1673.57414 0.90231
1671.52570 0.90196
1669.47726 0.90386
1667.42882 0.90737
1665.38038 0.90741
1663.33195 0.90728
1661.28351 0.90942
1659.23507 0.90986
1657.18663 0.90688
1655.13819 0.90191
1653.08975 0.90382
1651.04132 0.90987
1648.99288 0.90836
1646.94444 0.90883
1644.89600 0.91389
1642.84756 0.91525
1640.79912 0.91381
1638.75069 0.91102
1636.70225 0.91019
1634.65381 0.91587
1632.60537 0.91879
1630.55693 0.91780
1628.50849 0.91718
1626.46006 0.91755
1624.41162 0.91867
1622.36318 0.92186
1620.31474 0.92330
1618.26630 0.92275
1616.21786 0.92611
1614.16943 0.93009
1612.12099 0.93045
1610.07255 0.93054
1608.02411 0.93225
1605.97567 0.93413
1603.92723 0.93492
1601.87880 0.93541
1599.83036 0.93607
1597.78192 0.93630
1595.73348 0.93598
1593.68504 0.93560
1591.63660 0.93539
1589.58817 0.93541
1587.53973 0.93540
1585.49129 0.93508
1583.44285 0.93490
1581.39441 0.93451
1579.34597 0.93237
1577.29754 0.92997
1575.24910 0.93154
1573.20066 0.93202
1571.15222 0.92979
1569.10378 0.92922
1567.05534 0.92915
1565.00691 0.92725
1562.95847 0.92382
1560.91003 0.91807
1558.86159 0.91721
1556.81315 0.92535
1554.76471 0.92824
1552.71628 0.92895
1550.66784 0.92860
1548.61940 0.92742
1546.57096 0.92463
1544.52252 0.92049
1542.47408 0.91653
1540.42565 0.91703
1538.37721 0.92116
1536.32877 0.91979
1534.28033 0.91700
1532.23189 0.91711
1530.18345 0.91664
1528.13501 0.91447
1526.08658 0.91291
1524.03814 0.91104
1521.98970 0.90994
1519.94126 0.91128
1517.89282 0.91193
1515.84438 0.91307
1513.79595 0.91342
1511.74751 0.91097
1509.69907 0.90610
1507.65063 0.90343
1505.60219 0.91037
1503.55375 0.91259
1501.50532 0.91015
1499.45688 0.90762
1497.40844 0.90775
1495.36000 0.90921
1493.31156 0.90758
1491.26312 0.90431
1489.21469 0.90462
1487.16625 0.90805
1485.11781 0.90899
1483.06937 0.90787
1481.02093 0.90660
1478.97249 0.90522
1476.92406 0.90303
1474.87562 0.90130
1472.82718 0.90399
1470.77874 0.90930
1468.73030 0.91050
1466.68186 0.90948
1464.63343 0.91011
1462.58499 0.91116
1460.53655 0.90933
1458.48811 0.90690
1456.43967 0.91061
1454.39123 0.91421
1452.34280 0.91355
1450.29436 0.91191
1448.24592 0.91187
1446.19748 0.91397
1444.14904 0.91572
1442.10060 0.91601
1440.05217 0.91482
1438.00373 0.91377
1435.95529 0.91632
1433.90685 0.91939
1431.85841 0.92079
1429.80997 0.92348
1427.76154 0.92659
1425.71310 0.92822
1423.66466 0.92977
1421.61622 0.93098
1419.56778 0.93309
1417.51934 0.93919
1415.47091 0.94448
1413.42247 0.94775
1411.37403 0.95138
1409.32559 0.95546
1407.27715 0.95876
1405.22871 0.96214
1403.18028 0.96511
1401.13184 0.96655
1399.08340 0.96927
1397.03496 0.97416
1394.98652 0.97967
1392.93808 0.98420
1390.88965 0.98606
1388.84121 0.98749
1386.79277 0.99103
1384.74433 0.99416
1382.69589 0.99506
1380.64745 0.99505
1378.59901 0.99452
1376.55058 0.99312
1374.50214 0.99205
1372.45370 0.99181
1370.40526 0.99079
1368.35682 0.98902
1366.30838 0.98628
1364.25995 0.98251
1362.21151 0.97937
1360.16307 0.97717
1358.11463 0.97489
1356.06619 0.97328
1354.01775 0.97250
1351.96932 0.97150
1349.92088 0.96980
1347.87244 0.96707
1345.82400 0.96314
1343.77556 0.95842
1341.72712 0.95366
1339.67869 0.95013
1337.63025 0.94721
1335.58181 0.94231
1333.53337 0.93621
1331.48493 0.93097
1329.43649 0.92722
1327.38806 0.92465
1325.33962 0.92264
1323.29118 0.92082
1321.24274 0.91930
1319.19430 0.91849
1317.14586 0.91784
1315.09743 0.91637
1313.04899 0.91486
1311.00055 0.91428
1308.95211 0.91398
1306.90367 0.91373
1304.85523 0.91429
1302.80680 0.91583
1300.75836 0.91748
1298.70992 0.91829
1296.66148 0.91803
1294.61304 0.91760
1292.56460 0.91805
1290.51617 0.91942
1288.46773 0.92127
1286.41929 0.92332
1284.37085 0.92495
1282.32241 0.92555
1280.27397 0.92558
1278.22554 0.92566
1276.17710 0.92592
1274.12866 0.92642
1272.08022 0.92745
1270.03178 0.92958
1267.98334 0.93298
1265.93491 0.93704
1263.88647 0.94074
1261.83803 0.94310
1259.78959 0.94421
1257.74115 0.94524
1255.69271 0.94660
1253.64428 0.94732
1251.59584 0.94700
1249.54740 0.94699
1247.49896 0.94846
1245.45052 0.95084
1243.40208 0.95242
1241.35364 0.95231
1239.30521 0.95161
1237.25677 0.95168
1235.20833 0.95265
1233.15989 0.95382
1231.11145 0.95381
1229.06301 0.95188
1227.01458 0.94905
1224.96614 0.94653
1222.91770 0.94444
1220.86926 0.94240
1218.82082 0.94066
1216.77238 0.93965
1214.72395 0.93903
1212.67551 0.93794
1210.62707 0.93598
1208.57863 0.93398
1206.53019 0.93262
1204.48175 0.93112
1202.43332 0.92897
1200.38488 0.92687
1198.33644 0.92548
1196.28800 0.92436
1194.23956 0.92291
1192.19112 0.92140
1190.14269 0.92013
1188.09425 0.91894
1186.04581 0.91789
1183.99737 0.91715
1181.94893 0.91657
1179.90049 0.91600
1177.85206 0.91565
1175.80362 0.91582
1173.75518 0.91666
1171.70674 0.91865
1169.65830 0.92213
1167.60986 0.92595
1165.56143 0.92879
1163.51299 0.93108
1161.46455 0.93432
1159.41611 0.93896
1157.36767 0.94379
1155.31923 0.94744
1153.27080 0.94949
1151.22236 0.95058
1149.17392 0.95214
1147.12548 0.95414
1145.07704 0.95483
1143.02860 0.95398
1140.98017 0.95311
1138.93173 0.95278
1136.88329 0.95296
1134.83485 0.95405
1132.78641 0.95563
1130.73797 0.95722
1128.68954 0.95917
1126.64110 0.96140
1124.59266 0.96373
1122.54422 0.96623
1120.49578 0.96862
1118.44734 0.97090
1116.39891 0.97442
1114.35047 0.97973
1112.30203 0.98505
1110.25359 0.98860
1108.20515 0.99039
1106.15671 0.99183
1104.10827 0.99390
1102.05984 0.99636
1100.01140 0.99913
1097.96296 1.00214
1095.91452 1.00452
1093.86608 1.00589
1091.81764 1.00709
1089.76921 1.00932
1087.72077 1.01263
1085.67233 1.01571
1083.62389 1.01738
1081.57545 1.01779
1079.52701 1.01781
1077.47858 1.01789
1075.43014 1.01781
1073.38170 1.01677
1071.33326 1.01442
1069.28482 1.01139
1067.23638 1.00795
1065.18795 1.00344
1063.13951 0.99774
1061.09107 0.99225
1059.04263 0.98816
1056.99419 0.98503
1054.94575 0.98211
1052.89732 0.97940
1050.84888 0.97700
1048.80044 0.97519
1046.75200 0.97443
1044.70356 0.97441
1042.65512 0.97465
1040.60669 0.97477
1038.55825 0.97354
1036.50981 0.97052
1034.46137 0.96700
1032.41293 0.96380
1030.36449 0.96041
1028.31606 0.95688
1026.26762 0.95389
1024.21918 0.95133
1022.17074 0.94867
1020.12230 0.94655
1018.07386 0.94630
1016.02543 0.94766
1013.97699 0.94890
1011.92855 0.94947
1009.88011 0.95025
1007.83167 0.95180
1005.78323 0.95295
1003.73480 0.95177
1001.68636 0.94813
999.63792 0.94414
997.58948 0.94128
995.54104 0.93927
993.49260 0.93708
991.44417 0.93379
989.39573 0.92988
987.34729 0.92757
985.29885 0.92814
983.25041 0.93066
981.20197 0.93325
979.15354 0.93470
977.10510 0.93576
975.05666 0.93754
973.00822 0.93906
970.95978 0.93922
968.91134 0.93925
966.86290 0.94057
964.81447 0.94219
962.76603 0.94279
960.71759 0.94273
958.66915 0.94256
956.62071 0.94246
954.57227 0.94290
952.52384 0.94396
950.47540 0.94556
948.42696 0.94797
946.37852 0.95067
944.33008 0.95314
942.28164 0.95557
940.23321 0.95694
938.18477 0.95543
936.13633 0.95132
934.08789 0.94639
932.03945 0.94208
929.99101 0.93931
927.94258 0.93818
925.89414 0.93875
923.84570 0.94056
921.79726 0.94180
919.74882 0.94139
917.70038 0.94036
915.65195 0.94021
913.60351 0.94143
911.55507 0.94309
909.50663 0.94366
907.45819 0.94285
905.40975 0.94156
903.36132 0.94101
901.31288 0.94217
899.26444 0.94456
897.21600 0.94620
895.16756 0.94636
893.11912 0.94605
891.07069 0.94598
889.02225 0.94600
886.97381 0.94539
884.92537 0.94351
882.87693 0.94071
880.82849 0.93806
878.78006 0.93614
876.73162 0.93461
874.68318 0.93270
872.63474 0.92976
870.58630 0.92596
868.53786 0.92254
866.48943 0.92011
864.44099 0.91787
862.39255 0.91561
860.34411 0.91364
858.29567 0.91199
856.24723 0.91141
854.19880 0.91294
852.15036 0.91640
850.10192 0.92067
848.05348 0.92518
846.00504 0.92981
843.95660 0.93479
841.90817 0.94063
839.85973 0.94738
837.81129 0.95504
835.76285 0.96350
833.71441 0.97155
831.66597 0.97836
829.61753 0.98433
827.56910 0.98950
825.52066 0.99401
823.47222 0.99965
821.42378 1.00744
819.37534 1.01515
817.32690 1.02035
815.27847 1.02318
813.23003 1.02528
811.18159 1.02864
809.13315 1.03464
807.08471 1.04249
805.03627 1.04963
802.98784 1.05452
800.93940 1.05825
798.89096 1.06304
796.84252 1.07050
794.79408 1.07944
792.74564 1.08658
790.69721 1.09196
788.64877 1.09878
786.60033 1.10797
784.55189 1.11664
782.50345 1.12092
780.45501 1.12015
778.40658 1.11608
776.35814 1.10971
774.30970 1.10226
772.26126 1.09533
770.21282 1.09090
768.16438 1.09118
766.11595 1.09527
764.06751 1.09921
762.01907 1.10051
759.97063 1.10084
757.92219 1.10266
755.87375 1.10640
753.82532 1.11173
751.77688 1.11733
749.72844 1.12241
747.68000 1.12839
745.63156 1.13421
743.58312 1.13632
741.53469 1.13496
739.48625 1.13428
737.43781 1.13713
735.38937 1.14204
733.34093 1.14632
731.29249 1.14871
729.24406 1.14986
727.19562 1.15329
725.14718 1.16102
723.09874 1.16891
721.05030 1.17224
719.00186 1.17178
716.95343 1.17066
714.90499 1.17069
712.85655 1.17267
710.80811 1.17485
708.75967 1.17447
706.71123 1.17054
704.66280 1.16420
702.61436 1.15996
700.56592 1.16008
698.51748 1.16075
696.46904 1.15989
694.42060 1.15857
692.37216 1.15503
690.32373 1.14659
688.27529 1.13395
686.22685 1.12155
684.17841 1.11203
682.12997 1.10291
680.08153 1.09391
678.03310 1.08748
675.98466 1.08292
673.93622 1.07934
671.88778 1.07721
669.83934 1.07549
667.79090 1.07273
665.74247 1.06896
663.69403 1.06386
661.64559 1.05798
659.59715 1.05370
657.54871 1.05120
655.50027 1.04756
653.45184 1.04084
651.40340 1.03389
649.35496 1.02914
647.30652 1.02353
645.25808 1.01537
643.20964 1.00488
641.16121 0.99131
639.11277 0.97697
637.06433 0.96330
635.01589 0.94928
632.96745 0.93639
630.91901 0.92573
628.87058 0.91683
626.82214 0.90944
624.77370 0.90390
622.72526 0.90202
620.67682 0.90467
618.62838 0.90826
616.57995 0.91066
614.53151 0.91533
612.48307 0.92288
610.43463 0.93098
608.38619 0.93996
606.33775 0.94466
604.28932 0.93834
602.24088 0.93039
600.19244 0.93315
598.14400 0.94127
