3996.50324 0.90405
3994.45480 0.90387
3992.40636 0.90391
3990.35792 0.90433
3988.30948 0.90481
3986.26104 0.90477
3984.21261 0.90444
3982.16417 0.90445
3980.11573 0.90451
3978.06729 0.90412
3976.01885 0.90379
3973.97041 0.90408
3971.92198 0.90443
3969.87354 0.90449
3967.82510 0.90448
3965.77666 0.90390
3963.72822 0.90280
3961.67978 0.90245
3959.63135 0.90291
3957.58291 0.90331
3955.53447 0.90330
3953.48603 0.90239
3951.43759 0.90087
3949.38915 0.90047
3947.34072 0.90148
3945.29228 0.90163
3943.24384 0.90160
3941.19540 0.90264
3939.14696 0.90290
3937.09852 0.90207
3935.05009 0.90072
3933.00165 0.90034
3930.95321 0.90213
3928.90477 0.90293
3926.85633 0.90148
3924.80789 0.90091
3922.75946 0.90171
3920.71102 0.90121
3918.66258 0.90072
3916.61414 0.90245
3914.56570 0.90389
3912.51726 0.90341
3910.46883 0.90271
3908.42039 0.90120
3906.37195 0.89811
3904.32351 0.89718
3902.27507 0.90017
3900.22663 0.90369
3898.17820 0.90650
3896.12976 0.90624
3894.08132 0.90326
3892.03288 0.90316
3889.98444 0.90592
3887.93600 0.90450
3885.88756 0.90302
3883.83913 0.90450
3881.79069 0.90463
3879.74225 0.90683
3877.69381 0.90773
3875.64537 0.90500
3873.59693 0.90329
3871.54850 0.90289
3869.50006 0.90515
3867.45162 0.90663
3865.40318 0.90523
3863.35474 0.90696
3861.30630 0.90921
3859.25787 0.90723
3857.20943 0.90205
3855.16099 0.89710
3853.11255 0.90347
3851.06411 0.91283
3849.01567 0.91244
3846.96724 0.90889
3844.91880 0.90540
3842.87036 0.90302
3840.82192 0.90130
3838.77348 0.90234
3836.72504 0.90707
3834.67661 0.90914
3832.62817 0.90916
3830.57973 0.90950
3828.53129 0.90879
3826.48285 0.90768
3824.43441 0.90525
3822.38598 0.90236
3820.33754 0.90609
3818.28910 0.90932
3816.24066 0.91105
3814.19222 0.91479
3812.14378 0.91415
3810.09535 0.91041
3808.04691 0.90855
3805.99847 0.91024
3803.95003 0.90882
3801.90159 0.90840
3799.85315 0.91319
3797.80472 0.91431
3795.75628 0.91521
3793.70784 0.91652
3791.65940 0.91595
3789.61096 0.91506
3787.56252 0.91395
3785.51409 0.91367
3783.46565 0.91437
3781.41721 0.91370
3779.36877 0.91424
3777.32033 0.91619
3775.27189 0.91534
3773.22346 0.91228
3771.17502 0.91015
3769.12658 0.91143
3767.07814 0.91302
3765.02970 0.91369
3762.98126 0.91291
3760.93283 0.91027
3758.88439 0.91015
3756.83595 0.91096
3754.78751 0.90727
3752.73907 0.90192
3750.69063 0.90417
3748.64219 0.90899
3746.59376 0.90669
3744.54532 0.90776
3742.49688 0.91257
3740.44844 0.91007
3738.40000 0.90363
3736.35156 0.90029
3734.30313 0.90504
3732.25469 0.91095
3730.20625 0.91125
3728.15781 0.90784
3726.10937 0.90539
3724.06093 0.90602
3722.01250 0.90769
3719.96406 0.90886
3717.91562 0.90788
3715.86718 0.90420
3713.81874 0.89937
3711.77030 0.89905
3709.72187 0.90446
3707.67343 0.90609
3705.62499 0.90354
3703.57655 0.90036
3701.52811 0.90052
3699.47967 0.90204
3697.43124 0.90134
3695.38280 0.89935
3693.33436 0.89602
3691.28592 0.89264
3689.23748 0.89536
3687.18904 0.90100
3685.14061 0.90148
3683.09217 0.89909
3681.04373 0.89606
3678.99529 0.89236
3676.94685 0.88986
3674.89841 0.89443
3672.84998 0.89634
3670.80154 0.89466
3668.75310 0.89901
3666.70466 0.90183
3664.65622 0.90061
3662.60778 0.89953
3660.55935 0.89865
3658.51091 0.89696
3656.46247 0.89691
3654.41403 0.89702
3652.36559 0.89229
3650.31715 0.88764
3648.26872 0.89398
3646.22028 0.90080
3644.17184 0.90104
3642.12340 0.89987
3640.07496 0.89972
3638.02652 0.89954
3635.97809 0.89861
3633.92965 0.89723
3631.88121 0.89401
3629.83277 0.89187
3627.78433 0.89815
3625.73589 0.90230
3623.68746 0.90039
3621.63902 0.89682
3619.59058 0.89609
3617.54214 0.89892
3615.49370 0.89930
3613.44526 0.89865
3611.39682 0.89901
3609.34839 0.89962
3607.29995 0.90190
3605.25151 0.90335
3603.20307 0.90199
3601.15463 0.90068
3599.10619 0.90084
3597.05776 0.90088
3595.00932 0.90146
3592.96088 0.90271
3590.91244 0.90160
3588.86400 0.89946
3586.81556 0.90174
3584.76713 0.90492
3582.71869 0.90467
3580.67025 0.90358
3578.62181 0.90310
3576.57337 0.90299
3574.52493 0.90295
3572.47650 0.90219
3570.42806 0.89970
3568.37962 0.89736
3566.33118 0.89959
3564.28274 0.90282
3562.23430 0.90339
3560.18587 0.90345
3558.13743 0.90362
3556.08899 0.90299
3554.04055 0.90181
3551.99211 0.90162
3549.94367 0.90165
3547.89524 0.90065
3545.84680 0.90099
3543.79836 0.90310
3541.74992 0.90405
3539.70148 0.90359
3537.65304 0.90313
3535.60461 0.90334
3533.55617 0.90336
3531.50773 0.90261
3529.45929 0.90221
3527.41085 0.90279
3525.36241 0.90341
3523.31398 0.90414
3521.26554 0.90503
3519.21710 0.90552
3517.16866 0.90592
3515.12022 0.90627
3513.07178 0.90644
3511.02335 0.90668
3508.97491 0.90715
3506.92647 0.90712
3504.87803 0.90646
3502.82959 0.90696
3500.78115 0.90844
3498.73272 0.90888
3496.68428 0.90883
3494.63584 0.90933
3492.58740 0.90980
3490.53896 0.90984
3488.49052 0.90992
3486.44209 0.90995
3484.39365 0.90959
3482.34521 0.90952
3480.29677 0.91031
3478.24833 0.91111
3476.19989 0.91160
3474.15146 0.91216
3472.10302 0.91269
3470.05458 0.91281
3468.00614 0.91278
3465.95770 0.91305
3463.90926 0.91352
3461.86082 0.91404
3459.81239 0.91442
3457.76395 0.91447
3455.71551 0.91451
3453.66707 0.91486
3451.61863 0.91525
3449.57019 0.91530
3447.52176 0.91567
3445.47332 0.91663
3443.42488 0.91715
3441.37644 0.91711
3439.32800 0.91710
3437.27956 0.91739
3435.23113 0.91763
3433.18269 0.91736
3431.13425 0.91687
3429.08581 0.91653
3427.03737 0.91648
3424.98893 0.91636
3422.94050 0.91591
3420.89206 0.91593
3418.84362 0.91665
3416.79518 0.91723
3414.74674 0.91738
3412.69830 0.91738
3410.64987 0.91746
3408.60143 0.91765
3406.55299 0.91788
3404.50455 0.91812
3402.45611 0.91829
3400.40767 0.91818
3398.35924 0.91812
3396.31080 0.91847
3394.26236 0.91880
3392.21392 0.91910
3390.16548 0.91934
3388.11704 0.91917
3386.06861 0.91906
3384.02017 0.91941
3381.97173 0.91995
3379.92329 0.92057
3377.87485 0.92124
3375.82641 0.92178
3373.77798 0.92213
3371.72954 0.92236
3369.68110 0.92258
3367.63266 0.92290
3365.58422 0.92309
3363.53578 0.92305
3361.48735 0.92310
3359.43891 0.92330
3357.39047 0.92355
3355.34203 0.92401
3353.29359 0.92447
3351.24515 0.92458
3349.19672 0.92461
3347.14828 0.92502
3345.09984 0.92547
3343.05140 0.92545
3341.00296 0.92536
3338.95452 0.92553
3336.90609 0.92588
3334.85765 0.92639
3332.80921 0.92686
3330.76077 0.92707
3328.71233 0.92718
3326.66389 0.92751
3324.61545 0.92799
3322.56702 0.92830
3320.51858 0.92845
3318.47014 0.92848
3316.42170 0.92842
3314.37326 0.92847
3312.32482 0.92846
3310.27639 0.92806
3308.22795 0.92761
3306.17951 0.92744
3304.13107 0.92741
3302.08263 0.92750
3300.03419 0.92759
3297.98576 0.92752
3295.93732 0.92731
3293.88888 0.92697
3291.84044 0.92663
3289.79200 0.92658
3287.74356 0.92673
3285.69513 0.92677
3283.64669 0.92680
3281.59825 0.92696
3279.54981 0.92688
3277.50137 0.92653
3275.45293 0.92639
3273.40450 0.92647
3271.35606 0.92644
3269.30762 0.92627
3267.25918 0.92601
3265.21074 0.92583
3263.16230 0.92592
3261.11387 0.92598
3259.06543 0.92589
3257.01699 0.92589
3254.96855 0.92585
3252.92011 0.92588
3250.87167 0.92613
3248.82324 0.92616
3246.77480 0.92595
3244.72636 0.92601
3242.67792 0.92625
3240.62948 0.92624
3238.58104 0.92622
3236.53261 0.92643
3234.48417 0.92632
3232.43573 0.92578
3230.38729 0.92542
3228.33885 0.92537
3226.29041 0.92543
3224.24198 0.92545
3222.19354 0.92535
3220.14510 0.92517
3218.09666 0.92481
3216.04822 0.92426
3213.99978 0.92391
3211.95135 0.92390
3209.90291 0.92401
3207.85447 0.92395
3205.80603 0.92370
3203.75759 0.92344
3201.70915 0.92313
3199.66072 0.92280
3197.61228 0.92270
3195.56384 0.92283
3193.51540 0.92303
3191.46696 0.92310
3189.41852 0.92294
3187.37008 0.92269
3185.32165 0.92252
3183.27321 0.92236
3181.22477 0.92201
3179.17633 0.92169
3177.12789 0.92145
3175.07945 0.92092
3173.03102 0.92033
3170.98258 0.92018
3168.93414 0.92023
3166.88570 0.91998
3164.83726 0.91951
3162.78882 0.91913
3160.74039 0.91869
3158.69195 0.91806
3156.64351 0.91721
3154.59507 0.91622
3152.54663 0.91536
3150.49819 0.91467
3148.44976 0.91387
3146.40132 0.91304
3144.35288 0.91231
3142.30444 0.91143
3140.25600 0.91038
3138.20756 0.90957
3136.15913 0.90899
3134.11069 0.90834
3132.06225 0.90783
3130.01381 0.90743
3127.96537 0.90682
3125.91693 0.90613
3123.86850 0.90558
3121.82006 0.90518
3119.77162 0.90469
3117.72318 0.90395
3115.67474 0.90313
3113.62630 0.90242
3111.57787 0.90174
3109.52943 0.90108
3107.48099 0.90060
3105.43255 0.89999
3103.38411 0.89891
3101.33567 0.89785
3099.28724 0.89718
3097.23880 0.89655
3095.19036 0.89589
3093.14192 0.89523
3091.09348 0.89454
3089.04504 0.89396
3086.99661 0.89360
3084.94817 0.89326
3082.89973 0.89280
3080.85129 0.89249
3078.80285 0.89251
3076.75441 0.89259
3074.70598 0.89227
3072.65754 0.89154
3070.60910 0.89083
3068.56066 0.89035
3066.51222 0.89014
3064.46378 0.89014
3062.41535 0.89007
3060.36691 0.88982
3058.31847 0.88946
3056.27003 0.88916
3054.22159 0.88894
3052.17315 0.88875
3050.12471 0.88853
3048.07628 0.88826
3046.02784 0.88804
3043.97940 0.88788
3041.93096 0.88788
3039.88252 0.88818
3037.83408 0.88854
3035.78565 0.88871
3033.73721 0.88885
3031.68877 0.88916
3029.64033 0.88951
3027.59189 0.88977
3025.54345 0.88994
3023.49502 0.89006
3021.44658 0.89036
3019.39814 0.89081
3017.34970 0.89117
3015.30126 0.89159
3013.25282 0.89212
3011.20439 0.89264
3009.15595 0.89322
3007.10751 0.89382
3005.05907 0.89425
3003.01063 0.89454
3000.96219 0.89499
2998.91376 0.89570
2996.86532 0.89639
2994.81688 0.89685
2992.76844 0.89725
2990.72000 0.89774
2988.67156 0.89846
2986.62313 0.89954
2984.57469 0.90060
2982.52625 0.90148
2980.47781 0.90249
2978.42937 0.90381
2976.38093 0.90541
2974.33250 0.90727
2972.28406 0.90939
2970.23562 0.91150
2968.18718 0.91331
2966.13874 0.91484
2964.09030 0.91616
2962.04187 0.91738
2959.99343 0.91863
2957.94499 0.91978
2955.89655 0.92056
2953.84811 0.92093
2951.79967 0.92120
2949.75124 0.92139
2947.70280 0.92137
2945.65436 0.92155
2943.60592 0.92228
2941.55748 0.92349
2939.50904 0.92511
2937.46061 0.92679
2935.41217 0.92822
2933.36373 0.92960
2931.31529 0.93100
2929.26685 0.93245
2927.21841 0.93392
2925.16998 0.93523
2923.12154 0.93600
2921.07310 0.93592
2919.02466 0.93514
2916.97622 0.93405
2914.92778 0.93267
2912.87934 0.93090
2910.83091 0.92914
2908.78247 0.92782
2906.73403 0.92687
2904.68559 0.92615
2902.63715 0.92566
2900.58871 0.92538
2898.54028 0.92524
2896.49184 0.92522
2894.44340 0.92529
2892.39496 0.92540
2890.34652 0.92547
2888.29808 0.92555
2886.24965 0.92575
2884.20121 0.92592
2882.15277 0.92602
2880.10433 0.92643
2878.05589 0.92733
2876.00745 0.92834
2873.95902 0.92936
2871.91058 0.93050
2869.86214 0.93161
2867.81370 0.93269
2865.76526 0.93403
2863.71682 0.93565
2861.66839 0.93735
2859.61995 0.93904
2857.57151 0.94075
2855.52307 0.94220
2853.47463 0.94307
2851.42619 0.94282
2849.37776 0.94112
2847.32932 0.93823
2845.28088 0.93472
2843.23244 0.93125
2841.18400 0.92830
2839.13556 0.92591
2837.08713 0.92394
2835.03869 0.92224
2832.99025 0.92057
2830.94181 0.91892
2828.89337 0.91737
2826.84493 0.91595
2824.79650 0.91476
2822.74806 0.91372
2820.69962 0.91265
2818.65118 0.91161
2816.60274 0.91069
2814.55430 0.90988
2812.50587 0.90910
2810.45743 0.90837
2808.40899 0.90771
2806.36055 0.90695
2804.31211 0.90625
2802.26367 0.90578
2800.21524 0.90537
2798.16680 0.90494
2796.11836 0.90465
2794.06992 0.90473
2792.02148 0.90509
2789.97304 0.90535
2787.92461 0.90548
2785.87617 0.90568
2783.82773 0.90607
2781.77929 0.90675
2779.73085 0.90745
2777.68241 0.90796
2775.63397 0.90832
2773.58554 0.90872
2771.53710 0.90929
2769.48866 0.91000
2767.44022 0.91079
2765.39178 0.91156
2763.34334 0.91227
2761.29491 0.91295
2759.24647 0.91360
2757.19803 0.91434
2755.14959 0.91519
2753.10115 0.91593
2751.05271 0.91653
2749.00428 0.91702
2746.95584 0.91727
2744.90740 0.91747
2742.85896 0.91792
2740.81052 0.91849
2738.76208 0.91918
2736.71365 0.91996
2734.66521 0.92035
2732.61677 0.92039
2730.56833 0.92065
2728.51989 0.92100
2726.47145 0.92110
2724.42302 0.92104
2722.37458 0.92088
2720.32614 0.92050
2718.27770 0.92006
2716.22926 0.91962
2714.18082 0.91914
2712.13239 0.91874
2710.08395 0.91844
2708.03551 0.91814
2705.98707 0.91787
2703.93863 0.91772
2701.89019 0.91763
2699.84176 0.91748
2697.79332 0.91718
2695.74488 0.91672
2693.69644 0.91623
2691.64800 0.91593
2689.59956 0.91596
2687.55113 0.91612
2685.50269 0.91603
2683.45425 0.91592
2681.40581 0.91607
2679.35737 0.91623
2677.30893 0.91621
2675.26050 0.91606
2673.21206 0.91593
2671.16362 0.91595
2669.11518 0.91602
2667.06674 0.91608
2665.01830 0.91619
2662.96987 0.91651
2660.92143 0.91699
2658.87299 0.91721
2656.82455 0.91705
2654.77611 0.91686
2652.72767 0.91663
2650.67924 0.91628
2648.63080 0.91604
2646.58236 0.91600
2644.53392 0.91598
2642.48548 0.91607
2640.43704 0.91657
2638.38860 0.91716
2636.34017 0.91740
2634.29173 0.91743
2632.24329 0.91755
2630.19485 0.91784
2628.14641 0.91817
2626.09797 0.91837
2624.04954 0.91831
2622.00110 0.91788
2619.95266 0.91740
2617.90422 0.91725
2615.85578 0.91731
2613.80734 0.91730
2611.75891 0.91724
2609.71047 0.91732
2607.66203 0.91753
2605.61359 0.91765
2603.56515 0.91762
2601.51671 0.91746
2599.46828 0.91713
2597.41984 0.91671
2595.37140 0.91636
2593.32296 0.91598
2591.27452 0.91545
2589.22608 0.91487
2587.17765 0.91432
2585.12921 0.91373
2583.08077 0.91305
2581.03233 0.91235
2578.98389 0.91170
2576.93545 0.91109
2574.88702 0.91050
2572.83858 0.91009
2570.79014 0.91002
2568.74170 0.91013
2566.69326 0.91029
2564.64482 0.91052
2562.59639 0.91069
2560.54795 0.91070
2558.49951 0.91084
2556.45107 0.91104
2554.40263 0.91106
2552.35419 0.91102
2550.30576 0.91115
2548.25732 0.91149
2546.20888 0.91192
2544.16044 0.91247
2542.11200 0.91312
2540.06356 0.91376
2538.01513 0.91436
2535.96669 0.91480
2533.91825 0.91510
2531.86981 0.91537
2529.82137 0.91553
2527.77293 0.91558
2525.72450 0.91554
2523.67606 0.91540
2521.62762 0.91540
2519.57918 0.91570
2517.53074 0.91594
2515.48230 0.91598
2513.43387 0.91605
2511.38543 0.91606
2509.33699 0.91602
2507.28855 0.91618
2505.24011 0.91627
2503.19167 0.91591
2501.14324 0.91528
2499.09480 0.91490
2497.04636 0.91477
2494.99792 0.91463
2492.94948 0.91454
2490.90104 0.91445
2488.85260 0.91422
2486.80417 0.91390
2484.75573 0.91361
2482.70729 0.91352
2480.65885 0.91373
2478.61041 0.91419
2476.56197 0.91468
2474.51354 0.91510
2472.46510 0.91544
2470.41666 0.91578
2468.36822 0.91616
2466.31978 0.91659
2464.27134 0.91721
2462.22291 0.91786
2460.17447 0.91825
2458.12603 0.91838
2456.07759 0.91844
2454.02915 0.91859
2451.98071 0.91901
2449.93228 0.91968
2447.88384 0.92038
2445.83540 0.92103
2443.78696 0.92180
2441.73852 0.92300
2439.69008 0.92478
2437.64165 0.92703
2435.59321 0.92977
2433.54477 0.93303
2431.49633 0.93657
2429.44789 0.93961
2427.39945 0.94096
2425.35102 0.94015
2423.30258 0.93799
2421.25414 0.93554
2419.20570 0.93327
2417.15726 0.93125
2415.10882 0.92981
2413.06039 0.92925
2411.01195 0.92918
2408.96351 0.92902
2406.91507 0.92902
2404.86663 0.92944
2402.81819 0.92996
2400.76976 0.93040
2398.72132 0.93077
2396.67288 0.93127
2394.62444 0.93207
2392.57600 0.93289
2390.52756 0.93341
2388.47913 0.93367
2386.43069 0.93382
2384.38225 0.93379
2382.33381 0.93342
2380.28537 0.93282
2378.23693 0.93239
2376.18850 0.93206
2374.14006 0.93114
2372.09162 0.92951
2370.04318 0.92844
2367.99474 0.92823
2365.94630 0.92746
2363.89787 0.92585
2361.84943 0.92485
2359.80099 0.92557
2357.75255 0.92770
2355.70411 0.93064
2353.65567 0.93378
2351.60723 0.93534
2349.55880 0.93392
2347.51036 0.93111
2345.46192 0.92971
2343.41348 0.93025
2341.36504 0.93041
2339.31660 0.93033
2337.26817 0.93094
2335.21973 0.93162
2333.17129 0.93134
2331.12285 0.93093
2329.07441 0.93156
2327.02597 0.93232
2324.97754 0.93214
2322.92910 0.93189
2320.88066 0.93249
2318.83222 0.93292
2316.78378 0.93239
2314.73534 0.93171
2312.68691 0.93166
2310.63847 0.93210
2308.59003 0.93232
2306.54159 0.93196
2304.49315 0.93145
2302.44471 0.93123
2300.39628 0.93127
2298.34784 0.93128
2296.29940 0.93113
2294.25096 0.93105
2292.20252 0.93108
2290.15408 0.93119
2288.10565 0.93150
2286.05721 0.93173
2284.00877 0.93163
2281.96033 0.93155
2279.91189 0.93171
2277.86345 0.93211
2275.81502 0.93279
2273.76658 0.93348
2271.71814 0.93415
2269.66970 0.93519
2267.62126 0.93655
2265.57282 0.93772
2263.52439 0.93859
2261.47595 0.93938
2259.42751 0.94022
2257.37907 0.94106
2255.33063 0.94189
2253.28219 0.94270
2251.23376 0.94329
2249.18532 0.94357
2247.13688 0.94372
2245.08844 0.94387
2243.04000 0.94394
2240.99156 0.94389
2238.94313 0.94384
2236.89469 0.94380
2234.84625 0.94364
2232.79781 0.94319
2230.74937 0.94236
2228.70093 0.94133
2226.65250 0.94035
2224.60406 0.93945
2222.55562 0.93849
2220.50718 0.93754
2218.45874 0.93673
2216.41030 0.93611
2214.36186 0.93572
2212.31343 0.93527
2210.26499 0.93468
2208.21655 0.93433
2206.16811 0.93410
2204.11967 0.93373
2202.07123 0.93325
2200.02280 0.93268
2197.97436 0.93209
2195.92592 0.93160
2193.87748 0.93110
2191.82904 0.93032
2189.78060 0.92943
2187.73217 0.92886
2185.68373 0.92874
2183.63529 0.92891
2181.58685 0.92896
2179.53841 0.92862
2177.48997 0.92804
2175.44154 0.92755
2173.39310 0.92718
2171.34466 0.92682
2169.29622 0.92656
2167.24778 0.92648
2165.19934 0.92666
2163.15091 0.92713
2161.10247 0.92779
2159.05403 0.92841
2157.00559 0.92889
2154.95715 0.92935
2152.90871 0.93000
2150.86028 0.93082
2148.81184 0.93167
2146.76340 0.93251
2144.71496 0.93329
2142.66652 0.93397
2140.61808 0.93450
2138.56965 0.93502
2136.52121 0.93566
2134.47277 0.93612
2132.42433 0.93623
2130.37589 0.93631
2128.32745 0.93645
2126.27902 0.93656
2124.23058 0.93674
2122.18214 0.93689
2120.13370 0.93666
2118.08526 0.93626
2116.03682 0.93617
2113.98839 0.93635
2111.93995 0.93650
2109.89151 0.93653
2107.84307 0.93633
2105.79463 0.93587
2103.74619 0.93531
2101.69776 0.93485
2099.64932 0.93446
2097.60088 0.93401
2095.55244 0.93347
2093.50400 0.93290
2091.45556 0.93224
2089.40713 0.93152
2087.35869 0.93094
2085.31025 0.93056
2083.26181 0.93028
2081.21337 0.92998
2079.16493 0.92958
2077.11649 0.92918
2075.06806 0.92906
2073.01962 0.92954
2070.97118 0.93050
2068.92274 0.93140
2066.87430 0.93208
2064.82586 0.93299
2062.77743 0.93408
2060.72899 0.93498
2058.68055 0.93576
2056.63211 0.93673
2054.58367 0.93801
2052.53523 0.93923
2050.48680 0.94028
2048.43836 0.94136
2046.38992 0.94246
2044.34148 0.94368
2042.29304 0.94521
2040.24460 0.94697
2038.19617 0.94845
2036.14773 0.94942
2034.09929 0.95014
2032.05085 0.95087
2030.00241 0.95166
2027.95397 0.95233
2025.90554 0.95303
2023.85710 0.95399
2021.80866 0.95493
2019.76022 0.95562
2017.71178 0.95646
2015.66334 0.95738
2013.61491 0.95789
2011.56647 0.95832
2009.51803 0.95905
2007.46959 0.95995
2005.42115 0.96086
2003.37271 0.96142
2001.32428 0.96146
1999.27584 0.96120
1997.22740 0.96081
1995.17896 0.96020
1993.13052 0.95981
1991.08208 0.95996
1989.03365 0.95994
1986.98521 0.95977
1984.93677 0.95995
1982.88833 0.96031
1980.83989 0.96065
1978.79145 0.96087
1976.74302 0.96116
1974.69458 0.96170
1972.64614 0.96223
1970.59770 0.96236
1968.54926 0.96242
1966.50082 0.96338
1964.45239 0.96476
1962.40395 0.96552
1960.35551 0.96596
1958.30707 0.96649
1956.25863 0.96720
1954.21019 0.96811
1952.16176 0.96894
1950.11332 0.96946
1948.06488 0.96974
1946.01644 0.96976
1943.96800 0.96986
1941.91956 0.97095
1939.87112 0.97203
1937.82269 0.97200
1935.77425 0.97180
1933.72581 0.97207
1931.67737 0.97258
1929.62893 0.97307
1927.58049 0.97342
1925.53206 0.97346
1923.48362 0.97386
1921.43518 0.97456
1919.38674 0.97468
1917.33830 0.97569
1915.28986 0.97721
1913.24143 0.97720
1911.19299 0.97627
1909.14455 0.97606
1907.09611 0.97671
1905.04767 0.97729
1902.99923 0.97772
1900.95080 0.97811
1898.90236 0.97813
1896.85392 0.97794
1894.80548 0.97822
1892.75704 0.97815
1890.70860 0.97745
1888.66017 0.97754
1886.61173 0.97774
1884.56329 0.97750
1882.51485 0.97744
1880.46641 0.97721
1878.41797 0.97679
1876.36954 0.97640
1874.32110 0.97559
1872.27266 0.97371
1870.22422 0.97181
1868.17578 0.97275
1866.12734 0.97524
1864.07891 0.97595
1862.03047 0.97532
1859.98203 0.97454
1857.93359 0.97403
1855.88515 0.97365
1853.83671 0.97324
1851.78828 0.97234
1849.73984 0.97068
1847.69140 0.96860
1845.64296 0.96734
1843.59452 0.96927
1841.54608 0.97175
1839.49765 0.97197
1837.44921 0.97188
1835.40077 0.97215
1833.35233 0.97130
1831.30389 0.97005
1829.25545 0.97127
1827.20702 0.97317
1825.15858 0.97412
1823.11014 0.97547
1821.06170 0.97635
1819.01326 0.97676
1816.96482 0.97732
1814.91639 0.97742
1812.86795 0.97692
1810.81951 0.97731
1808.77107 0.97859
1806.72263 0.97908
1804.67419 0.97822
1802.62575 0.97649
1800.57732 0.97566
1798.52888 0.97600
1796.48044 0.97550
1794.43200 0.97385
1792.38356 0.97378
1790.33512 0.97637
1788.28669 0.97741
1786.23825 0.97699
1784.18981 0.97707
1782.14137 0.97721
1780.09293 0.97724
1778.04449 0.97682
1775.99606 0.97477
1773.94762 0.97251
1771.89918 0.97390
1769.85074 0.97716
1767.80230 0.97882
1765.75386 0.97891
1763.70543 0.97756
1761.65699 0.97754
1759.60855 0.97884
1757.56011 0.97974
1755.51167 0.98111
1753.46323 0.98121
1751.41480 0.98092
1749.36636 0.98362
1747.31792 0.98747
1745.26948 0.99003
1743.22104 0.99185
1741.17260 0.99344
1739.12417 0.99452
1737.07573 0.99298
1735.02729 0.98983
1732.97885 0.99016
1730.93041 0.99096
1728.88197 0.98966
1726.83354 0.98788
1724.78510 0.98600
1722.73666 0.98401
1720.68822 0.98072
1718.63978 0.97705
1716.59134 0.97851
1714.54291 0.98303
1712.49447 0.98472
1710.44603 0.98429
1708.39759 0.98249
1706.34915 0.98099
1704.30071 0.98065
1702.25228 0.97928
1700.20384 0.97859
1698.15540 0.98028
1696.10696 0.98320
1694.05852 0.98638
1692.01008 0.98645
1689.96165 0.98521
1687.91321 0.98331
1685.86477 0.98004
1683.81633 0.98134
1681.76789 0.98632
1679.71945 0.98787
1677.67102 0.98777
1675.62258 0.98869
1673.57414 0.99055
1671.52570 0.99067
1669.47726 0.99276
1667.42882 0.99621
1665.38038 0.99597
1663.33195 0.99537
1661.28351 0.99708
1659.23507 0.99760
1657.18663 0.99499
1655.13819 0.99031
1653.08975 0.99124
1651.04132 0.99593
1648.99288 0.99401
1646.94444 0.99380
1644.89600 0.99808
1642.84756 0.99941
1640.79912 0.99853
1638.75069 0.99654
1636.70225 0.99577
1634.65381 1.00034
1632.60537 1.00261
1630.55693 1.00135
1628.50849 1.00031
1626.46006 1.00020
1624.41162 1.00079
1622.36318 1.00334
1620.31474 1.00439
1618.26630 1.00340
1616.21786 1.00574
1614.16943 1.00916
1612.12099 1.00967
1610.07255 1.00954
1608.02411 1.00985
1605.97567 1.00987
1603.92723 1.00946
1601.87880 1.00951
1599.83036 1.00985
1597.78192 1.00965
1595.73348 1.00915
1593.68504 1.00878
1591.63660 1.00849
1589.58817 1.00837
1587.53973 1.00820
1585.49129 1.00751
1583.44285 1.00662
1581.39441 1.00550
1579.34597 1.00305
1577.29754 1.00058
1575.24910 1.00195
1573.20066 1.00244
1571.15222 1.00013
1569.10378 0.99903
1567.05534 0.99875
1565.00691 0.99675
1562.95847 0.99288
1560.91003 0.98674
1558.86159 0.98420
1556.81315 0.98915
1554.76471 0.98970
1552.71628 0.98872
1550.66784 0.98776
1548.61940 0.98643
1546.57096 0.98324
1544.52252 0.97829
1542.47408 0.97357
1540.42565 0.97455
1538.37721 0.98047
1536.32877 0.98041
1534.28033 0.97870
1532.23189 0.97933
1530.18345 0.97834
1528.13501 0.97485
1526.08658 0.97195
1524.03814 0.97001
1521.98970 0.96993
1519.94126 0.97252
1517.89282 0.97407
1515.84438 0.97593
1513.79595 0.97724
1511.74751 0.97639
1509.69907 0.97374
1507.65063 0.97448
1505.60219 0.98502
1503.55375 0.98889
1501.50532 0.98798
1499.45688 0.98761
1497.40844 0.99080
1495.36000 0.99564
1493.31156 0.99671
1491.26312 0.99596
1489.21469 0.99925
1487.16625 1.00601
1485.11781 1.01024
1483.06937 1.01241
1481.02093 1.01481
1478.97249 1.01678
1476.92406 1.01733
1474.87562 1.01859
1472.82718 1.02467
1470.77874 1.03246
1468.73030 1.03529
1466.68186 1.03597
1464.63343 1.03799
1462.58499 1.03914
1460.53655 1.03682
1458.48811 1.03365
1456.43967 1.03555
1454.39123 1.03771
1452.34280 1.03666
1450.29436 1.03480
1448.24592 1.03363
1446.19748 1.03325
1444.14904 1.03235
1442.10060 1.03032
1440.05217 1.02685
1438.00373 1.02278
1435.95529 1.02091
1433.90685 1.02028
1431.85841 1.01872
1429.80997 1.01742
1427.76154 1.01631
1425.71310 1.01479
1423.66466 1.01374
1421.61622 1.01299
1419.56778 1.01349
1417.51934 1.01672
1415.47091 1.01851
1413.42247 1.01837
1411.37403 1.01810
1409.32559 1.01793
1407.27715 1.01785
1405.22871 1.01896
1403.18028 1.02059
1401.13184 1.02064
1399.08340 1.01983
1397.03496 1.01917
1394.98652 1.01903
1392.93808 1.01927
1390.88965 1.01841
1388.84121 1.01738
1386.79277 1.01867
1384.74433 1.02076
1382.69589 1.02116
1380.64745 1.02061
1378.59901 1.02006
1376.55058 1.01972
1374.50214 1.02014
1372.45370 1.02095
1370.40526 1.02124
1368.35682 1.02158
1366.30838 1.02138
1364.25995 1.02047
1362.21151 1.02071
1360.16307 1.02168
1358.11463 1.02201
1356.06619 1.02252
1354.01775 1.02357
1351.96932 1.02440
1349.92088 1.02455
1347.87244 1.02425
1345.82400 1.02413
1343.77556 1.02419
1341.72712 1.02375
1339.67869 1.02374
1337.63025 1.02532
1335.58181 1.02683
1333.53337 1.02731
1331.48493 1.02737
1329.43649 1.02729
1327.38806 1.02684
1325.33962 1.02633
1323.29118 1.02631
1321.24274 1.02643
1319.19430 1.02600
1317.14586 1.02520
1315.09743 1.02477
1313.04899 1.02518
1311.00055 1.02565
1308.95211 1.02534
1306.90367 1.02453
1304.85523 1.02365
1302.80680 1.02292
1300.75836 1.02200
1298.70992 1.02040
1296.66148 1.01867
1294.61304 1.01775
1292.56460 1.01781
1290.51617 1.01875
1288.46773 1.02025
1286.41929 1.02194
1284.37085 1.02382
1282.32241 1.02597
1280.27397 1.02846
1278.22554 1.03147
1276.17710 1.03501
1274.12866 1.03886
1272.08022 1.04313
1270.03178 1.04798
1267.98334 1.05334
1265.93491 1.05883
1263.88647 1.06301
1261.83803 1.06465
1259.78959 1.06446
1257.74115 1.06372
1255.69271 1.06303
1253.64428 1.06287
1251.59584 1.06341
1249.54740 1.06434
1247.49896 1.06509
1245.45052 1.06529
1243.40208 1.06480
1241.35364 1.06390
1239.30521 1.06364
1237.25677 1.06449
1235.20833 1.06570
1233.15989 1.06680
1231.11145 1.06742
1229.06301 1.06737
1227.01458 1.06738
1224.96614 1.06802
1222.91770 1.06895
1220.86926 1.06984
1218.82082 1.07046
1216.77238 1.07042
1214.72395 1.06975
1212.67551 1.06900
1210.62707 1.06833
1208.57863 1.06771
1206.53019 1.06742
1204.48175 1.06767
1202.43332 1.06758
1200.38488 1.06652
1198.33644 1.06553
1196.28800 1.06524
1194.23956 1.06526
1192.19112 1.06550
1190.14269 1.06591
1188.09425 1.06636
1186.04581 1.06711
1183.99737 1.06889
1181.94893 1.07174
1179.90049 1.07462
1177.85206 1.07712
1175.80362 1.07944
1173.75518 1.08135
1171.70674 1.08258
1169.65830 1.08337
1167.60986 1.08404
1165.56143 1.08448
1163.51299 1.08488
1161.46455 1.08608
1159.41611 1.08819
1157.36767 1.09055
1155.31923 1.09297
1153.27080 1.09529
1151.22236 1.09744
1149.17392 1.09974
1147.12548 1.10219
1145.07704 1.10448
1143.02860 1.10659
1140.98017 1.10864
1138.93173 1.11073
1136.88329 1.11276
1134.83485 1.11482
1132.78641 1.11704
1130.73797 1.11888
1128.68954 1.12004
1126.64110 1.12080
1124.59266 1.12127
1122.54422 1.12166
1120.49578 1.12285
1118.44734 1.12473
1116.39891 1.12612
1114.35047 1.12695
1112.30203 1.12757
1110.25359 1.12789
1108.20515 1.12795
1106.15671 1.12749
1104.10827 1.12614
1102.05984 1.12382
1100.01140 1.12062
1097.96296 1.11714
1095.91452 1.11403
1093.86608 1.11074
1091.81764 1.10678
1089.76921 1.10268
1087.72077 1.09864
1085.67233 1.09449
1083.62389 1.09069
1081.57545 1.08731
1079.52701 1.08451
1077.47858 1.08298
1075.43014 1.08191
1073.38170 1.08009
1071.33326 1.07806
1069.28482 1.07644
1067.23638 1.07500
1065.18795 1.07392
1063.13951 1.07345
1061.09107 1.07300
1059.04263 1.07198
1056.99419 1.07073
1054.94575 1.06993
1052.89732 1.07014
1050.84888 1.07159
1048.80044 1.07395
1046.75200 1.07651
1044.70356 1.07867
1042.65512 1.08043
1040.60669 1.08225
1038.55825 1.08388
1036.50981 1.08487
1034.46137 1.08604
1032.41293 1.08811
1030.36449 1.09062
1028.31606 1.09307
1026.26762 1.09541
1024.21918 1.09739
1022.17074 1.09884
1020.12230 1.10060
1018.07386 1.10358
1016.02543 1.10733
1013.97699 1.11089
1011.92855 1.11407
1009.88011 1.11634
1007.83167 1.11695
1005.78323 1.11616
1003.73480 1.11482
1001.68636 1.11341
999.63792 1.11189
997.58948 1.11032
995.54104 1.10845
993.49260 1.10590
991.44417 1.10309
989.39573 1.10063
987.34729 1.09848
985.29885 1.09621
983.25041 1.09349
981.20197 1.09040
979.15354 1.08743
977.10510 1.08445
975.05666 1.08117
973.00822 1.07838
970.95978 1.07627
968.91134 1.07336
966.86290 1.06890
964.81447 1.06349
962.76603 1.05743
960.71759 1.05151
958.66915 1.04727
956.62071 1.04531
954.57227 1.04482
952.52384 1.04452
950.47540 1.04387
948.42696 1.04356
946.37852 1.04431
944.33008 1.04554
942.28164 1.04601
940.23321 1.04559
938.18477 1.04536
936.13633 1.04588
934.08789 1.04724
932.03945 1.05031
929.99101 1.05487
927.94258 1.05906
925.89414 1.06200
923.84570 1.06427
921.79726 1.06671
919.74882 1.06984
917.70038 1.07352
915.65195 1.07721
913.60351 1.08041
911.55507 1.08307
909.50663 1.08518
907.45819 1.08612
905.40975 1.08608
903.36132 1.08588
901.31288 1.08516
899.26444 1.08447
897.21600 1.08497
895.16756 1.08534
893.11912 1.08439
891.07069 1.08308
889.02225 1.08180
886.97381 1.08042
884.92537 1.07924
882.87693 1.07727
880.82849 1.07363
878.78006 1.06939
876.73162 1.06590
874.68318 1.06404
872.63474 1.06367
870.58630 1.06349
868.53786 1.06235
866.48943 1.06054
864.44099 1.05927
862.39255 1.05942
860.34411 1.06103
858.29567 1.06339
856.24723 1.06520
854.19880 1.06621
852.15036 1.06807
850.10192 1.07170
848.05348 1.07643
846.00504 1.08096
843.95660 1.08439
841.90817 1.08785
839.85973 1.09241
837.81129 1.09609
835.76285 1.09767
833.71441 1.09940
831.66597 1.10212
829.61753 1.10515
827.56910 1.10952
825.52066 1.11555
823.47222 1.12142
821.42378 1.12621
819.37534 1.13135
817.32690 1.13776
815.27847 1.14410
813.23003 1.14938
811.18159 1.15449
809.13315 1.16040
807.08471 1.16678
805.03627 1.17188
802.98784 1.17545
800.93940 1.17988
798.89096 1.18574
796.84252 1.19112
794.79408 1.19564
792.74564 1.20023
790.69721 1.20513
788.64877 1.20954
786.60033 1.21289
784.55189 1.21646
782.50345 1.22054
780.45501 1.22376
778.40658 1.22537
776.35814 1.22546
774.30970 1.22576
772.26126 1.22791
770.21282 1.23114
768.16438 1.23554
766.11595 1.24097
764.06751 1.24417
762.01907 1.24453
759.97063 1.24532
757.92219 1.24895
755.87375 1.25603
753.82532 1.26516
751.77688 1.27313
749.72844 1.27716
747.68000 1.27746
745.63156 1.27670
743.58312 1.27792
741.53469 1.28231
739.48625 1.28968
737.43781 1.29958
735.38937 1.30910
733.34093 1.31458
731.29249 1.31753
729.24406 1.32205
727.19562 1.33014
725.14718 1.34147
723.09874 1.35277
721.05030 1.36151
719.00186 1.36811
716.95343 1.37379
714.90499 1.37905
712.85655 1.38636
710.80811 1.39897
708.75967 1.41351
706.71123 1.42393
704.66280 1.43105
702.61436 1.44028
700.56592 1.45230
698.51748 1.46243
696.46904 1.46823
694.42060 1.47081
692.37216 1.47152
690.32373 1.47140
688.27529 1.46879
686.22685 1.46201
684.17841 1.45528
682.12997 1.45231
680.08153 1.45115
678.03310 1.45185
675.98466 1.45660
673.93622 1.46384
671.88778 1.47264
669.83934 1.48168
667.79090 1.48719
665.74247 1.48750
663.69403 1.48587
661.64559 1.48895
659.59715 1.50208
657.54871 1.51598
655.50027 1.51949
653.45184 1.51444
651.40340 1.50716
649.35496 1.50115
647.30652 1.49663
645.25808 1.49207
643.20964 1.48359
641.16121 1.46867
639.11277 1.45143
637.06433 1.43651
635.01589 1.42302
632.96745 1.40916
630.91901 1.39583
628.87058 1.38371
626.82214 1.37720
624.77370 1.38363
622.72526 1.39818
620.67682 1.40404
618.62838 1.39775
616.57995 1.39520
614.53151 1.40259
612.48307 1.40162
610.43463 1.38399
608.38619 1.37574
606.33775 1.38732
604.28932 1.39543
602.24088 1.39391
600.19244 1.39634
598.14400 1.39483
