3996.50324 1.05773
3994.45480 1.05757
3992.40636 1.05779
3990.35792 1.05838
3988.30948 1.05920
3986.26104 1.05944
3984.21261 1.05945
3982.16417 1.06017
3980.11573 1.06084
3978.06729 1.06053
3976.01885 1.05997
3973.97041 1.06029
3971.92198 1.06102
3969.87354 1.06156
3967.82510 1.06230
3965.77666 1.06284
3963.72822 1.06253
3961.67978 1.06258
3959.63135 1.06338
3957.58291 1.06348
3955.53447 1.06310
3953.48603 1.06263
3951.43759 1.06201
3949.38915 1.06242
3947.34072 1.06392
3945.29228 1.06366
3943.24384 1.06286
3941.19540 1.06455
3939.14696 1.06571
3937.09852 1.06444
3935.05009 1.06188
3933.00165 1.06037
3930.95321 1.06212
3928.90477 1.06373
3926.85633 1.06226
3924.80789 1.06103
3922.75946 1.06196
3920.71102 1.06140
3918.66258 1.06010
3916.61414 1.06230
3914.56570 1.06552
3912.51726 1.06572
3910.46883 1.06394
3908.42039 1.06035
3906.37195 1.05455
3904.32351 1.05141
3902.27507 1.05435
3900.22663 1.05898
3898.17820 1.06284
3896.12976 1.06243
3894.08132 1.05732
3892.03288 1.05483
3889.98444 1.05783
3887.93600 1.05665
3885.88756 1.05381
3883.83913 1.05503
3881.79069 1.05505
3879.74225 1.05747
3877.69381 1.05936
3875.64537 1.05512
3873.59693 1.05128
3871.54850 1.05025
3869.50006 1.05250
3867.45162 1.05451
3865.40318 1.05202
3863.35474 1.05314
3861.30630 1.05730
3859.25787 1.05613
3857.20943 1.04849
3855.16099 1.03785
3853.11255 1.04257
3851.06411 1.05849
3849.01567 1.06073
3846.96724 1.05600
3844.91880 1.05073
3842.87036 1.04720
3840.82192 1.04417
3838.77348 1.04419
3836.72504 1.05023
3834.67661 1.05369
3832.62817 1.05392
3830.57973 1.05443
3828.53129 1.05349
3826.48285 1.05214
3824.43441 1.04963
3822.38598 1.04450
3820.33754 1.04679
3818.28910 1.05143
3816.24066 1.05379
3814.19222 1.05959
3812.14378 1.06037
3810.09535 1.05519
3808.04691 1.05065
3805.99847 1.05182
3803.95003 1.05065
3801.90159 1.04900
3799.85315 1.05541
3797.80472 1.05840
3795.75628 1.05941
3793.70784 1.06111
3791.65940 1.06051
3789.61096 1.05920
3787.56252 1.05769
3785.51409 1.05724
3783.46565 1.05882
3781.41721 1.05889
3779.36877 1.05990
3777.32033 1.06347
3775.27189 1.06361
3773.22346 1.05991
3771.17502 1.05673
3769.12658 1.05871
3767.07814 1.06180
3765.02970 1.06303
3762.98126 1.06228
3760.93283 1.05850
3758.88439 1.05788
3756.83595 1.06023
3754.78751 1.05650
3752.73907 1.04838
3750.69063 1.04985
3748.64219 1.05929
3746.59376 1.05903
3744.54532 1.05978
3742.49688 1.06654
3740.44844 1.06494
3738.40000 1.05667
3736.35156 1.05108
3734.30313 1.05717
3732.25469 1.06719
3730.20625 1.06977
3728.15781 1.06595
3726.10937 1.06246
3724.06093 1.06356
3722.01250 1.06659
3719.96406 1.06942
3717.91562 1.07021
3715.86718 1.06716
3713.81874 1.06075
3711.77030 1.05840
3709.72187 1.06622
3707.67343 1.07161
3705.62499 1.07042
3703.57655 1.06686
3701.52811 1.06769
3699.47967 1.07150
3697.43124 1.07187
3695.38280 1.06981
3693.33436 1.06577
3691.28592 1.06100
3689.23748 1.06488
3687.18904 1.07502
3685.14061 1.07742
3683.09217 1.07413
3681.04373 1.06978
3678.99529 1.06448
3676.94685 1.05896
3674.89841 1.06398
3672.84998 1.06994
3670.80154 1.06907
3668.75310 1.07496
3666.70466 1.08044
3664.65622 1.07958
3662.60778 1.07804
3660.55935 1.07681
3658.51091 1.07407
3656.46247 1.07334
3654.41403 1.07437
3652.36559 1.06893
3650.31715 1.06124
3648.26872 1.06874
3646.22028 1.08023
3644.17184 1.08232
3642.12340 1.08068
3640.07496 1.07971
3638.02652 1.07944
3635.97809 1.07870
3633.92965 1.07704
3631.88121 1.07288
3629.83277 1.06901
3627.78433 1.07632
3625.73589 1.08320
3623.68746 1.08147
3621.63902 1.07653
3619.59058 1.07467
3617.54214 1.07814
3615.49370 1.07928
3613.44526 1.07889
3611.39682 1.07947
3609.34839 1.07921
3607.29995 1.08106
3605.25151 1.08363
3603.20307 1.08291
3601.15463 1.08170
3599.10619 1.08215
3597.05776 1.08174
3595.00932 1.08163
3592.96088 1.08342
3590.91244 1.08272
3588.86400 1.07977
3586.81556 1.08259
3584.76713 1.08838
3582.71869 1.08957
3580.67025 1.08874
3578.62181 1.08861
3576.57337 1.08898
3574.52493 1.08970
3572.47650 1.08997
3570.42806 1.08760
3568.37962 1.08422
3566.33118 1.08717
3564.28274 1.09300
3562.23430 1.09452
3560.18587 1.09486
3558.13743 1.09588
3556.08899 1.09577
3554.04055 1.09485
3551.99211 1.09537
3549.94367 1.09596
3547.89524 1.09464
3545.84680 1.09462
3543.79836 1.09788
3541.74992 1.10066
3539.70148 1.10086
3537.65304 1.10022
3535.60461 1.10063
3533.55617 1.10128
3531.50773 1.10081
3529.45929 1.09995
3527.41085 1.09997
3525.36241 1.10070
3523.31398 1.10195
3521.26554 1.10352
3519.21710 1.10438
3517.16866 1.10444
3515.12022 1.10422
3513.07178 1.10401
3511.02335 1.10408
3508.97491 1.10499
3506.92647 1.10573
3504.87803 1.10511
3502.82959 1.10513
3500.78115 1.10663
3498.73272 1.10735
3496.68428 1.10725
3494.63584 1.10753
3492.58740 1.10781
3490.53896 1.10759
3488.49052 1.10774
3486.44209 1.10833
3484.39365 1.10795
3482.34521 1.10725
3480.29677 1.10787
3478.24833 1.10898
3476.19989 1.10972
3474.15146 1.11056
3472.10302 1.11112
3470.05458 1.11124
3468.00614 1.11136
3465.95770 1.11131
3463.90926 1.11091
3461.86082 1.11076
3459.81239 1.11105
3457.76395 1.11118
3455.71551 1.11113
3453.66707 1.11124
3451.61863 1.11127
3449.57019 1.11086
3447.52176 1.11076
3445.47332 1.11152
3443.42488 1.11241
3441.37644 1.11305
3439.32800 1.11323
3437.27956 1.11306
3435.23113 1.11315
3433.18269 1.11338
3431.13425 1.11358
3429.08581 1.11354
3427.03737 1.11335
3424.98893 1.11355
3422.94050 1.11381
3420.89206 1.11389
3418.84362 1.11407
3416.79518 1.11394
3414.74674 1.11355
3412.69830 1.11366
3410.64987 1.11420
3408.60143 1.11431
3406.55299 1.11391
3404.50455 1.11387
3402.45611 1.11422
3400.40767 1.11413
3398.35924 1.11375
3396.31080 1.11360
3394.26236 1.11343
3392.21392 1.11323
3390.16548 1.11301
3388.11704 1.11265
3386.06861 1.11269
3384.02017 1.11330
3381.97173 1.11371
3379.92329 1.11360
3377.87485 1.11341
3375.82641 1.11330
3373.77798 1.11305
3371.72954 1.11267
3369.68110 1.11245
3367.63266 1.11241
3365.58422 1.11222
3363.53578 1.11189
3361.48735 1.11163
3359.43891 1.11159
3357.39047 1.11175
3355.34203 1.11184
3353.29359 1.11149
3351.24515 1.11115
3349.19672 1.11123
3347.14828 1.11154
3345.09984 1.11192
3343.05140 1.11190
3341.00296 1.11165
3338.95452 1.11164
3336.90609 1.11148
3334.85765 1.11123
3332.80921 1.11157
3330.76077 1.11246
3328.71233 1.11319
3326.66389 1.11332
3324.61545 1.11311
3322.56702 1.11275
3320.51858 1.11239
3318.47014 1.11251
3316.42170 1.11307
3314.37326 1.11358
3312.32482 1.11381
3310.27639 1.11382
3308.22795 1.11388
3306.17951 1.11388
3304.13107 1.11359
3302.08263 1.11326
3300.03419 1.11327
3297.98576 1.11332
3295.93732 1.11313
3293.88888 1.11304
3291.84044 1.11300
3289.79200 1.11276
3287.74356 1.11260
3285.69513 1.11272
3283.64669 1.11288
3281.59825 1.11298
3279.54981 1.11301
3277.50137 1.11298
3275.45293 1.11317
3273.40450 1.11364
3271.35606 1.11393
3269.30762 1.11383
3267.25918 1.11369
3265.21074 1.11382
3263.16230 1.11404
3261.11387 1.11394
3259.06543 1.11351
3257.01699 1.11298
3254.96855 1.11276
3252.92011 1.11293
3250.87167 1.11306
3248.82324 1.11305
3246.77480 1.11301
3244.72636 1.11287
3242.67792 1.11266
3240.62948 1.11242
3238.58104 1.11235
3236.53261 1.11269
3234.48417 1.11300
3232.43573 1.11296
3230.38729 1.11252
3228.33885 1.11171
3226.29041 1.11099
3224.24198 1.11073
3222.19354 1.11061
3220.14510 1.11062
3218.09666 1.11098
3216.04822 1.11110
3213.99978 1.11079
3211.95135 1.11063
3209.90291 1.11059
3207.85447 1.11066
3205.80603 1.11070
3203.75759 1.11034
3201.70915 1.10979
3199.66072 1.10962
3197.61228 1.10981
3195.56384 1.10976
3193.51540 1.10929
3191.46696 1.10878
3189.41852 1.10847
3187.37008 1.10844
3185.32165 1.10876
3183.27321 1.10918
3181.22477 1.10915
3179.17633 1.10895
3177.12789 1.10893
3175.07945 1.10893
3173.03102 1.10897
3170.98258 1.10891
3168.93414 1.10862
3166.88570 1.10821
3164.83726 1.10793
3162.78882 1.10805
3160.74039 1.10823
3158.69195 1.10798
3156.64351 1.10746
3154.59507 1.10707
3152.54663 1.10700
3150.49819 1.10712
3148.44976 1.10730
3146.40132 1.10736
3144.35288 1.10677
3142.30444 1.10576
3140.25600 1.10532
3138.20756 1.10543
3136.15913 1.10520
3134.11069 1.10460
3132.06225 1.10445
3130.01381 1.10468
3127.96537 1.10446
3125.91693 1.10385
3123.86850 1.10327
3121.82006 1.10291
3119.77162 1.10274
3117.72318 1.10271
3115.67474 1.10279
3113.62630 1.10281
3111.57787 1.10251
3109.52943 1.10200
3107.48099 1.10181
3105.43255 1.10192
3103.38411 1.10158
3101.33567 1.10093
3099.28724 1.10065
3097.23880 1.10074
3095.19036 1.10094
3093.14192 1.10092
3091.09348 1.10074
3089.04504 1.10083
3086.99661 1.10102
3084.94817 1.10093
3082.89973 1.10074
3080.85129 1.10081
3078.80285 1.10097
3076.75441 1.10099
3074.70598 1.10085
3072.65754 1.10074
3070.60910 1.10095
3068.56066 1.10130
3066.51222 1.10138
3064.46378 1.10125
3062.41535 1.10108
3060.36691 1.10067
3058.31847 1.10006
3056.27003 1.09967
3054.22159 1.09991
3052.17315 1.10042
3050.12471 1.10058
3048.07628 1.10040
3046.02784 1.10018
3043.97940 1.09996
3041.93096 1.09990
3039.88252 1.10015
3037.83408 1.10031
3035.78565 1.10009
3033.73721 1.09970
3031.68877 1.09950
3029.64033 1.09963
3027.59189 1.09975
3025.54345 1.09981
3023.49502 1.10018
3021.44658 1.10063
3019.39814 1.10089
3017.34970 1.10101
3015.30126 1.10085
3013.25282 1.10063
3011.20439 1.10069
3009.15595 1.10100
3007.10751 1.10145
3005.05907 1.10184
3003.01063 1.10187
3000.96219 1.10150
2998.91376 1.10106
2996.86532 1.10096
2994.81688 1.10129
2992.76844 1.10171
2990.72000 1.10210
2988.67156 1.10274
2986.62313 1.10364
2984.57469 1.10453
2982.52625 1.10538
2980.47781 1.10650
2978.42937 1.10810
2976.38093 1.10981
2974.33250 1.11155
2972.28406 1.11355
2970.23562 1.11553
2968.18718 1.11722
2966.13874 1.11882
2964.09030 1.12051
2962.04187 1.12205
2959.99343 1.12347
2957.94499 1.12494
2955.89655 1.12594
2953.84811 1.12616
2951.79967 1.12585
2949.75124 1.12533
2947.70280 1.12510
2945.65436 1.12567
2943.60592 1.12703
2941.55748 1.12863
2939.50904 1.13023
2937.46061 1.13204
2935.41217 1.13395
2933.36373 1.13580
2931.31529 1.13755
2929.26685 1.13909
2927.21841 1.14049
2925.16998 1.14163
2923.12154 1.14216
2921.07310 1.14201
2919.02466 1.14142
2916.97622 1.14043
2914.92778 1.13914
2912.87934 1.13774
2910.83091 1.13615
2908.78247 1.13433
2906.73403 1.13250
2904.68559 1.13098
2902.63715 1.13004
2900.58871 1.12940
2898.54028 1.12854
2896.49184 1.12763
2894.44340 1.12683
2892.39496 1.12599
2890.34652 1.12512
2888.29808 1.12427
2886.24965 1.12346
2884.20121 1.12277
2882.15277 1.12230
2880.10433 1.12209
2878.05589 1.12206
2876.00745 1.12230
2873.95902 1.12291
2871.91058 1.12364
2869.86214 1.12435
2867.81370 1.12490
2865.76526 1.12536
2863.71682 1.12637
2861.66839 1.12809
2859.61995 1.13001
2857.57151 1.13185
2855.52307 1.13337
2853.47463 1.13415
2851.42619 1.13405
2849.37776 1.13301
2847.32932 1.13091
2845.28088 1.12783
2843.23244 1.12412
2841.18400 1.12054
2839.13556 1.11747
2837.08713 1.11484
2835.03869 1.11271
2832.99025 1.11110
2830.94181 1.10982
2828.89337 1.10858
2826.84493 1.10727
2824.79650 1.10594
2822.74806 1.10472
2820.69962 1.10377
2818.65118 1.10315
2816.60274 1.10261
2814.55430 1.10192
2812.50587 1.10104
2810.45743 1.09999
2808.40899 1.09893
2806.36055 1.09812
2804.31211 1.09765
2802.26367 1.09733
2800.21524 1.09693
2798.16680 1.09645
2796.11836 1.09605
2794.06992 1.09567
2792.02148 1.09508
2789.97304 1.09443
2787.92461 1.09409
2785.87617 1.09376
2783.82773 1.09315
2781.77929 1.09253
2779.73085 1.09205
2777.68241 1.09173
2775.63397 1.09155
2773.58554 1.09149
2771.53710 1.09127
2769.48866 1.09088
2767.44022 1.09076
2765.39178 1.09087
2763.34334 1.09087
2761.29491 1.09074
2759.24647 1.09061
2757.19803 1.09056
2755.14959 1.09064
2753.10115 1.09069
2751.05271 1.09066
2749.00428 1.09053
2746.95584 1.09021
2744.90740 1.08993
2742.85896 1.08995
2740.81052 1.09007
2738.76208 1.09011
2736.71365 1.09016
2734.66521 1.09036
2732.61677 1.09064
2730.56833 1.09083
2728.51989 1.09097
2726.47145 1.09105
2724.42302 1.09107
2722.37458 1.09106
2720.32614 1.09096
2718.27770 1.09086
2716.22926 1.09090
2714.18082 1.09097
2712.13239 1.09112
2710.08395 1.09156
2708.03551 1.09215
2705.98707 1.09244
2703.93863 1.09256
2701.89019 1.09290
2699.84176 1.09331
2697.79332 1.09356
2695.74488 1.09367
2693.69644 1.09371
2691.64800 1.09387
2689.59956 1.09435
2687.55113 1.09511
2685.50269 1.09585
2683.45425 1.09637
2681.40581 1.09656
2679.35737 1.09646
2677.30893 1.09643
2675.26050 1.09681
2673.21206 1.09753
2671.16362 1.09835
2669.11518 1.09893
2667.06674 1.09901
2665.01830 1.09898
2662.96987 1.09934
2660.92143 1.09987
2658.87299 1.10018
2656.82455 1.10061
2654.77611 1.10129
2652.72767 1.10182
2650.67924 1.10212
2648.63080 1.10233
2646.58236 1.10241
2644.53392 1.10240
2642.48548 1.10246
2640.43704 1.10260
2638.38860 1.10274
2636.34017 1.10286
2634.29173 1.10289
2632.24329 1.10286
2630.19485 1.10285
2628.14641 1.10282
2626.09797 1.10288
2624.04954 1.10304
2622.00110 1.10316
2619.95266 1.10313
2617.90422 1.10297
2615.85578 1.10283
2613.80734 1.10262
2611.75891 1.10219
2609.71047 1.10176
2607.66203 1.10162
2605.61359 1.10171
2603.56515 1.10168
2601.51671 1.10129
2599.46828 1.10073
2597.41984 1.10039
2595.37140 1.10030
2593.32296 1.10016
2591.27452 1.09988
2589.22608 1.09949
2587.17765 1.09897
2585.12921 1.09852
2583.08077 1.09831
2581.03233 1.09819
2578.98389 1.09780
2576.93545 1.09724
2574.88702 1.09705
2572.83858 1.09714
2570.79014 1.09689
2568.74170 1.09623
2566.69326 1.09562
2564.64482 1.09525
2562.59639 1.09480
2560.54795 1.09435
2558.49951 1.09429
2556.45107 1.09445
2554.40263 1.09438
2552.35419 1.09387
2550.30576 1.09310
2548.25732 1.09241
2546.20888 1.09195
2544.16044 1.09170
2542.11200 1.09155
2540.06356 1.09135
2538.01513 1.09106
2535.96669 1.09087
2533.91825 1.09090
2531.86981 1.09109
2529.82137 1.09130
2527.77293 1.09138
2525.72450 1.09110
2523.67606 1.09069
2521.62762 1.09090
2519.57918 1.09164
2517.53074 1.09197
2515.48230 1.09179
2513.43387 1.09144
2511.38543 1.09118
2509.33699 1.09137
2507.28855 1.09197
2505.24011 1.09257
2503.19167 1.09287
2501.14324 1.09289
2499.09480 1.09297
2497.04636 1.09327
2494.99792 1.09351
2492.94948 1.09363
2490.90104 1.09404
2488.85260 1.09483
2486.80417 1.09564
2484.75573 1.09606
2482.70729 1.09603
2480.65885 1.09599
2478.61041 1.09642
2476.56197 1.09720
2474.51354 1.09783
2472.46510 1.09816
2470.41666 1.09859
2468.36822 1.09925
2466.31978 1.09975
2464.27134 1.10018
2462.22291 1.10073
2460.17447 1.10122
2458.12603 1.10162
2456.07759 1.10215
2454.02915 1.10295
2451.98071 1.10395
2449.93228 1.10482
2447.88384 1.10547
2445.83540 1.10616
2443.78696 1.10751
2441.73852 1.11016
2439.69008 1.11387
2437.64165 1.11769
2435.59321 1.12147
2433.54477 1.12580
2431.49633 1.13066
2429.44789 1.13504
2427.39945 1.13741
2425.35102 1.13669
2423.30258 1.13303
2421.25414 1.12785
2419.20570 1.12297
2417.15726 1.11955
2415.10882 1.11730
2413.06039 1.11533
2411.01195 1.11367
2408.96351 1.11273
2406.91507 1.11237
2404.86663 1.11224
2402.81819 1.11216
2400.76976 1.11222
2398.72132 1.11236
2396.67288 1.11228
2394.62444 1.11197
2392.57600 1.11160
2390.52756 1.11105
2388.47913 1.11048
2386.43069 1.11007
2384.38225 1.10898
2382.33381 1.10653
2380.28537 1.10344
2378.23693 1.10067
2376.18850 1.09803
2374.14006 1.09496
2372.09162 1.09112
2370.04318 1.08685
2367.99474 1.08386
2365.94630 1.08297
2363.89787 1.08210
2361.84943 1.07951
2359.80099 1.07744
2357.75255 1.07958
2355.70411 1.08543
2353.65567 1.09146
2351.60723 1.09557
2349.55880 1.09540
2347.51036 1.09108
2345.46192 1.08617
2343.41348 1.08492
2341.36504 1.08627
2339.31660 1.08774
2337.26817 1.08886
2335.21973 1.08917
2333.17129 1.08841
2331.12285 1.08738
2329.07441 1.08707
2327.02597 1.08719
2324.97754 1.08713
2322.92910 1.08697
2320.88066 1.08749
2318.83222 1.08857
2316.78378 1.08910
2314.73534 1.08912
2312.68691 1.08963
2310.63847 1.09049
2308.59003 1.09083
2306.54159 1.09074
2304.49315 1.09071
2302.44471 1.09086
2300.39628 1.09108
2298.34784 1.09129
2296.29940 1.09141
2294.25096 1.09114
2292.20252 1.09070
2290.15408 1.09079
2288.10565 1.09116
2286.05721 1.09107
2284.00877 1.09065
2281.96033 1.09015
2279.91189 1.08957
2277.86345 1.08921
2275.81502 1.08930
2273.76658 1.08968
2271.71814 1.08986
2269.66970 1.08977
2267.62126 1.08979
2265.57282 1.08974
2263.52439 1.08925
2261.47595 1.08878
2259.42751 1.08897
2257.37907 1.08954
2255.33063 1.08993
2253.28219 1.09003
2251.23376 1.08994
2249.18532 1.08998
2247.13688 1.09060
2245.08844 1.09159
2243.04000 1.09220
2240.99156 1.09232
2238.94313 1.09236
2236.89469 1.09241
2234.84625 1.09263
2232.79781 1.09304
2230.74937 1.09342
2228.70093 1.09379
2226.65250 1.09418
2224.60406 1.09447
2222.55562 1.09475
2220.50718 1.09532
2218.45874 1.09587
2216.41030 1.09615
2214.36186 1.09659
2212.31343 1.09724
2210.26499 1.09780
2208.21655 1.09829
2206.16811 1.09887
2204.11967 1.09951
2202.07123 1.09982
2200.02280 1.09977
2197.97436 1.09997
2195.92592 1.10078
2193.87748 1.10185
2191.82904 1.10272
2189.78060 1.10330
2187.73217 1.10364
2185.68373 1.10388
2183.63529 1.10424
2181.58685 1.10501
2179.53841 1.10605
2177.48997 1.10686
2175.44154 1.10724
2173.39310 1.10721
2171.34466 1.10706
2169.29622 1.10730
2167.24778 1.10801
2165.19934 1.10877
2163.15091 1.10910
2161.10247 1.10893
2159.05403 1.10871
2157.00559 1.10882
2154.95715 1.10912
2152.90871 1.10928
2150.86028 1.10921
2148.81184 1.10915
2146.76340 1.10906
2144.71496 1.10875
2142.66652 1.10851
2140.61808 1.10873
2138.56965 1.10921
2136.52121 1.10979
2134.47277 1.11028
2132.42433 1.11027
2130.37589 1.11001
2128.32745 1.10998
2126.27902 1.11009
2124.23058 1.11004
2122.18214 1.10976
2120.13370 1.10940
2118.08526 1.10893
2116.03682 1.10838
2113.98839 1.10797
2111.93995 1.10793
2109.89151 1.10811
2107.84307 1.10807
2105.79463 1.10763
2103.74619 1.10663
2101.69776 1.10540
2099.64932 1.10485
2097.60088 1.10514
2095.55244 1.10542
2093.50400 1.10505
2091.45556 1.10419
2089.40713 1.10347
2087.35869 1.10308
2085.31025 1.10272
2083.26181 1.10216
2081.21337 1.10146
2079.16493 1.10076
2077.11649 1.10014
2075.06806 1.09964
2073.01962 1.09926
2070.97118 1.09905
2068.92274 1.09897
2066.87430 1.09872
2064.82586 1.09834
2062.77743 1.09796
2060.72899 1.09751
2058.68055 1.09709
2056.63211 1.09690
2054.58367 1.09701
2052.53523 1.09728
2050.48680 1.09747
2048.43836 1.09731
2046.38992 1.09692
2044.34148 1.09668
2042.29304 1.09664
2040.24460 1.09678
2038.19617 1.09700
2036.14773 1.09725
2034.09929 1.09730
2032.05085 1.09719
2030.00241 1.09741
2027.95397 1.09772
2025.90554 1.09788
2023.85710 1.09819
2021.80866 1.09841
2019.76022 1.09809
2017.71178 1.09794
2015.66334 1.09849
2013.61491 1.09878
2011.56647 1.09870
2009.51803 1.09891
2007.46959 1.09939
2005.42115 1.09988
2003.37271 1.10028
2001.32428 1.10078
1999.27584 1.10130
1997.22740 1.10142
1995.17896 1.10096
1993.13052 1.10070
1991.08208 1.10170
1989.03365 1.10329
1986.98521 1.10470
1984.93677 1.10570
1982.88833 1.10584
1980.83989 1.10553
1978.79145 1.10548
1976.74302 1.10599
1974.69458 1.10695
1972.64614 1.10805
1970.59770 1.10842
1968.54926 1.10818
1966.50082 1.10867
1964.45239 1.10979
1962.40395 1.11045
1960.35551 1.11067
1958.30707 1.11080
1956.25863 1.11105
1954.21019 1.11183
1952.16176 1.11321
1950.11332 1.11452
1948.06488 1.11480
1946.01644 1.11374
1943.96800 1.11260
1941.91956 1.11369
1939.87112 1.11593
1937.82269 1.11693
1935.77425 1.11737
1933.72581 1.11802
1931.67737 1.11853
1929.62893 1.11859
1927.58049 1.11822
1925.53206 1.11751
1923.48362 1.11753
1921.43518 1.11821
1919.38674 1.11816
1917.33830 1.11921
1915.28986 1.12097
1913.24143 1.12089
1911.19299 1.12002
1909.14455 1.12026
1907.09611 1.12132
1905.04767 1.12181
1902.99923 1.12190
1900.95080 1.12202
1898.90236 1.12165
1896.85392 1.12093
1894.80548 1.12099
1892.75704 1.12099
1890.70860 1.12044
1888.66017 1.12172
1886.61173 1.12337
1884.56329 1.12354
1882.51485 1.12351
1880.46641 1.12343
1878.41797 1.12298
1876.36954 1.12225
1874.32110 1.12118
1872.27266 1.11895
1870.22422 1.11652
1868.17578 1.11808
1866.12734 1.12188
1864.07891 1.12280
1862.03047 1.12194
1859.98203 1.12121
1857.93359 1.12089
1855.88515 1.12078
1853.83671 1.12075
1851.78828 1.12023
1849.73984 1.11849
1847.69140 1.11582
1845.64296 1.11416
1843.59452 1.11682
1841.54608 1.11998
1839.49765 1.11936
1837.44921 1.11797
1835.40077 1.11753
1833.35233 1.11576
1831.30389 1.11311
1829.25545 1.11388
1827.20702 1.11581
1825.15858 1.11634
1823.11014 1.11742
1821.06170 1.11777
1819.01326 1.11722
1816.96482 1.11700
1814.91639 1.11661
1812.86795 1.11560
1810.81951 1.11572
1808.77107 1.11703
1806.72263 1.11721
1804.67419 1.11596
1802.62575 1.11446
1800.57732 1.11463
1798.52888 1.11563
1796.48044 1.11454
1794.43200 1.11171
1792.38356 1.11218
1790.33512 1.11752
1788.28669 1.12007
1786.23825 1.11966
1784.18981 1.11955
1782.14137 1.11974
1780.09293 1.12047
1778.04449 1.12098
1775.99606 1.11870
1773.94762 1.11514
1771.89918 1.11631
1769.85074 1.12141
1767.80230 1.12496
1765.75386 1.12645
1763.70543 1.12575
1761.65699 1.12659
1759.60855 1.12932
1757.56011 1.13131
1755.51167 1.13347
1753.46323 1.13333
1751.41480 1.13227
1749.36636 1.13566
1747.31792 1.14136
1745.26948 1.14535
1743.22104 1.14811
1741.17260 1.15055
1739.12417 1.15296
1737.07573 1.15223
1735.02729 1.14919
1732.97885 1.15188
1730.93041 1.15606
1728.88197 1.15709
1726.83354 1.15680
1724.78510 1.15581
1722.73666 1.15458
1720.68822 1.15096
1718.63978 1.14574
1716.59134 1.14727
1714.54291 1.15366
1712.49447 1.15620
1710.44603 1.15581
1708.39759 1.15399
1706.34915 1.15302
1704.30071 1.15314
1702.25228 1.15046
1700.20384 1.14798
1698.15540 1.14958
1696.10696 1.15363
1694.05852 1.15896
1692.01008 1.15951
1689.96165 1.15724
1687.91321 1.15419
1685.86477 1.14936
1683.81633 1.15107
1681.76789 1.15895
1679.71945 1.16140
1677.67102 1.16019
1675.62258 1.15880
1673.57414 1.15897
1671.52570 1.15834
1669.47726 1.16123
1667.42882 1.16712
1665.38038 1.16753
1663.33195 1.16609
1661.28351 1.16799
1659.23507 1.16920
1657.18663 1.16576
1655.13819 1.15837
1653.08975 1.15807
1651.04132 1.16489
1648.99288 1.16254
1646.94444 1.16224
1644.89600 1.16927
1642.84756 1.17169
1640.79912 1.16982
1638.75069 1.16565
1636.70225 1.16274
1634.65381 1.16828
1632.60537 1.17189
1630.55693 1.17022
1628.50849 1.16831
1626.46006 1.16719
1624.41162 1.16584
1622.36318 1.16646
1620.31474 1.16608
1618.26630 1.16291
1616.21786 1.16350
1614.16943 1.16647
1612.12099 1.16577
1610.07255 1.16444
1608.02411 1.16517
1605.97567 1.16623
1603.92723 1.16589
1601.87880 1.16554
1599.83036 1.16578
1597.78192 1.16531
1595.73348 1.16411
1593.68504 1.16319
1591.63660 1.16276
1589.58817 1.16297
1587.53973 1.16385
1585.49129 1.16467
1583.44285 1.16472
1581.39441 1.16333
1579.34597 1.15960
1577.29754 1.15582
1575.24910 1.15769
1573.20066 1.15876
1571.15222 1.15595
1569.10378 1.15550
1567.05534 1.15700
1565.00691 1.15650
1562.95847 1.15349
1560.91003 1.14663
1558.86159 1.14502
1556.81315 1.15491
1554.76471 1.15736
1552.71628 1.15682
1550.66784 1.15629
1548.61940 1.15628
1546.57096 1.15418
1544.52252 1.14916
1542.47408 1.14359
1540.42565 1.14502
1538.37721 1.15380
1536.32877 1.15396
1534.28033 1.15098
1532.23189 1.15185
1530.18345 1.15181
1528.13501 1.14863
1526.08658 1.14602
1524.03814 1.14367
1521.98970 1.14304
1519.94126 1.14663
1517.89282 1.14877
1515.84438 1.15063
1513.79595 1.15158
1511.74751 1.14897
1509.69907 1.14310
1507.65063 1.14111
1505.60219 1.15323
1503.55375 1.15763
1501.50532 1.15537
1499.45688 1.15314
1497.40844 1.15433
1495.36000 1.15741
1493.31156 1.15618
1491.26312 1.15224
1489.21469 1.15314
1487.16625 1.15952
1485.11781 1.16347
1483.06937 1.16472
1481.02093 1.16576
1478.97249 1.16647
1476.92406 1.16597
1474.87562 1.16612
1472.82718 1.17156
1470.77874 1.18013
1468.73030 1.18352
1466.68186 1.18417
1464.63343 1.18688
1462.58499 1.18880
1460.53655 1.18540
1458.48811 1.18042
1456.43967 1.18437
1454.39123 1.18947
1452.34280 1.18932
1450.29436 1.18838
1448.24592 1.18899
1446.19748 1.19048
1444.14904 1.19063
1442.10060 1.18974
1440.05217 1.18798
1438.00373 1.18619
1435.95529 1.18806
1433.90685 1.18992
1431.85841 1.18835
1429.80997 1.18711
1427.76154 1.18758
1425.71310 1.18791
1423.66466 1.18840
1421.61622 1.18788
1419.56778 1.18689
1417.51934 1.18926
1415.47091 1.19109
1413.42247 1.19053
1411.37403 1.18996
1409.32559 1.19042
1407.27715 1.19082
1405.22871 1.19120
1403.18028 1.19130
1401.13184 1.18966
1399.08340 1.18781
1397.03496 1.18717
1394.98652 1.18831
1392.93808 1.19121
1390.88965 1.19219
1388.84121 1.19087
1386.79277 1.19032
1384.74433 1.19071
1382.69589 1.19026
1380.64745 1.18974
1378.59901 1.18942
1376.55058 1.18847
1374.50214 1.18836
1372.45370 1.18972
1370.40526 1.19008
1368.35682 1.18995
1366.30838 1.18924
1364.25995 1.18707
1362.21151 1.18648
1360.16307 1.18829
1358.11463 1.18922
1356.06619 1.18883
1354.01775 1.18775
1351.96932 1.18633
1349.92088 1.18538
1347.87244 1.18539
1345.82400 1.18606
1343.77556 1.18607
1341.72712 1.18439
1339.67869 1.18264
1337.63025 1.18240
1335.58181 1.18267
1333.53337 1.18327
1331.48493 1.18449
1329.43649 1.18592
1327.38806 1.18692
1325.33962 1.18725
1323.29118 1.18707
1321.24274 1.18659
1319.19430 1.18631
1317.14586 1.18664
1315.09743 1.18715
1313.04899 1.18770
1311.00055 1.18824
1308.95211 1.18854
1306.90367 1.18913
1304.85523 1.19028
1302.80680 1.19114
1300.75836 1.19130
1298.70992 1.19143
1296.66148 1.19191
1294.61304 1.19265
1292.56460 1.19338
1290.51617 1.19343
1288.46773 1.19265
1286.41929 1.19187
1284.37085 1.19185
1282.32241 1.19276
1280.27397 1.19413
1278.22554 1.19526
1276.17710 1.19566
1274.12866 1.19591
1272.08022 1.19744
1270.03178 1.20014
1267.98334 1.20274
1265.93491 1.20484
1263.88647 1.20597
1261.83803 1.20529
1259.78959 1.20343
1257.74115 1.20241
1255.69271 1.20344
1253.64428 1.20528
1251.59584 1.20571
1249.54740 1.20446
1247.49896 1.20318
1245.45052 1.20301
1243.40208 1.20385
1241.35364 1.20538
1239.30521 1.20710
1237.25677 1.20818
1235.20833 1.20837
1233.15989 1.20818
1231.11145 1.20839
1229.06301 1.20914
1227.01458 1.20981
1224.96614 1.21022
1222.91770 1.21090
1220.86926 1.21208
1218.82082 1.21256
1216.77238 1.21146
1214.72395 1.21040
1212.67551 1.21095
1210.62707 1.21255
1208.57863 1.21445
1206.53019 1.21660
1204.48175 1.21864
1202.43332 1.21985
1200.38488 1.22007
1198.33644 1.21985
1196.28800 1.22008
1194.23956 1.22043
1192.19112 1.21987
1190.14269 1.21880
1188.09425 1.21875
1186.04581 1.22051
1183.99737 1.22313
1181.94893 1.22517
1179.90049 1.22578
1177.85206 1.22523
1175.80362 1.22518
1173.75518 1.22639
1171.70674 1.22806
1169.65830 1.22940
1167.60986 1.22988
1165.56143 1.22982
1163.51299 1.22966
1161.46455 1.22917
1159.41611 1.22905
1157.36767 1.22977
1155.31923 1.23027
1153.27080 1.23011
1151.22236 1.23023
1149.17392 1.23102
1147.12548 1.23167
1145.07704 1.23195
1143.02860 1.23211
1140.98017 1.23146
1138.93173 1.22998
1136.88329 1.22937
1134.83485 1.23099
1132.78641 1.23419
1130.73797 1.23641
1128.68954 1.23555
1126.64110 1.23310
1124.59266 1.23210
1122.54422 1.23336
1120.49578 1.23556
1118.44734 1.23709
1116.39891 1.23776
1114.35047 1.23830
1112.30203 1.23856
1110.25359 1.23848
1108.20515 1.23911
1106.15671 1.24028
1104.10827 1.24096
1102.05984 1.24140
1100.01140 1.24252
1097.96296 1.24369
1095.91452 1.24301
1093.86608 1.24093
1091.81764 1.23911
1089.76921 1.23795
1087.72077 1.23738
1085.67233 1.23715
1083.62389 1.23696
1081.57545 1.23681
1079.52701 1.23658
1077.47858 1.23611
1075.43014 1.23596
1073.38170 1.23642
1071.33326 1.23702
1069.28482 1.23730
1067.23638 1.23720
1065.18795 1.23707
1063.13951 1.23753
1061.09107 1.23870
1059.04263 1.23934
1056.99419 1.23901
1054.94575 1.23914
1052.89732 1.24012
1050.84888 1.24086
1048.80044 1.24096
1046.75200 1.24059
1044.70356 1.23942
1042.65512 1.23853
1040.60669 1.23981
1038.55825 1.24231
1036.50981 1.24315
1034.46137 1.24105
1032.41293 1.23746
1030.36449 1.23501
1028.31606 1.23478
1026.26762 1.23632
1024.21918 1.23882
1022.17074 1.24049
1020.12230 1.24024
1018.07386 1.23860
1016.02543 1.23629
1013.97699 1.23481
1011.92855 1.23574
1009.88011 1.23789
1007.83167 1.23838
1005.78323 1.23672
1003.73480 1.23514
1001.68636 1.23522
999.63792 1.23647
997.58948 1.23768
995.54104 1.23782
993.49260 1.23684
991.44417 1.23565
989.39573 1.23496
987.34729 1.23504
985.29885 1.23577
983.25041 1.23591
981.20197 1.23469
979.15354 1.23301
977.10510 1.23159
975.05666 1.23077
973.00822 1.23129
970.95978 1.23325
968.91134 1.23501
966.86290 1.23506
964.81447 1.23379
962.76603 1.23246
960.71759 1.23177
958.66915 1.23211
956.62071 1.23377
954.57227 1.23590
952.52384 1.23750
950.47540 1.23791
948.42696 1.23682
946.37852 1.23593
944.33008 1.23684
942.28164 1.23852
940.23321 1.23964
938.18477 1.24038
936.13633 1.24109
934.08789 1.24160
932.03945 1.24237
929.99101 1.24401
927.94258 1.24559
925.89414 1.24601
923.84570 1.24605
921.79726 1.24751
919.74882 1.25058
917.70038 1.25350
915.65195 1.25494
913.60351 1.25434
911.55507 1.25264
909.50663 1.25249
907.45819 1.25514
905.40975 1.25940
903.36132 1.26268
901.31288 1.26286
899.26444 1.26049
897.21600 1.25852
895.16756 1.25974
893.11912 1.26419
891.07069 1.26951
889.02225 1.27344
886.97381 1.27525
884.92537 1.27506
882.87693 1.27373
880.82849 1.27387
878.78006 1.27656
876.73162 1.27978
874.68318 1.28127
872.63474 1.27969
870.58630 1.27658
868.53786 1.27648
866.48943 1.28016
864.44099 1.28265
862.39255 1.28222
860.34411 1.28162
858.29567 1.28201
856.24723 1.28417
854.19880 1.28811
852.15036 1.29058
850.10192 1.28996
848.05348 1.28872
846.00504 1.28905
843.95660 1.29143
841.90817 1.29510
839.85973 1.29773
837.81129 1.29784
835.76285 1.29719
833.71441 1.29815
831.66597 1.30118
829.61753 1.30603
827.56910 1.31054
825.52066 1.31080
823.47222 1.30830
821.42378 1.30841
819.37534 1.31128
817.32690 1.31373
815.27847 1.31500
813.23003 1.31585
811.18159 1.31713
809.13315 1.31945
807.08471 1.32183
805.03627 1.32238
802.98784 1.32228
800.93940 1.32552
798.89096 1.33270
796.84252 1.34012
794.79408 1.34552
792.74564 1.34981
790.69721 1.35357
788.64877 1.35611
786.60033 1.35784
784.55189 1.36090
782.50345 1.36644
780.45501 1.37372
778.40658 1.38196
776.35814 1.38867
774.30970 1.39077
772.26126 1.38994
770.21282 1.38958
768.16438 1.39212
766.11595 1.39846
764.06751 1.40585
762.01907 1.41190
759.97063 1.41650
757.92219 1.42023
755.87375 1.42405
753.82532 1.42833
751.77688 1.43204
749.72844 1.43340
747.68000 1.43200
745.63156 1.42977
743.58312 1.42943
741.53469 1.43229
739.48625 1.43762
737.43781 1.44184
735.38937 1.44179
733.34093 1.43833
731.29249 1.43567
729.24406 1.43831
727.19562 1.44516
725.14718 1.45120
723.09874 1.45346
721.05030 1.45141
719.00186 1.44679
716.95343 1.44448
714.90499 1.44763
712.85655 1.45354
710.80811 1.45782
708.75967 1.45925
706.71123 1.45888
704.66280 1.46061
702.61436 1.46694
700.56592 1.47352
698.51748 1.47551
696.46904 1.47375
694.42060 1.47342
692.37216 1.47406
690.32373 1.47112
688.27529 1.46381
686.22685 1.45402
684.17841 1.44902
682.12997 1.45316
680.08153 1.46047
678.03310 1.46330
675.98466 1.46328
673.93622 1.46415
671.88778 1.46200
669.83934 1.45488
667.79090 1.45253
665.74247 1.45973
663.69403 1.46640
661.64559 1.47513
659.59715 1.48580
657.54871 1.49112
655.50027 1.48908
653.45184 1.48512
651.40340 1.48297
649.35496 1.48337
647.30652 1.48926
645.25808 1.49802
643.20964 1.49946
641.16121 1.49146
639.11277 1.47900
637.06433 1.46481
635.01589 1.45355
632.96745 1.44753
630.91901 1.44428
628.87058 1.44123
626.82214 1.44201
624.77370 1.45253
622.72526 1.46411
620.67682 1.46609
618.62838 1.45749
616.57995 1.44462
614.53151 1.43381
612.48307 1.42773
610.43463 1.43324
608.38619 1.43980
606.33775 1.42873
604.28932 1.40926
602.24088 1.40201
600.19244 1.40537
598.14400 1.40799
