3996.50324 1.04275
3994.45480 1.04305
3992.40636 1.04343
3990.35792 1.04369
3988.30948 1.04334
3986.26104 1.04289
3984.21261 1.04320
3982.16417 1.04357
3980.11573 1.04338
3978.06729 1.04321
3976.01885 1.04356
3973.97041 1.04416
3971.92198 1.04458
3969.87354 1.04477
3967.82510 1.04471
3965.77666 1.04446
3963.72822 1.04456
3961.67978 1.04513
3959.63135 1.04543
3957.58291 1.04559
3955.53447 1.04578
3953.48603 1.04568
3951.43759 1.04625
3949.38915 1.04811
3947.34072 1.04900
3945.29228 1.04814
3943.24384 1.04841
3941.19540 1.04933
3939.14696 1.04845
3937.09852 1.04726
3935.05009 1.04736
3933.00165 1.04935
3930.95321 1.05187
3928.90477 1.05161
3926.85633 1.05007
3924.80789 1.05037
3922.75946 1.05056
3920.71102 1.04917
3918.66258 1.04914
3916.61414 1.05041
3914.56570 1.04975
3912.51726 1.04769
3910.46883 1.04653
3908.42039 1.04634
3906.37195 1.04749
3904.32351 1.05160
3902.27507 1.05560
3900.22663 1.05710
3898.17820 1.05682
3896.12976 1.05392
3894.08132 1.05117
3892.03288 1.05240
3889.98444 1.05396
3887.93600 1.05203
3885.88756 1.05239
3883.83913 1.05488
3881.79069 1.05467
3879.74225 1.05452
3877.69381 1.05286
3875.64537 1.05133
3873.59693 1.05309
3871.54850 1.05562
3869.50006 1.05808
3867.45162 1.05750
3865.40318 1.05607
3863.35474 1.05757
3861.30630 1.05685
3859.25787 1.05363
3857.20943 1.05104
3855.16099 1.05145
3853.11255 1.06122
3851.06411 1.06516
3849.01567 1.05906
3846.96724 1.05369
3844.91880 1.05253
3842.87036 1.05457
3840.82192 1.05682
3838.77348 1.06006
3836.72504 1.06257
3834.67661 1.06048
3832.62817 1.05714
3830.57973 1.05479
3828.53129 1.05329
3826.48285 1.05326
3824.43441 1.05274
3822.38598 1.05292
3820.33754 1.05725
3818.28910 1.05694
3816.24066 1.05507
3814.19222 1.05439
3812.14378 1.05106
3810.09535 1.04812
3808.04691 1.04935
3805.99847 1.05313
3803.95003 1.05343
3801.90159 1.05525
3799.85315 1.05771
3797.80472 1.05515
3795.75628 1.05272
3793.70784 1.05044
3791.65940 1.04820
3789.61096 1.04755
3787.56252 1.04804
3785.51409 1.04955
3783.46565 1.05026
3781.41721 1.04984
3779.36877 1.05138
3777.32033 1.05193
3775.27189 1.04974
3773.22346 1.04841
3771.17502 1.05020
3769.12658 1.05391
3767.07814 1.05514
3765.02970 1.05471
3762.98126 1.05333
3760.93283 1.05273
3758.88439 1.05589
3756.83595 1.05768
3754.78751 1.05605
3752.73907 1.05741
3750.69063 1.06698
3748.64219 1.07095
3746.59376 1.06639
3744.54532 1.06509
3742.49688 1.06595
3740.44844 1.06307
3738.40000 1.06117
3736.35156 1.06542
3734.30313 1.07143
3732.25469 1.06888
3730.20625 1.06263
3728.15781 1.05866
3726.10937 1.05934
3724.06093 1.06203
3722.01250 1.06205
3719.96406 1.05981
3717.91562 1.05710
3715.86718 1.05469
3713.81874 1.05441
3711.77030 1.06055
3709.72187 1.06551
3707.67343 1.06135
3705.62499 1.05624
3703.57655 1.05480
3701.52811 1.05728
3699.47967 1.05813
3697.43124 1.05644
3695.38280 1.05502
3693.33436 1.05454
3691.28592 1.05709
3689.23748 1.06359
3687.18904 1.06439
3685.14061 1.05963
3683.09217 1.05576
3681.04373 1.05500
3678.99529 1.05642
3676.94685 1.06025
3674.89841 1.06725
3672.84998 1.06722
3670.80154 1.06539
3668.75310 1.06620
3666.70466 1.06313
3664.65622 1.05943
3662.60778 1.05816
3660.55935 1.05787
3658.51091 1.05813
3656.46247 1.06089
3654.41403 1.06227
3652.36559 1.06070
3650.31715 1.06552
3648.26872 1.07739
3646.22028 1.07610
3644.17184 1.06986
3642.12340 1.06615
3640.07496 1.06529
3638.02652 1.06550
3635.97809 1.06584
3633.92965 1.06654
3631.88121 1.06744
3629.83277 1.07184
3627.78433 1.07926
3625.73589 1.07768
3623.68746 1.07323
3621.63902 1.07185
3619.59058 1.07520
3617.54214 1.07884
3615.49370 1.07863
3613.44526 1.07877
3611.39682 1.07970
3609.34839 1.08058
3607.29995 1.08134
3605.25151 1.07922
3603.20307 1.07667
3601.15463 1.07726
3599.10619 1.07887
3597.05776 1.07907
3595.00932 1.07977
3592.96088 1.07961
3590.91244 1.07745
3588.86400 1.07801
3586.81556 1.08241
3584.76713 1.08209
3582.71869 1.07859
3580.67025 1.07662
3578.62181 1.07661
3576.57337 1.07737
3574.52493 1.07770
3572.47650 1.07691
3570.42806 1.07624
3568.37962 1.07905
3566.33118 1.08417
3564.28274 1.08366
3562.23430 1.08052
3560.18587 1.07864
3558.13743 1.07763
3556.08899 1.07701
3554.04055 1.07729
3551.99211 1.07843
3549.94367 1.07851
3547.89524 1.07830
3545.84680 1.07982
3543.79836 1.08057
3541.74992 1.07906
3539.70148 1.07773
3537.65304 1.07817
3535.60461 1.07893
3533.55617 1.07840
3531.50773 1.07810
3529.45929 1.07952
3527.41085 1.08165
3525.36241 1.08271
3523.31398 1.08268
3521.26554 1.08204
3519.21710 1.08120
3517.16866 1.08029
3515.12022 1.07932
3513.07178 1.07924
3511.02335 1.08057
3508.97491 1.08170
3506.92647 1.08137
3504.87803 1.08138
3502.82959 1.08255
3500.78115 1.08254
3498.73272 1.08137
3496.68428 1.08103
3494.63584 1.08134
3492.58740 1.08128
3490.53896 1.08132
3488.49052 1.08181
3486.44209 1.08184
3484.39365 1.08170
3482.34521 1.08275
3480.29677 1.08387
3478.24833 1.08349
3476.19989 1.08286
3474.15146 1.08288
3472.10302 1.08302
3470.05458 1.08322
3468.00614 1.08354
3465.95770 1.08388
3463.90926 1.08439
3461.86082 1.08485
3459.81239 1.08480
3457.76395 1.08446
3455.71551 1.08418
3453.66707 1.08402
3451.61863 1.08417
3449.57019 1.08494
3447.52176 1.08633
3445.47332 1.08706
3443.42488 1.08671
3441.37644 1.08622
3439.32800 1.08554
3437.27956 1.08476
3435.23113 1.08438
3433.18269 1.08469
3431.13425 1.08555
3429.08581 1.08595
3427.03737 1.08572
3424.98893 1.08595
3422.94050 1.08725
3420.89206 1.08871
3418.84362 1.08924
3416.79518 1.08894
3414.74674 1.08847
3412.69830 1.08822
3410.64987 1.08807
3408.60143 1.08782
3406.55299 1.08765
3404.50455 1.08742
3402.45611 1.08731
3400.40767 1.08788
3398.35924 1.08889
3396.31080 1.08976
3394.26236 1.09039
3392.21392 1.09082
3390.16548 1.09071
3388.11704 1.08995
3386.06861 1.08921
3384.02017 1.08905
3381.97173 1.08911
3379.92329 1.08923
3377.87485 1.08951
3375.82641 1.08954
3373.77798 1.08925
3371.72954 1.08902
3369.68110 1.08893
3367.63266 1.08903
3365.58422 1.08915
3363.53578 1.08902
3361.48735 1.08900
3359.43891 1.08902
3357.39047 1.08891
3355.34203 1.08884
3353.29359 1.08879
3351.24515 1.08899
3349.19672 1.08918
3347.14828 1.08875
3345.09984 1.08802
3343.05140 1.08763
3341.00296 1.08759
3338.95452 1.08762
3336.90609 1.08784
3334.85765 1.08822
3332.80921 1.08842
3330.76077 1.08839
3328.71233 1.08810
3326.66389 1.08772
3324.61545 1.08764
3322.56702 1.08800
3320.51858 1.08860
3318.47014 1.08897
3316.42170 1.08900
3314.37326 1.08880
3312.32482 1.08843
3310.27639 1.08842
3308.22795 1.08893
3306.17951 1.08920
3304.13107 1.08893
3302.08263 1.08856
3300.03419 1.08829
3297.98576 1.08810
3295.93732 1.08791
3293.88888 1.08786
3291.84044 1.08819
3289.79200 1.08848
3287.74356 1.08853
3285.69513 1.08859
3283.64669 1.08856
3281.59825 1.08849
3279.54981 1.08877
3277.50137 1.08934
3275.45293 1.08976
3273.40450 1.09005
3271.35606 1.09021
3269.30762 1.09030
3267.25918 1.09072
3265.21074 1.09124
3263.16230 1.09135
3261.11387 1.09116
3259.06543 1.09099
3257.01699 1.09100
3254.96855 1.09095
3252.92011 1.09067
3250.87167 1.09047
3248.82324 1.09060
3246.77480 1.09105
3244.72636 1.09169
3242.67792 1.09185
3240.62948 1.09140
3238.58104 1.09145
3236.53261 1.09238
3234.48417 1.09326
3232.43573 1.09353
3230.38729 1.09359
3228.33885 1.09378
3226.29041 1.09357
3224.24198 1.09280
3222.19354 1.09240
3220.14510 1.09269
3218.09666 1.09295
3216.04822 1.09274
3213.99978 1.09224
3211.95135 1.09178
3209.90291 1.09180
3207.85447 1.09188
3205.80603 1.09133
3203.75759 1.09053
3201.70915 1.09003
3199.66072 1.09002
3197.61228 1.09024
3195.56384 1.08982
3193.51540 1.08863
3191.46696 1.08754
3189.41852 1.08721
3187.37008 1.08753
3185.32165 1.08786
3183.27321 1.08755
3181.22477 1.08676
3179.17633 1.08637
3177.12789 1.08628
3175.07945 1.08581
3173.03102 1.08518
3170.98258 1.08478
3168.93414 1.08444
3166.88570 1.08399
3164.83726 1.08357
3162.78882 1.08349
3160.74039 1.08364
3158.69195 1.08345
3156.64351 1.08271
3154.59507 1.08185
3152.54663 1.08128
3150.49819 1.08111
3148.44976 1.08096
3146.40132 1.08054
3144.35288 1.08012
3142.30444 1.07968
3140.25600 1.07918
3138.20756 1.07918
3136.15913 1.07970
3134.11069 1.08002
3132.06225 1.07993
3130.01381 1.07975
3127.96537 1.07972
3125.91693 1.07955
3123.86850 1.07936
3121.82006 1.07945
3119.77162 1.07938
3117.72318 1.07903
3115.67474 1.07863
3113.62630 1.07829
3111.57787 1.07804
3109.52943 1.07766
3107.48099 1.07749
3105.43255 1.07775
3103.38411 1.07778
3101.33567 1.07740
3099.28724 1.07694
3097.23880 1.07675
3095.19036 1.07698
3093.14192 1.07720
3091.09348 1.07697
3089.04504 1.07629
3086.99661 1.07553
3084.94817 1.07509
3082.89973 1.07504
3080.85129 1.07518
3078.80285 1.07546
3076.75441 1.07592
3074.70598 1.07629
3072.65754 1.07628
3070.60910 1.07600
3068.56066 1.07601
3066.51222 1.07643
3064.46378 1.07686
3062.41535 1.07735
3060.36691 1.07782
3058.31847 1.07810
3056.27003 1.07834
3054.22159 1.07855
3052.17315 1.07888
3050.12471 1.07953
3048.07628 1.07999
3046.02784 1.07998
3043.97940 1.07999
3041.93096 1.07997
3039.88252 1.07965
3037.83408 1.07969
3035.78565 1.08045
3033.73721 1.08148
3031.68877 1.08251
3029.64033 1.08323
3027.59189 1.08384
3025.54345 1.08484
3023.49502 1.08579
3021.44658 1.08664
3019.39814 1.08792
3017.34970 1.08954
3015.30126 1.09152
3013.25282 1.09404
3011.20439 1.09653
3009.15595 1.09847
3007.10751 1.10020
3005.05907 1.10169
3003.01063 1.10234
3000.96219 1.10250
2998.91376 1.10295
2996.86532 1.10380
2994.81688 1.10526
2992.76844 1.10735
2990.72000 1.10972
2988.67156 1.11238
2986.62313 1.11553
2984.57469 1.11933
2982.52625 1.12378
2980.47781 1.12850
2978.42937 1.13346
2976.38093 1.13921
2974.33250 1.14632
2972.28406 1.15490
2970.23562 1.16435
2968.18718 1.17414
2966.13874 1.18357
2964.09030 1.19134
2962.04187 1.19693
2959.99343 1.20104
2957.94499 1.20394
2955.89655 1.20524
2953.84811 1.20515
2951.79967 1.20442
2949.75124 1.20396
2947.70280 1.20493
2945.65436 1.20820
2943.60592 1.21371
2941.55748 1.22111
2939.50904 1.23032
2937.46061 1.24105
2935.41217 1.25268
2933.36373 1.26432
2931.31529 1.27520
2929.26685 1.28446
2927.21841 1.29109
2925.16998 1.29454
2923.12154 1.29446
2921.07310 1.29059
2919.02466 1.28339
2916.97622 1.27398
2914.92778 1.26289
2912.87934 1.25058
2910.83091 1.23876
2908.78247 1.22885
2906.73403 1.22081
2904.68559 1.21438
2902.63715 1.20880
2900.58871 1.20311
2898.54028 1.19762
2896.49184 1.19311
2894.44340 1.18905
2892.39496 1.18461
2890.34652 1.18002
2888.29808 1.17562
2886.24965 1.17174
2884.20121 1.16872
2882.15277 1.16667
2880.10433 1.16583
2878.05589 1.16629
2876.00745 1.16783
2873.95902 1.17030
2871.91058 1.17317
2869.86214 1.17585
2867.81370 1.17864
2865.76526 1.18276
2863.71682 1.18944
2861.66839 1.19890
2859.61995 1.21023
2857.57151 1.22143
2855.52307 1.22974
2853.47463 1.23309
2851.42619 1.23041
2849.37776 1.22129
2847.32932 1.20695
2845.28088 1.19016
2843.23244 1.17395
2841.18400 1.16018
2839.13556 1.14920
2837.08713 1.14057
2835.03869 1.13374
2832.99025 1.12823
2830.94181 1.12354
2828.89337 1.11917
2826.84493 1.11473
2824.79650 1.11035
2822.74806 1.10627
2820.69962 1.10248
2818.65118 1.09920
2816.60274 1.09656
2814.55430 1.09437
2812.50587 1.09232
2810.45743 1.09009
2808.40899 1.08777
2806.36055 1.08574
2804.31211 1.08420
2802.26367 1.08313
2800.21524 1.08235
2798.16680 1.08148
2796.11836 1.08044
2794.06992 1.07961
2792.02148 1.07892
2789.97304 1.07797
2787.92461 1.07691
2785.87617 1.07609
2783.82773 1.07540
2781.77929 1.07483
2779.73085 1.07435
2777.68241 1.07388
2775.63397 1.07360
2773.58554 1.07365
2771.53710 1.07391
2769.48866 1.07413
2767.44022 1.07403
2765.39178 1.07383
2763.34334 1.07384
2761.29491 1.07386
2759.24647 1.07384
2757.19803 1.07417
2755.14959 1.07479
2753.10115 1.07541
2751.05271 1.07604
2749.00428 1.07646
2746.95584 1.07663
2744.90740 1.07706
2742.85896 1.07784
2740.81052 1.07865
2738.76208 1.07928
2736.71365 1.07960
2734.66521 1.07968
2732.61677 1.07975
2730.56833 1.08015
2728.51989 1.08092
2726.47145 1.08133
2724.42302 1.08121
2722.37458 1.08097
2720.32614 1.08047
2718.27770 1.07969
2716.22926 1.07904
2714.18082 1.07873
2712.13239 1.07850
2710.08395 1.07821
2708.03551 1.07793
2705.98707 1.07774
2703.93863 1.07775
2701.89019 1.07797
2699.84176 1.07814
2697.79332 1.07833
2695.74488 1.07873
2693.69644 1.07899
2691.64800 1.07887
2689.59956 1.07891
2687.55113 1.07922
2685.50269 1.07936
2683.45425 1.07928
2681.40581 1.07914
2679.35737 1.07900
2677.30893 1.07895
2675.26050 1.07914
2673.21206 1.07945
2671.16362 1.07977
2669.11518 1.07998
2667.06674 1.07992
2665.01830 1.07959
2662.96987 1.07918
2660.92143 1.07912
2658.87299 1.07952
2656.82455 1.07988
2654.77611 1.07990
2652.72767 1.07994
2650.67924 1.08015
2648.63080 1.08026
2646.58236 1.08038
2644.53392 1.08060
2642.48548 1.08060
2640.43704 1.08049
2638.38860 1.08090
2636.34017 1.08171
2634.29173 1.08221
2632.24329 1.08227
2630.19485 1.08220
2628.14641 1.08207
2626.09797 1.08176
2624.04954 1.08153
2622.00110 1.08166
2619.95266 1.08206
2617.90422 1.08251
2615.85578 1.08263
2613.80734 1.08248
2611.75891 1.08250
2609.71047 1.08252
2607.66203 1.08239
2605.61359 1.08255
2603.56515 1.08286
2601.51671 1.08308
2599.46828 1.08337
2597.41984 1.08369
2595.37140 1.08394
2593.32296 1.08405
2591.27452 1.08387
2589.22608 1.08374
2587.17765 1.08400
2585.12921 1.08460
2583.08077 1.08531
2581.03233 1.08572
2578.98389 1.08571
2576.93545 1.08533
2574.88702 1.08484
2572.83858 1.08482
2570.79014 1.08530
2568.74170 1.08550
2566.69326 1.08505
2564.64482 1.08439
2562.59639 1.08384
2560.54795 1.08334
2558.49951 1.08294
2556.45107 1.08258
2554.40263 1.08224
2552.35419 1.08210
2550.30576 1.08187
2548.25732 1.08149
2546.20888 1.08157
2544.16044 1.08189
2542.11200 1.08213
2540.06356 1.08254
2538.01513 1.08315
2535.96669 1.08361
2533.91825 1.08355
2531.86981 1.08324
2529.82137 1.08324
2527.77293 1.08347
2525.72450 1.08339
2523.67606 1.08309
2521.62762 1.08305
2519.57918 1.08317
2517.53074 1.08334
2515.48230 1.08374
2513.43387 1.08424
2511.38543 1.08463
2509.33699 1.08514
2507.28855 1.08597
2505.24011 1.08679
2503.19167 1.08734
2501.14324 1.08739
2499.09480 1.08677
2497.04636 1.08616
2494.99792 1.08618
2492.94948 1.08666
2490.90104 1.08740
2488.85260 1.08798
2486.80417 1.08802
2484.75573 1.08782
2482.70729 1.08762
2480.65885 1.08748
2478.61041 1.08759
2476.56197 1.08790
2474.51354 1.08832
2472.46510 1.08873
2470.41666 1.08890
2468.36822 1.08880
2466.31978 1.08880
2464.27134 1.08909
2462.22291 1.08933
2460.17447 1.08930
2458.12603 1.08913
2456.07759 1.08880
2454.02915 1.08850
2451.98071 1.08870
2449.93228 1.08938
2447.88384 1.09004
2445.83540 1.09059
2443.78696 1.09124
2441.73852 1.09194
2439.69008 1.09278
2437.64165 1.09406
2435.59321 1.09566
2433.54477 1.09722
2431.49633 1.09852
2429.44789 1.09941
2427.39945 1.09960
2425.35102 1.09887
2423.30258 1.09741
2421.25414 1.09568
2419.20570 1.09392
2417.15726 1.09202
2415.10882 1.09023
2413.06039 1.08925
2411.01195 1.08913
2408.96351 1.08911
2406.91507 1.08871
2404.86663 1.08806
2402.81819 1.08735
2400.76976 1.08685
2398.72132 1.08667
2396.67288 1.08658
2394.62444 1.08620
2392.57600 1.08533
2390.52756 1.08444
2388.47913 1.08410
2386.43069 1.08427
2384.38225 1.08469
2382.33381 1.08519
2380.28537 1.08613
2378.23693 1.08799
2376.18850 1.09019
2374.14006 1.09219
2372.09162 1.09431
2370.04318 1.09705
2367.99474 1.10031
2365.94630 1.10282
2363.89787 1.10390
2361.84943 1.10405
2359.80099 1.10368
2357.75255 1.10272
2355.70411 1.10157
2353.65567 1.10129
2351.60723 1.10053
2349.55880 1.09800
2347.51036 1.09595
2345.46192 1.09727
2343.41348 1.10105
2341.36504 1.10347
2339.31660 1.10451
2337.26817 1.10499
2335.21973 1.10467
2333.17129 1.10372
2331.12285 1.10258
2329.07441 1.10132
2327.02597 1.10026
2324.97754 1.09955
2322.92910 1.09912
2320.88066 1.09825
2318.83222 1.09680
2316.78378 1.09563
2314.73534 1.09492
2312.68691 1.09444
2310.63847 1.09393
2308.59003 1.09297
2306.54159 1.09152
2304.49315 1.09022
2302.44471 1.08952
2300.39628 1.08945
2298.34784 1.08990
2296.29940 1.09023
2294.25096 1.08972
2292.20252 1.08895
2290.15408 1.08871
2288.10565 1.08875
2286.05721 1.08851
2284.00877 1.08801
2281.96033 1.08787
2279.91189 1.08838
2277.86345 1.08901
2275.81502 1.08910
2273.76658 1.08894
2271.71814 1.08911
2269.66970 1.08959
2267.62126 1.09008
2265.57282 1.09041
2263.52439 1.09059
2261.47595 1.09053
2259.42751 1.09024
2257.37907 1.09040
2255.33063 1.09100
2253.28219 1.09139
2251.23376 1.09122
2249.18532 1.09055
2247.13688 1.09028
2245.08844 1.09077
2243.04000 1.09093
2240.99156 1.09071
2238.94313 1.09093
2236.89469 1.09108
2234.84625 1.09050
2232.79781 1.08982
2230.74937 1.08953
2228.70093 1.08925
2226.65250 1.08910
2224.60406 1.08949
2222.55562 1.09034
2220.50718 1.09129
2218.45874 1.09138
2216.41030 1.09039
2214.36186 1.08954
2212.31343 1.08954
2210.26499 1.08979
2208.21655 1.08987
2206.16811 1.09002
2204.11967 1.08998
2202.07123 1.08928
2200.02280 1.08855
2197.97436 1.08848
2195.92592 1.08890
2193.87748 1.08932
2191.82904 1.08946
2189.78060 1.08935
2187.73217 1.08919
2185.68373 1.08936
2183.63529 1.08991
2181.58685 1.09023
2179.53841 1.09006
2177.48997 1.08985
2175.44154 1.08983
2173.39310 1.09016
2171.34466 1.09080
2169.29622 1.09112
2167.24778 1.09097
2165.19934 1.09103
2163.15091 1.09165
2161.10247 1.09240
2159.05403 1.09282
2157.00559 1.09313
2154.95715 1.09350
2152.90871 1.09367
2150.86028 1.09405
2148.81184 1.09519
2146.76340 1.09661
2144.71496 1.09765
2142.66652 1.09786
2140.61808 1.09729
2138.56965 1.09680
2136.52121 1.09662
2134.47277 1.09607
2132.42433 1.09530
2130.37589 1.09497
2128.32745 1.09520
2126.27902 1.09559
2124.23058 1.09549
2122.18214 1.09490
2120.13370 1.09446
2118.08526 1.09441
2116.03682 1.09457
2113.98839 1.09479
2111.93995 1.09518
2109.89151 1.09549
2107.84307 1.09546
2105.79463 1.09548
2103.74619 1.09553
2101.69776 1.09501
2099.64932 1.09415
2097.60088 1.09358
2095.55244 1.09320
2093.50400 1.09272
2091.45556 1.09230
2089.40713 1.09219
2087.35869 1.09251
2085.31025 1.09282
2083.26181 1.09256
2081.21337 1.09220
2079.16493 1.09213
2077.11649 1.09226
2075.06806 1.09271
2073.01962 1.09329
2070.97118 1.09348
2068.92274 1.09311
2066.87430 1.09269
2064.82586 1.09239
2062.77743 1.09192
2060.72899 1.09125
2058.68055 1.09040
2056.63211 1.08971
2054.58367 1.08972
2052.53523 1.09028
2050.48680 1.09043
2048.43836 1.08981
2046.38992 1.08957
2044.34148 1.09081
2042.29304 1.09192
2040.24460 1.09089
2038.19617 1.08927
2036.14773 1.08927
2034.09929 1.09058
2032.05085 1.09180
2030.00241 1.09246
2027.95397 1.09304
2025.90554 1.09348
2023.85710 1.09319
2021.80866 1.09258
2019.76022 1.09286
2017.71178 1.09412
2015.66334 1.09489
2013.61491 1.09471
2011.56647 1.09446
2009.51803 1.09457
2007.46959 1.09510
2005.42115 1.09600
2003.37271 1.09702
2001.32428 1.09816
1999.27584 1.09933
1997.22740 1.10048
1995.17896 1.10194
1993.13052 1.10364
1991.08208 1.10460
1989.03365 1.10418
1986.98521 1.10316
1984.93677 1.10230
1982.88833 1.10190
1980.83989 1.10181
1978.79145 1.10147
1976.74302 1.10072
1974.69458 1.09997
1972.64614 1.09954
1970.59770 1.09962
1968.54926 1.10067
1966.50082 1.10212
1964.45239 1.10248
1962.40395 1.10203
1960.35551 1.10144
1958.30707 1.10082
1956.25863 1.10052
1954.21019 1.10076
1952.16176 1.10128
1950.11332 1.10168
1948.06488 1.10195
1946.01644 1.10212
1943.96800 1.10252
1941.91956 1.10318
1939.87112 1.10255
1937.82269 1.10081
1935.77425 1.09918
1933.72581 1.09806
1931.67737 1.09754
1929.62893 1.09736
1927.58049 1.09725
1925.53206 1.09773
1923.48362 1.09900
1921.43518 1.09921
1919.38674 1.09871
1917.33830 1.09941
1915.28986 1.09978
1913.24143 1.09961
1911.19299 1.10011
1909.14455 1.10060
1907.09611 1.10036
1905.04767 1.09973
1902.99923 1.09885
1900.95080 1.09800
1898.90236 1.09789
1896.85392 1.09864
1894.80548 1.09927
1892.75704 1.09879
1890.70860 1.09840
1888.66017 1.09847
1886.61173 1.09768
1884.56329 1.09674
1882.51485 1.09635
1880.46641 1.09625
1878.41797 1.09640
1876.36954 1.09661
1874.32110 1.09662
1872.27266 1.09669
1870.22422 1.09845
1868.17578 1.10160
1866.12734 1.10168
1864.07891 1.10003
1862.03047 1.09973
1859.98203 1.10017
1857.93359 1.09992
1855.88515 1.09886
1853.83671 1.09794
1851.78828 1.09786
1849.73984 1.09852
1847.69140 1.09955
1845.64296 1.10109
1843.59452 1.10289
1841.54608 1.10248
1839.49765 1.10102
1837.44921 1.10055
1835.40077 1.10031
1833.35233 1.09962
1831.30389 1.10031
1829.25545 1.10272
1827.20702 1.10338
1825.15858 1.10321
1823.11014 1.10317
1821.06170 1.10242
1819.01326 1.10231
1816.96482 1.10291
1814.91639 1.10353
1812.86795 1.10499
1810.81951 1.10693
1808.77107 1.10708
1806.72263 1.10610
1804.67419 1.10576
1802.62575 1.10661
1800.57732 1.10853
1798.52888 1.10969
1796.48044 1.10918
1794.43200 1.10862
1792.38356 1.10994
1790.33512 1.10988
1788.28669 1.10730
1786.23825 1.10667
1784.18981 1.10879
1782.14137 1.11098
1780.09293 1.11240
1778.04449 1.11253
1775.99606 1.11204
1773.94762 1.11340
1771.89918 1.11686
1769.85074 1.11788
1767.80230 1.11714
1765.75386 1.11641
1763.70543 1.11604
1761.65699 1.11714
1759.60855 1.11833
1757.56011 1.12009
1755.51167 1.12312
1753.46323 1.12655
1751.41480 1.13463
1749.36636 1.14941
1747.31792 1.16258
1745.26948 1.17275
1743.22104 1.18304
1741.17260 1.19231
1739.12417 1.19741
1737.07573 1.19677
1735.02729 1.19234
1732.97885 1.18342
1730.93041 1.17237
1728.88197 1.16200
1726.83354 1.15409
1724.78510 1.14911
1722.73666 1.14539
1720.68822 1.14253
1718.63978 1.14345
1716.59134 1.14931
1714.54291 1.14967
1712.49447 1.14600
1710.44603 1.14343
1708.39759 1.14307
1706.34915 1.14491
1704.30071 1.14585
1702.25228 1.14422
1700.20384 1.14484
1698.15540 1.14698
1696.10696 1.14455
1694.05852 1.13931
1692.01008 1.13513
1689.96165 1.13359
1687.91321 1.13310
1685.86477 1.13348
1683.81633 1.13894
1681.76789 1.14050
1679.71945 1.13691
1677.67102 1.13397
1675.62258 1.13394
1673.57414 1.13531
1671.52570 1.13582
1669.47726 1.13618
1667.42882 1.13357
1665.38038 1.13035
1663.33195 1.13048
1661.28351 1.13156
1659.23507 1.13011
1657.18663 1.12856
1655.13819 1.12916
1653.08975 1.13612
1651.04132 1.13931
1648.99288 1.13812
1646.94444 1.13988
1644.89600 1.13899
1642.84756 1.13529
1640.79912 1.13372
1638.75069 1.13485
1636.70225 1.13914
1634.65381 1.14240
1632.60537 1.13944
1630.55693 1.13640
1628.50849 1.13645
1626.46006 1.13829
1624.41162 1.14036
1622.36318 1.14138
1620.31474 1.13929
1618.26630 1.13830
1616.21786 1.14038
1614.16943 1.13868
1612.12099 1.13493
1610.07255 1.13323
1608.02411 1.13302
1605.97567 1.13257
1603.92723 1.13216
1601.87880 1.13183
1599.83036 1.13069
1597.78192 1.12959
1595.73348 1.12986
1593.68504 1.13022
1591.63660 1.12904
1589.58817 1.12726
1587.53973 1.12585
1585.49129 1.12462
1583.44285 1.12345
1581.39441 1.12220
1579.34597 1.12143
1577.29754 1.12348
1575.24910 1.12625
1573.20066 1.12415
1571.15222 1.12258
1569.10378 1.12331
1567.05534 1.12252
1565.00691 1.12201
1562.95847 1.12226
1560.91003 1.12326
1558.86159 1.13318
1556.81315 1.13920
1554.76471 1.13507
1552.71628 1.13158
1550.66784 1.13018
1548.61940 1.12939
1546.57096 1.12907
1544.52252 1.13217
1542.47408 1.13903
1540.42565 1.14409
1538.37721 1.13929
1536.32877 1.13376
1534.28033 1.13249
1532.23189 1.13273
1530.18345 1.13107
1528.13501 1.13129
1526.08658 1.13442
1524.03814 1.13744
1521.98970 1.14113
1519.94126 1.14283
1517.89282 1.14277
1515.84438 1.14297
1513.79595 1.14151
1511.74751 1.14100
1509.69907 1.14392
1507.65063 1.15184
1505.60219 1.15433
1503.55375 1.14834
1501.50532 1.14436
1499.45688 1.14462
1497.40844 1.14751
1495.36000 1.14692
1493.31156 1.14455
1491.26312 1.14670
1489.21469 1.15418
1487.16625 1.15707
1485.11781 1.15574
1483.06937 1.15615
1481.02093 1.15838
1478.97249 1.15982
1476.92406 1.16253
1474.87562 1.17112
1472.82718 1.18666
1470.77874 1.19829
1468.73030 1.20280
1466.68186 1.20686
1464.63343 1.20974
1462.58499 1.20783
1460.53655 1.20570
1458.48811 1.20824
1456.43967 1.20922
1454.39123 1.20103
1452.34280 1.19362
1450.29436 1.18930
1448.24592 1.18712
1446.19748 1.18443
1444.14904 1.18121
1442.10060 1.17904
1440.05217 1.17802
1438.00373 1.17844
1435.95529 1.17905
1433.90685 1.17686
1431.85841 1.17457
1429.80997 1.17299
1427.76154 1.16990
1425.71310 1.16675
1423.66466 1.16541
1421.61622 1.16558
1419.56778 1.16861
1417.51934 1.17122
1415.47091 1.16881
1413.42247 1.16610
1411.37403 1.16458
1409.32559 1.16290
1407.27715 1.16157
1405.22871 1.16120
1403.18028 1.16024
1401.13184 1.15921
1399.08340 1.15944
1397.03496 1.15923
1394.98652 1.15806
1392.93808 1.15681
1390.88965 1.15666
1388.84121 1.15931
1386.79277 1.16335
1384.74433 1.16516
1382.69589 1.16646
1380.64745 1.16905
1378.59901 1.17164
1376.55058 1.17373
1374.50214 1.17486
1372.45370 1.17279
1370.40526 1.16935
1368.35682 1.16714
1366.30838 1.16577
1364.25995 1.16541
1362.21151 1.16534
1360.16307 1.16311
1358.11463 1.16064
1356.06619 1.15969
1354.01775 1.15896
1351.96932 1.15807
1349.92088 1.15810
1347.87244 1.15878
1345.82400 1.15948
1343.77556 1.16021
1341.72712 1.16170
1339.67869 1.16404
1337.63025 1.16458
1335.58181 1.16333
1333.53337 1.16236
1331.48493 1.16083
1329.43649 1.15782
1327.38806 1.15510
1325.33962 1.15393
1323.29118 1.15390
1321.24274 1.15498
1319.19430 1.15666
1317.14586 1.15818
1315.09743 1.15942
1313.04899 1.15963
1311.00055 1.15883
1308.95211 1.15886
1306.90367 1.16062
1304.85523 1.16256
1302.80680 1.16286
1300.75836 1.16217
1298.70992 1.16237
1296.66148 1.16372
1294.61304 1.16463
1292.56460 1.16404
1290.51617 1.16321
1288.46773 1.16372
1286.41929 1.16451
1284.37085 1.16363
1282.32241 1.16176
1280.27397 1.16119
1278.22554 1.16280
1276.17710 1.16612
1274.12866 1.17100
1272.08022 1.17781
1270.03178 1.18698
1267.98334 1.19853
1265.93491 1.20951
1263.88647 1.21485
1261.83803 1.21361
1259.78959 1.20849
1257.74115 1.20150
1255.69271 1.19395
1253.64428 1.18747
1251.59584 1.18350
1249.54740 1.18138
1247.49896 1.17939
1245.45052 1.17756
1243.40208 1.17612
1241.35364 1.17499
1239.30521 1.17475
1237.25677 1.17460
1235.20833 1.17386
1233.15989 1.17357
1231.11145 1.17412
1229.06301 1.17485
1227.01458 1.17571
1224.96614 1.17709
1222.91770 1.17866
1220.86926 1.17986
1218.82082 1.18102
1216.77238 1.18218
1214.72395 1.18293
1212.67551 1.18417
1210.62707 1.18674
1208.57863 1.18917
1206.53019 1.19000
1204.48175 1.18968
1202.43332 1.18908
1200.38488 1.18910
1198.33644 1.19007
1196.28800 1.19149
1194.23956 1.19299
1192.19112 1.19416
1190.14269 1.19549
1188.09425 1.19814
1186.04581 1.20195
1183.99737 1.20562
1181.94893 1.20814
1179.90049 1.20931
1177.85206 1.20953
1175.80362 1.20946
1173.75518 1.20939
1171.70674 1.20919
1169.65830 1.20960
1167.60986 1.21088
1165.56143 1.21165
1163.51299 1.21147
1161.46455 1.21100
1159.41611 1.21032
1157.36767 1.20921
1155.31923 1.20840
1153.27080 1.20901
1151.22236 1.21029
1149.17392 1.21066
1147.12548 1.21021
1145.07704 1.20999
1143.02860 1.21085
1140.98017 1.21213
1138.93173 1.21256
1136.88329 1.21308
1134.83485 1.21425
1132.78641 1.21464
1130.73797 1.21453
1128.68954 1.21596
1126.64110 1.21938
1124.59266 1.22398
1122.54422 1.22894
1120.49578 1.23305
1118.44734 1.23588
1116.39891 1.23781
1114.35047 1.23904
1112.30203 1.24018
1110.25359 1.24083
1108.20515 1.23976
1106.15671 1.23819
1104.10827 1.23787
1102.05984 1.23838
1100.01140 1.23872
1097.96296 1.23808
1095.91452 1.23661
1093.86608 1.23505
1091.81764 1.23269
1089.76921 1.22914
1087.72077 1.22596
1085.67233 1.22368
1083.62389 1.22048
1081.57545 1.21635
1079.52701 1.21410
1077.47858 1.21551
1075.43014 1.21903
1073.38170 1.22155
1071.33326 1.22152
1069.28482 1.21971
1067.23638 1.21853
1065.18795 1.21982
1063.13951 1.22282
1061.09107 1.22518
1059.04263 1.22606
1056.99419 1.22660
1054.94575 1.22748
1052.89732 1.22857
1050.84888 1.22922
1048.80044 1.22897
1046.75200 1.22840
1044.70356 1.22815
1042.65512 1.22841
1040.60669 1.22915
1038.55825 1.23004
1036.50981 1.23115
1034.46137 1.23360
1032.41293 1.23754
1030.36449 1.24204
1028.31606 1.24640
1026.26762 1.24980
1024.21918 1.25179
1022.17074 1.25323
1020.12230 1.25471
1018.07386 1.25545
1016.02543 1.25487
1013.97699 1.25293
1011.92855 1.25022
1009.88011 1.24800
1007.83167 1.24710
1005.78323 1.24680
1003.73480 1.24608
1001.68636 1.24525
999.63792 1.24492
997.58948 1.24486
995.54104 1.24387
993.49260 1.24150
991.44417 1.23890
989.39573 1.23711
987.34729 1.23619
985.29885 1.23567
983.25041 1.23559
981.20197 1.23588
979.15354 1.23571
977.10510 1.23549
975.05666 1.23631
973.00822 1.23737
970.95978 1.23715
968.91134 1.23589
966.86290 1.23448
964.81447 1.23243
962.76603 1.22987
960.71759 1.22791
958.66915 1.22668
956.62071 1.22557
954.57227 1.22370
952.52384 1.22107
950.47540 1.21801
948.42696 1.21510
946.37852 1.21415
944.33008 1.21515
942.28164 1.21630
940.23321 1.21793
938.18477 1.22107
936.13633 1.22474
934.08789 1.22705
932.03945 1.22756
929.99101 1.22754
927.94258 1.22795
925.89414 1.22816
923.84570 1.22789
921.79726 1.22901
919.74882 1.23144
917.70038 1.23288
915.65195 1.23343
913.60351 1.23357
911.55507 1.23288
909.50663 1.23157
907.45819 1.23012
905.40975 1.22898
903.36132 1.22865
901.31288 1.22914
899.26444 1.22981
897.21600 1.23048
895.16756 1.23192
893.11912 1.23365
891.07069 1.23510
889.02225 1.23747
886.97381 1.24078
884.92537 1.24370
882.87693 1.24552
880.82849 1.24673
878.78006 1.24851
876.73162 1.25104
874.68318 1.25316
872.63474 1.25354
870.58630 1.25340
868.53786 1.25491
866.48943 1.25721
864.44099 1.25866
862.39255 1.26018
860.34411 1.26400
858.29567 1.26905
856.24723 1.27228
854.19880 1.27349
852.15036 1.27471
850.10192 1.27648
848.05348 1.27733
846.00504 1.27795
843.95660 1.28054
841.90817 1.28407
839.85973 1.28608
837.81129 1.28802
835.76285 1.29290
833.71441 1.29921
831.66597 1.30408
829.61753 1.30875
827.56910 1.31420
825.52066 1.31829
823.47222 1.32017
821.42378 1.32128
819.37534 1.32197
817.32690 1.32118
815.27847 1.31946
813.23003 1.31863
811.18159 1.31864
809.13315 1.31814
807.08471 1.31819
805.03627 1.32055
802.98784 1.32241
800.93940 1.32087
798.89096 1.31853
796.84252 1.31785
794.79408 1.31752
792.74564 1.31718
790.69721 1.31795
788.64877 1.32023
786.60033 1.32526
784.55189 1.33283
782.50345 1.33932
780.45501 1.34340
778.40658 1.34724
776.35814 1.35104
774.30970 1.35378
772.26126 1.35589
770.21282 1.35820
768.16438 1.36270
766.11595 1.37228
764.06751 1.38628
762.01907 1.40062
759.97063 1.41264
757.92219 1.42326
755.87375 1.43489
753.82532 1.44708
751.77688 1.45579
749.72844 1.45956
747.68000 1.46276
745.63156 1.46783
743.58312 1.47224
741.53469 1.47608
739.48625 1.48089
737.43781 1.48504
735.38937 1.48654
733.34093 1.48469
731.29249 1.48163
729.24406 1.48080
727.19562 1.48390
725.14718 1.49151
723.09874 1.50087
721.05030 1.50603
719.00186 1.50642
716.95343 1.50740
714.90499 1.51156
712.85655 1.51996
710.80811 1.53121
708.75967 1.54122
706.71123 1.54966
704.66280 1.55915
702.61436 1.57073
700.56592 1.58153
698.51748 1.58995
696.46904 1.59607
694.42060 1.59856
692.37216 1.59926
690.32373 1.59738
688.27529 1.58889
686.22685 1.57774
684.17841 1.57236
682.12997 1.57789
680.08153 1.58904
678.03310 1.59464
675.98466 1.59758
673.93622 1.60635
671.88778 1.61552
669.83934 1.61654
667.79090 1.61426
665.74247 1.61789
663.69403 1.61681
661.64559 1.60856
659.59715 1.60563
657.54871 1.60918
655.50027 1.60624
653.45184 1.60391
651.40340 1.61013
649.35496 1.61350
647.30652 1.61118
645.25808 1.60670
643.20964 1.59139
641.16121 1.56431
639.11277 1.53672
637.06433 1.51739
635.01589 1.50608
632.96745 1.49190
630.91901 1.47444
628.87058 1.46760
626.82214 1.47171
624.77370 1.47619
622.72526 1.47522
620.67682 1.46787
618.62838 1.45295
616.57995 1.42847
614.53151 1.41085
612.48307 1.41428
610.43463 1.42564
608.38619 1.42459
606.33775 1.41500
604.28932 1.41281
602.24088 1.41365
600.19244 1.41091
598.14400 1.40794
