3996.50324 0.88183
3994.45480 0.88195
3992.40636 0.88168
3990.35792 0.88142
3988.30948 0.88126
3986.26104 0.88089
3984.21261 0.88057
3982.16417 0.88053
3980.11573 0.88057
3978.06729 0.88041
3976.01885 0.88009
3973.97041 0.88000
3971.92198 0.88004
3969.87354 0.87996
3967.82510 0.87991
3965.77666 0.87991
3963.72822 0.87996
3961.67978 0.88022
3959.63135 0.88034
3957.58291 0.88005
3955.53447 0.87954
3953.48603 0.87859
3951.43759 0.87736
3949.38915 0.87701
3947.34072 0.87786
3945.29228 0.87797
3943.24384 0.87778
3941.19540 0.87862
3939.14696 0.87892
3937.09852 0.87820
3935.05009 0.87693
3933.00165 0.87601
3930.95321 0.87693
3928.90477 0.87782
3926.85633 0.87681
3924.80789 0.87611
3922.75946 0.87672
3920.71102 0.87648
3918.66258 0.87598
3916.61414 0.87691
3914.56570 0.87801
3912.51726 0.87802
3910.46883 0.87752
3908.42039 0.87593
3906.37195 0.87291
3904.32351 0.87141
3902.27507 0.87318
3900.22663 0.87596
3898.17820 0.87850
3896.12976 0.87844
3894.08132 0.87579
3892.03288 0.87486
3889.98444 0.87648
3887.93600 0.87564
3885.88756 0.87456
3883.83913 0.87548
3881.79069 0.87588
3879.74225 0.87825
3877.69381 0.87937
3875.64537 0.87716
3873.59693 0.87543
3871.54850 0.87502
3869.50006 0.87708
3867.45162 0.87861
3865.40318 0.87754
3863.35474 0.87906
3861.30630 0.88191
3859.25787 0.88127
3857.20943 0.87710
3855.16099 0.87201
3853.11255 0.87528
3851.06411 0.88290
3849.01567 0.88361
3846.96724 0.88146
3844.91880 0.87923
3842.87036 0.87781
3840.82192 0.87652
3838.77348 0.87693
3836.72504 0.88055
3834.67661 0.88271
3832.62817 0.88339
3830.57973 0.88440
3828.53129 0.88445
3826.48285 0.88385
3824.43441 0.88187
3822.38598 0.87851
3820.33754 0.87983
3818.28910 0.88236
3816.24066 0.88405
3814.19222 0.88757
3812.14378 0.88808
3810.09535 0.88550
3808.04691 0.88373
3805.99847 0.88505
3803.95003 0.88443
3801.90159 0.88409
3799.85315 0.88735
3797.80472 0.88798
3795.75628 0.88858
3793.70784 0.88987
3791.65940 0.88961
3789.61096 0.88873
3787.56252 0.88786
3785.51409 0.88814
3783.46565 0.88955
3781.41721 0.88964
3779.36877 0.89001
3777.32033 0.89153
3775.27189 0.89143
3773.22346 0.88959
3771.17502 0.88779
3769.12658 0.88824
3767.07814 0.88934
3765.02970 0.88993
3762.98126 0.88955
3760.93283 0.88764
3758.88439 0.88739
3756.83595 0.88814
3754.78751 0.88578
3752.73907 0.88152
3750.69063 0.88205
3748.64219 0.88595
3746.59376 0.88525
3744.54532 0.88629
3742.49688 0.88995
3740.44844 0.88865
3738.40000 0.88440
3736.35156 0.88183
3734.30313 0.88519
3732.25469 0.89044
3730.20625 0.89179
3728.15781 0.89000
3726.10937 0.88862
3724.06093 0.88941
3722.01250 0.89074
3719.96406 0.89190
3717.91562 0.89207
3715.86718 0.89001
3713.81874 0.88592
3711.77030 0.88437
3709.72187 0.88865
3707.67343 0.89140
3705.62499 0.89071
3703.57655 0.88925
3701.52811 0.89025
3699.47967 0.89208
3697.43124 0.89193
3695.38280 0.89069
3693.33436 0.88806
3691.28592 0.88489
3689.23748 0.88690
3687.18904 0.89224
3685.14061 0.89359
3683.09217 0.89237
3681.04373 0.89032
3678.99529 0.88718
3676.94685 0.88441
3674.89841 0.88820
3672.84998 0.89115
3670.80154 0.89030
3668.75310 0.89371
3666.70466 0.89661
3664.65622 0.89604
3662.60778 0.89509
3660.55935 0.89450
3658.51091 0.89356
3656.46247 0.89428
3654.41403 0.89529
3652.36559 0.89170
3650.31715 0.88700
3648.26872 0.89129
3646.22028 0.89744
3644.17184 0.89839
3642.12340 0.89764
3640.07496 0.89744
3638.02652 0.89737
3635.97809 0.89667
3633.92965 0.89561
3631.88121 0.89341
3629.83277 0.89193
3627.78433 0.89737
3625.73589 0.90181
3623.68746 0.90121
3621.63902 0.89881
3619.59058 0.89798
3617.54214 0.89992
3615.49370 0.90060
3613.44526 0.90086
3611.39682 0.90183
3609.34839 0.90243
3607.29995 0.90439
3605.25151 0.90619
3603.20307 0.90559
3601.15463 0.90465
3599.10619 0.90501
3597.05776 0.90550
3595.00932 0.90661
3592.96088 0.90852
3590.91244 0.90827
3588.86400 0.90674
3586.81556 0.90900
3584.76713 0.91256
3582.71869 0.91335
3580.67025 0.91316
3578.62181 0.91326
3576.57337 0.91355
3574.52493 0.91374
3572.47650 0.91346
3570.42806 0.91188
3568.37962 0.90992
3566.33118 0.91140
3564.28274 0.91434
3562.23430 0.91507
3560.18587 0.91523
3558.13743 0.91592
3556.08899 0.91618
3554.04055 0.91587
3551.99211 0.91627
3549.94367 0.91677
3547.89524 0.91630
3545.84680 0.91651
3543.79836 0.91807
3541.74992 0.91896
3539.70148 0.91853
3537.65304 0.91822
3535.60461 0.91888
3533.55617 0.91914
3531.50773 0.91832
3529.45929 0.91773
3527.41085 0.91816
3525.36241 0.91876
3523.31398 0.91926
3521.26554 0.91962
3519.21710 0.91956
3517.16866 0.91958
3515.12022 0.91973
3513.07178 0.91953
3511.02335 0.91929
3508.97491 0.91959
3506.92647 0.91964
3504.87803 0.91889
3502.82959 0.91898
3500.78115 0.92036
3498.73272 0.92123
3496.68428 0.92124
3494.63584 0.92128
3492.58740 0.92143
3490.53896 0.92115
3488.49052 0.92064
3486.44209 0.92051
3484.39365 0.92053
3482.34521 0.92055
3480.29677 0.92093
3478.24833 0.92122
3476.19989 0.92120
3474.15146 0.92143
3472.10302 0.92196
3470.05458 0.92240
3468.00614 0.92293
3465.95770 0.92338
3463.90926 0.92316
3461.86082 0.92302
3459.81239 0.92343
3457.76395 0.92348
3455.71551 0.92332
3453.66707 0.92346
3451.61863 0.92336
3449.57019 0.92264
3447.52176 0.92226
3445.47332 0.92289
3443.42488 0.92375
3441.37644 0.92444
3439.32800 0.92489
3437.27956 0.92508
3435.23113 0.92517
3433.18269 0.92508
3431.13425 0.92493
3429.08581 0.92498
3427.03737 0.92493
3424.98893 0.92461
3422.94050 0.92423
3420.89206 0.92400
3418.84362 0.92422
3416.79518 0.92475
3414.74674 0.92528
3412.69830 0.92560
3410.64987 0.92552
3408.60143 0.92544
3406.55299 0.92582
3404.50455 0.92649
3402.45611 0.92707
3400.40767 0.92735
3398.35924 0.92746
3396.31080 0.92760
3394.26236 0.92765
3392.21392 0.92781
3390.16548 0.92794
3388.11704 0.92758
3386.06861 0.92725
3384.02017 0.92748
3381.97173 0.92799
3379.92329 0.92855
3377.87485 0.92918
3375.82641 0.92955
3373.77798 0.92954
3371.72954 0.92950
3369.68110 0.92946
3367.63266 0.92937
3365.58422 0.92944
3363.53578 0.92958
3361.48735 0.92965
3359.43891 0.92968
3357.39047 0.92978
3355.34203 0.93019
3353.29359 0.93056
3351.24515 0.93065
3349.19672 0.93110
3347.14828 0.93176
3345.09984 0.93198
3343.05140 0.93190
3341.00296 0.93185
3338.95452 0.93172
3336.90609 0.93119
3334.85765 0.93036
3332.80921 0.92967
3330.76077 0.92924
3328.71233 0.92886
3326.66389 0.92851
3324.61545 0.92831
3322.56702 0.92847
3320.51858 0.92907
3318.47014 0.92976
3316.42170 0.93013
3314.37326 0.93019
3312.32482 0.93018
3310.27639 0.93020
3308.22795 0.93032
3306.17951 0.93054
3304.13107 0.93069
3302.08263 0.93053
3300.03419 0.93012
3297.98576 0.92990
3295.93732 0.92995
3293.88888 0.92991
3291.84044 0.92973
3289.79200 0.92967
3287.74356 0.92978
3285.69513 0.92993
3283.64669 0.92991
3281.59825 0.92976
3279.54981 0.92954
3277.50137 0.92923
3275.45293 0.92911
3273.40450 0.92918
3271.35606 0.92905
3269.30762 0.92862
3267.25918 0.92801
3265.21074 0.92754
3263.16230 0.92742
3261.11387 0.92754
3259.06543 0.92788
3257.01699 0.92810
3254.96855 0.92789
3252.92011 0.92767
3250.87167 0.92782
3248.82324 0.92807
3246.77480 0.92802
3244.72636 0.92780
3242.67792 0.92786
3240.62948 0.92820
3238.58104 0.92846
3236.53261 0.92847
3234.48417 0.92842
3232.43573 0.92884
3230.38729 0.92978
3228.33885 0.93047
3226.29041 0.93068
3224.24198 0.93079
3222.19354 0.93096
3220.14510 0.93116
3218.09666 0.93142
3216.04822 0.93156
3213.99978 0.93166
3211.95135 0.93201
3209.90291 0.93239
3207.85447 0.93246
3205.80603 0.93210
3203.75759 0.93165
3201.70915 0.93168
3199.66072 0.93221
3197.61228 0.93279
3195.56384 0.93318
3193.51540 0.93339
3191.46696 0.93350
3189.41852 0.93340
3187.37008 0.93301
3185.32165 0.93289
3183.27321 0.93332
3181.22477 0.93361
3179.17633 0.93341
3177.12789 0.93307
3175.07945 0.93283
3173.03102 0.93282
3170.98258 0.93304
3168.93414 0.93313
3166.88570 0.93304
3164.83726 0.93308
3162.78882 0.93344
3160.74039 0.93424
3158.69195 0.93505
3156.64351 0.93524
3154.59507 0.93509
3152.54663 0.93494
3150.49819 0.93461
3148.44976 0.93419
3146.40132 0.93385
3144.35288 0.93370
3142.30444 0.93367
3140.25600 0.93327
3138.20756 0.93240
3136.15913 0.93135
3134.11069 0.93064
3132.06225 0.93090
3130.01381 0.93158
3127.96537 0.93162
3125.91693 0.93107
3123.86850 0.93046
3121.82006 0.93001
3119.77162 0.92964
3117.72318 0.92919
3115.67474 0.92864
3113.62630 0.92796
3111.57787 0.92708
3109.52943 0.92624
3107.48099 0.92574
3105.43255 0.92537
3103.38411 0.92487
3101.33567 0.92441
3099.28724 0.92392
3097.23880 0.92347
3095.19036 0.92350
3093.14192 0.92368
3091.09348 0.92333
3089.04504 0.92261
3086.99661 0.92196
3084.94817 0.92132
3082.89973 0.92039
3080.85129 0.91945
3078.80285 0.91892
3076.75441 0.91881
3074.70598 0.91902
3072.65754 0.91924
3070.60910 0.91916
3068.56066 0.91884
3066.51222 0.91854
3064.46378 0.91822
3062.41535 0.91759
3060.36691 0.91668
3058.31847 0.91580
3056.27003 0.91485
3054.22159 0.91352
3052.17315 0.91204
3050.12471 0.91103
3048.07628 0.91087
3046.02784 0.91118
3043.97940 0.91146
3041.93096 0.91176
3039.88252 0.91221
3037.83408 0.91271
3035.78565 0.91309
3033.73721 0.91314
3031.68877 0.91291
3029.64033 0.91256
3027.59189 0.91202
3025.54345 0.91130
3023.49502 0.91054
3021.44658 0.90985
3019.39814 0.90929
3017.34970 0.90906
3015.30126 0.90924
3013.25282 0.90960
3011.20439 0.91000
3009.15595 0.91036
3007.10751 0.91037
3005.05907 0.91005
3003.01063 0.90971
3000.96219 0.90930
2998.91376 0.90876
2996.86532 0.90825
2994.81688 0.90785
2992.76844 0.90763
2990.72000 0.90771
2988.67156 0.90817
2986.62313 0.90909
2984.57469 0.91030
2982.52625 0.91158
2980.47781 0.91302
2978.42937 0.91468
2976.38093 0.91632
2974.33250 0.91784
2972.28406 0.91954
2970.23562 0.92169
2968.18718 0.92414
2966.13874 0.92657
2964.09030 0.92879
2962.04187 0.93086
2959.99343 0.93276
2957.94499 0.93432
2955.89655 0.93529
2953.84811 0.93569
2951.79967 0.93574
2949.75124 0.93572
2947.70280 0.93613
2945.65436 0.93729
2943.60592 0.93918
2941.55748 0.94179
2939.50904 0.94490
2937.46061 0.94820
2935.41217 0.95154
2933.36373 0.95495
2931.31529 0.95840
2929.26685 0.96161
2927.21841 0.96434
2925.16998 0.96642
2923.12154 0.96786
2921.07310 0.96897
2919.02466 0.96946
2916.97622 0.96799
2914.92778 0.96388
2912.87934 0.95829
2910.83091 0.95288
2908.78247 0.94843
2906.73403 0.94492
2904.68559 0.94199
2902.63715 0.93946
2900.58871 0.93723
2898.54028 0.93524
2896.49184 0.93346
2894.44340 0.93179
2892.39496 0.93007
2890.34652 0.92847
2888.29808 0.92723
2886.24965 0.92630
2884.20121 0.92546
2882.15277 0.92487
2880.10433 0.92502
2878.05589 0.92573
2876.00745 0.92660
2873.95902 0.92766
2871.91058 0.92870
2869.86214 0.92932
2867.81370 0.92970
2865.76526 0.93037
2863.71682 0.93162
2861.66839 0.93356
2859.61995 0.93643
2857.57151 0.94028
2855.52307 0.94478
2853.47463 0.94921
2851.42619 0.95212
2849.37776 0.95130
2847.32932 0.94563
2845.28088 0.93721
2843.23244 0.92919
2841.18400 0.92285
2839.13556 0.91813
2837.08713 0.91466
2835.03869 0.91180
2832.99025 0.90935
2830.94181 0.90771
2828.89337 0.90704
2826.84493 0.90699
2824.79650 0.90704
2822.74806 0.90683
2820.69962 0.90635
2818.65118 0.90566
2816.60274 0.90468
2814.55430 0.90357
2812.50587 0.90271
2810.45743 0.90194
2808.40899 0.90095
2806.36055 0.89975
2804.31211 0.89871
2802.26367 0.89813
2800.21524 0.89787
2798.16680 0.89770
2796.11836 0.89777
2794.06992 0.89811
2792.02148 0.89840
2789.97304 0.89852
2787.92461 0.89843
2785.87617 0.89803
2783.82773 0.89738
2781.77929 0.89653
2779.73085 0.89556
2777.68241 0.89473
2775.63397 0.89420
2773.58554 0.89407
2771.53710 0.89415
2769.48866 0.89415
2767.44022 0.89431
2765.39178 0.89488
2763.34334 0.89565
2761.29491 0.89619
2759.24647 0.89637
2757.19803 0.89641
2755.14959 0.89625
2753.10115 0.89556
2751.05271 0.89464
2749.00428 0.89406
2746.95584 0.89378
2744.90740 0.89373
2742.85896 0.89405
2740.81052 0.89455
2738.76208 0.89489
2736.71365 0.89493
2734.66521 0.89477
2732.61677 0.89463
2730.56833 0.89466
2728.51989 0.89469
2726.47145 0.89452
2724.42302 0.89422
2722.37458 0.89404
2720.32614 0.89404
2718.27770 0.89402
2716.22926 0.89377
2714.18082 0.89348
2712.13239 0.89364
2710.08395 0.89425
2708.03551 0.89469
2705.98707 0.89470
2703.93863 0.89453
2701.89019 0.89435
2699.84176 0.89422
2697.79332 0.89419
2695.74488 0.89421
2693.69644 0.89420
2691.64800 0.89416
2689.59956 0.89410
2687.55113 0.89393
2685.50269 0.89360
2683.45425 0.89348
2681.40581 0.89372
2679.35737 0.89390
2677.30893 0.89402
2675.26050 0.89419
2673.21206 0.89407
2671.16362 0.89368
2669.11518 0.89348
2667.06674 0.89387
2665.01830 0.89456
2662.96987 0.89483
2660.92143 0.89465
2658.87299 0.89448
2656.82455 0.89460
2654.77611 0.89515
2652.72767 0.89595
2650.67924 0.89651
2648.63080 0.89641
2646.58236 0.89594
2644.53392 0.89564
2642.48548 0.89567
2640.43704 0.89581
2638.38860 0.89587
2636.34017 0.89592
2634.29173 0.89608
2632.24329 0.89625
2630.19485 0.89650
2628.14641 0.89692
2626.09797 0.89737
2624.04954 0.89771
2622.00110 0.89799
2619.95266 0.89811
2617.90422 0.89783
2615.85578 0.89732
2613.80734 0.89684
2611.75891 0.89649
2609.71047 0.89661
2607.66203 0.89729
2605.61359 0.89812
2603.56515 0.89881
2601.51671 0.89929
2599.46828 0.89947
2597.41984 0.89940
2595.37140 0.89932
2593.32296 0.89916
2591.27452 0.89884
2589.22608 0.89852
2587.17765 0.89830
2585.12921 0.89805
2583.08077 0.89783
2581.03233 0.89772
2578.98389 0.89778
2576.93545 0.89809
2574.88702 0.89843
2572.83858 0.89847
2570.79014 0.89818
2568.74170 0.89769
2566.69326 0.89685
2564.64482 0.89551
2562.59639 0.89408
2560.54795 0.89309
2558.49951 0.89251
2556.45107 0.89210
2554.40263 0.89184
2552.35419 0.89169
2550.30576 0.89169
2548.25732 0.89202
2546.20888 0.89272
2544.16044 0.89358
2542.11200 0.89413
2540.06356 0.89400
2538.01513 0.89326
2535.96669 0.89212
2533.91825 0.89085
2531.86981 0.88973
2529.82137 0.88884
2527.77293 0.88827
2525.72450 0.88812
2523.67606 0.88824
2521.62762 0.88846
2519.57918 0.88859
2517.53074 0.88858
2515.48230 0.88860
2513.43387 0.88860
2511.38543 0.88825
2509.33699 0.88754
2507.28855 0.88676
2505.24011 0.88593
2503.19167 0.88492
2501.14324 0.88403
2499.09480 0.88356
2497.04636 0.88331
2494.99792 0.88311
2492.94948 0.88316
2490.90104 0.88348
2488.85260 0.88372
2486.80417 0.88368
2484.75573 0.88360
2482.70729 0.88373
2480.65885 0.88392
2478.61041 0.88386
2476.56197 0.88334
2474.51354 0.88239
2472.46510 0.88161
2470.41666 0.88155
2468.36822 0.88212
2466.31978 0.88279
2464.27134 0.88323
2462.22291 0.88353
2460.17447 0.88392
2458.12603 0.88454
2456.07759 0.88520
2454.02915 0.88568
2451.98071 0.88595
2449.93228 0.88592
2447.88384 0.88580
2445.83540 0.88598
2443.78696 0.88657
2441.73852 0.88744
2439.69008 0.88861
2437.64165 0.89033
2435.59321 0.89285
2433.54477 0.89613
2431.49633 0.89971
2429.44789 0.90253
2427.39945 0.90345
2425.35102 0.90231
2423.30258 0.89986
2421.25414 0.89677
2419.20570 0.89379
2417.15726 0.89162
2415.10882 0.89034
2413.06039 0.88985
2411.01195 0.88983
2408.96351 0.88978
2406.91507 0.88964
2404.86663 0.88956
2402.81819 0.88922
2400.76976 0.88848
2398.72132 0.88781
2396.67288 0.88759
2394.62444 0.88762
2392.57600 0.88781
2390.52756 0.88837
2388.47913 0.88918
2386.43069 0.88958
2384.38225 0.88911
2382.33381 0.88783
2380.28537 0.88604
2378.23693 0.88410
2376.18850 0.88205
2374.14006 0.87967
2372.09162 0.87682
2370.04318 0.87340
2367.99474 0.86997
2365.94630 0.86723
2363.89787 0.86473
2361.84943 0.86307
2359.80099 0.86370
2357.75255 0.86685
2355.70411 0.87169
2353.65567 0.87659
2351.60723 0.88027
2349.55880 0.88098
2347.51036 0.87855
2345.46192 0.87501
2343.41348 0.87292
2341.36504 0.87246
2339.31660 0.87302
2337.26817 0.87416
2335.21973 0.87522
2333.17129 0.87603
2331.12285 0.87690
2329.07441 0.87756
2327.02597 0.87768
2324.97754 0.87796
2322.92910 0.87914
2320.88066 0.88095
2318.83222 0.88215
2316.78378 0.88231
2314.73534 0.88199
2312.68691 0.88161
2310.63847 0.88143
2308.59003 0.88189
2306.54159 0.88297
2304.49315 0.88403
2302.44471 0.88476
2300.39628 0.88503
2298.34784 0.88481
2296.29940 0.88460
2294.25096 0.88489
2292.20252 0.88539
2290.15408 0.88575
2288.10565 0.88597
2286.05721 0.88587
2284.00877 0.88521
2281.96033 0.88428
2279.91189 0.88367
2277.86345 0.88364
2275.81502 0.88396
2273.76658 0.88433
2271.71814 0.88493
2269.66970 0.88587
2267.62126 0.88674
2265.57282 0.88711
2263.52439 0.88701
2261.47595 0.88662
2259.42751 0.88620
2257.37907 0.88588
2255.33063 0.88532
2253.28219 0.88441
2251.23376 0.88367
2249.18532 0.88343
2247.13688 0.88365
2245.08844 0.88401
2243.04000 0.88422
2240.99156 0.88456
2238.94313 0.88542
2236.89469 0.88632
2234.84625 0.88669
2232.79781 0.88673
2230.74937 0.88654
2228.70093 0.88606
2226.65250 0.88545
2224.60406 0.88490
2222.55562 0.88454
2220.50718 0.88456
2218.45874 0.88510
2216.41030 0.88604
2214.36186 0.88719
2212.31343 0.88841
2210.26499 0.88945
2208.21655 0.89009
2206.16811 0.89026
2204.11967 0.89010
2202.07123 0.88988
2200.02280 0.88957
2197.97436 0.88894
2195.92592 0.88814
2193.87748 0.88753
2191.82904 0.88725
2189.78060 0.88738
2187.73217 0.88805
2185.68373 0.88921
2183.63529 0.89049
2181.58685 0.89158
2179.53841 0.89234
2177.48997 0.89270
2175.44154 0.89275
2173.39310 0.89263
2171.34466 0.89229
2169.29622 0.89184
2167.24778 0.89150
2165.19934 0.89144
2163.15091 0.89165
2161.10247 0.89188
2159.05403 0.89201
2157.00559 0.89216
2154.95715 0.89239
2152.90871 0.89284
2150.86028 0.89368
2148.81184 0.89454
2146.76340 0.89482
2144.71496 0.89462
2142.66652 0.89450
2140.61808 0.89446
2138.56965 0.89441
2136.52121 0.89426
2134.47277 0.89382
2132.42433 0.89335
2130.37589 0.89340
2128.32745 0.89379
2126.27902 0.89393
2124.23058 0.89360
2122.18214 0.89327
2120.13370 0.89361
2118.08526 0.89438
2116.03682 0.89462
2113.98839 0.89419
2111.93995 0.89393
2109.89151 0.89438
2107.84307 0.89521
2105.79463 0.89567
2103.74619 0.89555
2101.69776 0.89519
2099.64932 0.89476
2097.60088 0.89419
2095.55244 0.89356
2093.50400 0.89308
2091.45556 0.89292
2089.40713 0.89311
2087.35869 0.89349
2085.31025 0.89377
2083.26181 0.89401
2081.21337 0.89442
2079.16493 0.89498
2077.11649 0.89567
2075.06806 0.89649
2073.01962 0.89713
2070.97118 0.89714
2068.92274 0.89646
2066.87430 0.89564
2064.82586 0.89538
2062.77743 0.89581
2060.72899 0.89661
2058.68055 0.89767
2056.63211 0.89875
2054.58367 0.89966
2052.53523 0.90064
2050.48680 0.90190
2048.43836 0.90318
2046.38992 0.90402
2044.34148 0.90414
2042.29304 0.90371
2040.24460 0.90321
2038.19617 0.90265
2036.14773 0.90189
2034.09929 0.90140
2032.05085 0.90147
2030.00241 0.90158
2027.95397 0.90155
2025.90554 0.90203
2023.85710 0.90328
2021.80866 0.90459
2019.76022 0.90526
2017.71178 0.90572
2015.66334 0.90634
2013.61491 0.90644
2011.56647 0.90582
2009.51803 0.90504
2007.46959 0.90459
2005.42115 0.90460
2003.37271 0.90466
2001.32428 0.90480
1999.27584 0.90585
1997.22740 0.90758
1995.17896 0.90871
1993.13052 0.90931
1991.08208 0.91027
1989.03365 0.91118
1986.98521 0.91181
1984.93677 0.91220
1982.88833 0.91213
1980.83989 0.91188
1978.79145 0.91154
1976.74302 0.91086
1974.69458 0.91026
1972.64614 0.91036
1970.59770 0.91080
1968.54926 0.91135
1966.50082 0.91261
1964.45239 0.91431
1962.40395 0.91555
1960.35551 0.91626
1958.30707 0.91672
1956.25863 0.91717
1954.21019 0.91759
1952.16176 0.91754
1950.11332 0.91692
1948.06488 0.91589
1946.01644 0.91466
1943.96800 0.91402
1941.91956 0.91503
1939.87112 0.91699
1937.82269 0.91857
1935.77425 0.91978
1933.72581 0.92063
1931.67737 0.92111
1929.62893 0.92126
1927.58049 0.92114
1925.53206 0.92062
1923.48362 0.92025
1921.43518 0.92014
1919.38674 0.91947
1917.33830 0.91904
1915.28986 0.91908
1913.24143 0.91852
1911.19299 0.91776
1909.14455 0.91783
1907.09611 0.91861
1905.04767 0.91894
1902.99923 0.91867
1900.95080 0.91857
1898.90236 0.91868
1896.85392 0.91861
1894.80548 0.91865
1892.75704 0.91850
1890.70860 0.91813
1888.66017 0.91888
1886.61173 0.92022
1884.56329 0.92121
1882.51485 0.92177
1880.46641 0.92149
1878.41797 0.92080
1876.36954 0.92036
1874.32110 0.92014
1872.27266 0.91943
1870.22422 0.91871
1868.17578 0.92029
1866.12734 0.92314
1864.07891 0.92445
1862.03047 0.92471
1859.98203 0.92504
1857.93359 0.92565
1855.88515 0.92605
1853.83671 0.92584
1851.78828 0.92486
1849.73984 0.92304
1847.69140 0.92063
1845.64296 0.91900
1843.59452 0.92097
1841.54608 0.92439
1839.49765 0.92583
1837.44921 0.92647
1835.40077 0.92728
1833.35233 0.92728
1831.30389 0.92648
1829.25545 0.92683
1827.20702 0.92744
1825.15858 0.92741
1823.11014 0.92763
1821.06170 0.92704
1819.01326 0.92558
1816.96482 0.92439
1814.91639 0.92348
1812.86795 0.92253
1810.81951 0.92253
1808.77107 0.92368
1806.72263 0.92449
1804.67419 0.92418
1802.62575 0.92344
1800.57732 0.92389
1798.52888 0.92488
1796.48044 0.92439
1794.43200 0.92263
1792.38356 0.92221
1790.33512 0.92393
1788.28669 0.92418
1786.23825 0.92319
1784.18981 0.92287
1782.14137 0.92331
1780.09293 0.92488
1778.04449 0.92709
1775.99606 0.92786
1773.94762 0.92779
1771.89918 0.93015
1769.85074 0.93379
1767.80230 0.93575
1765.75386 0.93626
1763.70543 0.93570
1761.65699 0.93618
1759.60855 0.93752
1757.56011 0.93847
1755.51167 0.93997
1753.46323 0.94050
1751.41480 0.94085
1749.36636 0.94497
1747.31792 0.95174
1745.26948 0.95733
1743.22104 0.96153
1741.17260 0.96538
1739.12417 0.96882
1737.07573 0.96929
1735.02729 0.96707
1732.97885 0.96640
1730.93041 0.96623
1728.88197 0.96449
1726.83354 0.96215
1724.78510 0.95980
1722.73666 0.95799
1720.68822 0.95576
1718.63978 0.95340
1716.59134 0.95579
1714.54291 0.96098
1712.49447 0.96307
1710.44603 0.96257
1708.39759 0.96060
1706.34915 0.95853
1704.30071 0.95697
1702.25228 0.95467
1700.20384 0.95273
1698.15540 0.95303
1696.10696 0.95471
1694.05852 0.95694
1692.01008 0.95731
1689.96165 0.95705
1687.91321 0.95679
1685.86477 0.95569
1683.81633 0.95819
1681.76789 0.96317
1679.71945 0.96520
1677.67102 0.96612
1675.62258 0.96787
1673.57414 0.96983
1671.52570 0.96964
1669.47726 0.97026
1667.42882 0.97247
1665.38038 0.97239
1663.33195 0.97189
1661.28351 0.97363
1659.23507 0.97500
1657.18663 0.97369
1655.13819 0.97038
1653.08975 0.97124
1651.04132 0.97526
1648.99288 0.97386
1646.94444 0.97335
1644.89600 0.97690
1642.84756 0.97828
1640.79912 0.97711
1638.75069 0.97421
1636.70225 0.97150
1634.65381 0.97342
1632.60537 0.97523
1630.55693 0.97415
1628.50849 0.97197
1626.46006 0.96983
1624.41162 0.96828
1622.36318 0.96825
1620.31474 0.96804
1618.26630 0.96692
1616.21786 0.96817
1614.16943 0.97012
1612.12099 0.96963
1610.07255 0.96872
1608.02411 0.96913
1605.97567 0.97018
1603.92723 0.97060
1601.87880 0.97006
1599.83036 0.96848
1597.78192 0.96616
1595.73348 0.96406
1593.68504 0.96323
1591.63660 0.96376
1589.58817 0.96531
1587.53973 0.96756
1585.49129 0.97010
1583.44285 0.97272
1581.39441 0.97480
1579.34597 0.97480
1577.29754 0.97279
1575.24910 0.97120
1573.20066 0.96866
1571.15222 0.96378
1569.10378 0.95945
1567.05534 0.95785
1565.00691 0.95658
1562.95847 0.95416
1560.91003 0.95033
1558.86159 0.95212
1556.81315 0.96106
1554.76471 0.96420
1552.71628 0.96547
1550.66784 0.96642
1548.61940 0.96684
1546.57096 0.96503
1544.52252 0.96059
1542.47408 0.95521
1540.42565 0.95357
1538.37721 0.95701
1536.32877 0.95685
1534.28033 0.95498
1532.23189 0.95541
1530.18345 0.95586
1528.13501 0.95458
1526.08658 0.95302
1524.03814 0.95107
1521.98970 0.94984
1519.94126 0.95083
1517.89282 0.95116
1515.84438 0.95141
1513.79595 0.95137
1511.74751 0.94941
1509.69907 0.94506
1507.65063 0.94132
1505.60219 0.94598
1503.55375 0.94907
1501.50532 0.94895
1499.45688 0.94902
1497.40844 0.95162
1495.36000 0.95540
1493.31156 0.95600
1491.26312 0.95456
1489.21469 0.95550
1487.16625 0.95896
1485.11781 0.96058
1483.06937 0.96065
1481.02093 0.96109
1478.97249 0.96178
1476.92406 0.96155
1474.87562 0.96139
1472.82718 0.96535
1470.77874 0.97257
1468.73030 0.97645
1466.68186 0.97785
1464.63343 0.97899
1462.58499 0.97849
1460.53655 0.97468
1458.48811 0.96902
1456.43967 0.96737
1454.39123 0.96909
1452.34280 0.96936
1450.29436 0.96875
1448.24592 0.96771
1446.19748 0.96630
1444.14904 0.96455
1442.10060 0.96321
1440.05217 0.96260
1438.00373 0.96277
1435.95529 0.96459
1433.90685 0.96566
1431.85841 0.96477
1429.80997 0.96382
1427.76154 0.96315
1425.71310 0.96168
1423.66466 0.95988
1421.61622 0.95844
1419.56778 0.95797
1417.51934 0.95935
1415.47091 0.95976
1413.42247 0.95838
1411.37403 0.95697
1409.32559 0.95643
1407.27715 0.95605
1405.22871 0.95612
1403.18028 0.95671
1401.13184 0.95609
1399.08340 0.95422
1397.03496 0.95256
1394.98652 0.95237
1392.93808 0.95332
1390.88965 0.95327
1388.84121 0.95217
1386.79277 0.95220
1384.74433 0.95412
1382.69589 0.95668
1380.64745 0.95918
1378.59901 0.96095
1376.55058 0.96126
1374.50214 0.96094
1372.45370 0.96125
1370.40526 0.96149
1368.35682 0.96167
1366.30838 0.96189
1364.25995 0.96179
1362.21151 0.96228
1360.16307 0.96288
1358.11463 0.96192
1356.06619 0.96048
1354.01775 0.96047
1351.96932 0.96142
1349.92088 0.96204
1347.87244 0.96205
1345.82400 0.96153
1343.77556 0.96037
1341.72712 0.95876
1339.67869 0.95861
1337.63025 0.96101
1335.58181 0.96346
1333.53337 0.96462
1331.48493 0.96467
1329.43649 0.96388
1327.38806 0.96265
1325.33962 0.96107
1323.29118 0.95921
1321.24274 0.95740
1319.19430 0.95672
1317.14586 0.95798
1315.09743 0.96021
1313.04899 0.96260
1311.00055 0.96515
1308.95211 0.96760
1306.90367 0.96947
1304.85523 0.97032
1302.80680 0.97008
1300.75836 0.96924
1298.70992 0.96789
1296.66148 0.96599
1294.61304 0.96419
1292.56460 0.96273
1290.51617 0.96143
1288.46773 0.96049
1286.41929 0.96019
1284.37085 0.96061
1282.32241 0.96233
1280.27397 0.96560
1278.22554 0.96898
1276.17710 0.97085
1274.12866 0.97118
1272.08022 0.97060
1270.03178 0.96991
1267.98334 0.96999
1265.93491 0.97071
1263.88647 0.97141
1261.83803 0.97168
1259.78959 0.97168
1257.74115 0.97218
1255.69271 0.97316
1253.64428 0.97457
1251.59584 0.97656
1249.54740 0.97843
1247.49896 0.97974
1245.45052 0.98060
1243.40208 0.98084
1241.35364 0.98047
1239.30521 0.97964
1237.25677 0.97907
1235.20833 0.97951
1233.15989 0.98018
1231.11145 0.98045
1229.06301 0.98076
1227.01458 0.98134
1224.96614 0.98274
1222.91770 0.98529
1220.86926 0.98793
1218.82082 0.98933
1216.77238 0.98923
1214.72395 0.98860
1212.67551 0.98864
1210.62707 0.98942
1208.57863 0.99050
1206.53019 0.99179
1204.48175 0.99284
1202.43332 0.99287
1200.38488 0.99167
1198.33644 0.98986
1196.28800 0.98846
1194.23956 0.98786
1192.19112 0.98784
1190.14269 0.98790
1188.09425 0.98833
1186.04581 0.98994
1183.99737 0.99224
1181.94893 0.99389
1179.90049 0.99442
1177.85206 0.99426
1175.80362 0.99344
1173.75518 0.99165
1171.70674 0.98984
1169.65830 0.98905
1167.60986 0.98899
1165.56143 0.98948
1163.51299 0.99012
1161.46455 0.98999
1159.41611 0.98878
1157.36767 0.98748
1155.31923 0.98781
1153.27080 0.99033
1151.22236 0.99391
1149.17392 0.99690
1147.12548 0.99824
1145.07704 0.99785
1143.02860 0.99682
1140.98017 0.99606
1138.93173 0.99546
1136.88329 0.99570
1134.83485 0.99770
1132.78641 1.00048
1130.73797 1.00246
1128.68954 1.00346
1126.64110 1.00420
1124.59266 1.00551
1122.54422 1.00784
1120.49578 1.01076
1118.44734 1.01375
1116.39891 1.01656
1114.35047 1.01869
1112.30203 1.01973
1110.25359 1.02013
1108.20515 1.02033
1106.15671 1.02013
1104.10827 1.01922
1102.05984 1.01788
1100.01140 1.01732
1097.96296 1.01853
1095.91452 1.02092
1093.86608 1.02276
1091.81764 1.02322
1089.76921 1.02342
1087.72077 1.02461
1085.67233 1.02658
1083.62389 1.02807
1081.57545 1.02807
1079.52701 1.02688
1077.47858 1.02566
1075.43014 1.02488
1073.38170 1.02436
1071.33326 1.02423
1069.28482 1.02437
1067.23638 1.02444
1065.18795 1.02485
1063.13951 1.02608
1061.09107 1.02842
1059.04263 1.03183
1056.99419 1.03541
1054.94575 1.03749
1052.89732 1.03686
1050.84888 1.03427
1048.80044 1.03112
1046.75200 1.02861
1044.70356 1.02813
1042.65512 1.02961
1040.60669 1.03132
1038.55825 1.03146
1036.50981 1.03009
1034.46137 1.02895
1032.41293 1.02930
1030.36449 1.03154
1028.31606 1.03500
1026.26762 1.03715
1024.21918 1.03591
1022.17074 1.03208
1020.12230 1.02771
1018.07386 1.02440
1016.02543 1.02310
1013.97699 1.02398
1011.92855 1.02599
1009.88011 1.02729
1007.83167 1.02705
1005.78323 1.02567
1003.73480 1.02441
1001.68636 1.02440
999.63792 1.02538
997.58948 1.02624
995.54104 1.02626
993.49260 1.02472
991.44417 1.02091
989.39573 1.01600
987.34729 1.01135
985.29885 1.00733
983.25041 1.00498
981.20197 1.00458
979.15354 1.00544
977.10510 1.00703
975.05666 1.00845
973.00822 1.00882
970.95978 1.00821
968.91134 1.00719
966.86290 1.00633
964.81447 1.00630
962.76603 1.00673
960.71759 1.00712
958.66915 1.00787
956.62071 1.00815
954.57227 1.00745
952.52384 1.00717
950.47540 1.00843
948.42696 1.01135
946.37852 1.01450
944.33008 1.01597
942.28164 1.01481
940.23321 1.01156
938.18477 1.00874
936.13633 1.00868
934.08789 1.01156
932.03945 1.01576
929.99101 1.01888
927.94258 1.01987
925.89414 1.01989
923.84570 1.02025
921.79726 1.02081
919.74882 1.02172
917.70038 1.02332
915.65195 1.02418
913.60351 1.02316
911.55507 1.02098
909.50663 1.01851
907.45819 1.01653
905.40975 1.01646
903.36132 1.01922
901.31288 1.02412
899.26444 1.02966
897.21600 1.03414
895.16756 1.03606
893.11912 1.03491
891.07069 1.03128
889.02225 1.02714
886.97381 1.02478
884.92537 1.02435
882.87693 1.02434
880.82849 1.02333
878.78006 1.02117
876.73162 1.01898
874.68318 1.01729
872.63474 1.01614
870.58630 1.01660
868.53786 1.01986
866.48943 1.02395
864.44099 1.02534
862.39255 1.02326
860.34411 1.01916
858.29567 1.01552
856.24723 1.01415
854.19880 1.01503
852.15036 1.01717
850.10192 1.01949
848.05348 1.02152
846.00504 1.02321
843.95660 1.02471
841.90817 1.02692
839.85973 1.03061
837.81129 1.03406
835.76285 1.03512
833.71441 1.03407
831.66597 1.03200
829.61753 1.02994
827.56910 1.02921
825.52066 1.03075
823.47222 1.03372
821.42378 1.03607
819.37534 1.03774
817.32690 1.04073
815.27847 1.04648
813.23003 1.05435
811.18159 1.06186
809.13315 1.06595
807.08471 1.06604
805.03627 1.06449
802.98784 1.06297
800.93940 1.06246
798.89096 1.06403
796.84252 1.06736
794.79408 1.07197
792.74564 1.07769
790.69721 1.08384
788.64877 1.08873
786.60033 1.09212
784.55189 1.09667
782.50345 1.10331
780.45501 1.11078
778.40658 1.11765
776.35814 1.12241
774.30970 1.12424
772.26126 1.12261
770.21282 1.11861
768.16438 1.11585
766.11595 1.11916
764.06751 1.13030
762.01907 1.14481
759.97063 1.15674
757.92219 1.16448
755.87375 1.16904
753.82532 1.17084
751.77688 1.17180
749.72844 1.17385
747.68000 1.17604
745.63156 1.17798
743.58312 1.17937
741.53469 1.17919
739.48625 1.17887
737.43781 1.18008
735.38937 1.18373
733.34093 1.19044
731.29249 1.19764
729.24406 1.20227
727.19562 1.20535
725.14718 1.20837
723.09874 1.21023
721.05030 1.21071
719.00186 1.21119
716.95343 1.21258
714.90499 1.21455
712.85655 1.21518
710.80811 1.21316
708.75967 1.21092
706.71123 1.21112
704.66280 1.21263
702.61436 1.21467
700.56592 1.21716
698.51748 1.21780
696.46904 1.21513
694.42060 1.21066
692.37216 1.20718
690.32373 1.20619
688.27529 1.20659
686.22685 1.20591
684.17841 1.20327
682.12997 1.19967
680.08153 1.19513
678.03310 1.19072
675.98466 1.19030
673.93622 1.19441
671.88778 1.19700
669.83934 1.19169
667.79090 1.18137
665.74247 1.17958
663.69403 1.18217
661.64559 1.18674
659.59715 1.19383
657.54871 1.20187
655.50027 1.20627
653.45184 1.20524
651.40340 1.20540
649.35496 1.20592
647.30652 1.20137
645.25808 1.19786
643.20964 1.20037
641.16121 1.20437
639.11277 1.20417
637.06433 1.19699
635.01589 1.18395
632.96745 1.17155
630.91901 1.16609
628.87058 1.16625
626.82214 1.16716
624.77370 1.16649
622.72526 1.16434
620.67682 1.16114
618.62838 1.15806
616.57995 1.15546
614.53151 1.15390
612.48307 1.15432
610.43463 1.15348
608.38619 1.15037
606.33775 1.14701
604.28932 1.14424
602.24088 1.14173
600.19244 1.13797
598.14400 1.13246
