3996.50324 0.94700
3994.45480 0.94738
3992.40636 0.94767
3990.35792 0.94793
3988.30948 0.94821
3986.26104 0.94817
3984.21261 0.94784
3982.16417 0.94759
3980.11573 0.94748
3978.06729 0.94751
3976.01885 0.94766
3973.97041 0.94778
3971.92198 0.94775
3969.87354 0.94775
3967.82510 0.94779
3965.77666 0.94754
3963.72822 0.94712
3961.67978 0.94729
3959.63135 0.94777
3957.58291 0.94807
3955.53447 0.94821
3953.48603 0.94755
3951.43759 0.94638
3949.38915 0.94651
3947.34072 0.94769
3945.29228 0.94739
3943.24384 0.94719
3941.19540 0.94836
3939.14696 0.94845
3937.09852 0.94756
3935.05009 0.94629
3933.00165 0.94597
3930.95321 0.94799
3928.90477 0.94875
3926.85633 0.94715
3924.80789 0.94703
3922.75946 0.94788
3920.71102 0.94652
3918.66258 0.94573
3916.61414 0.94808
3914.56570 0.94983
3912.51726 0.94919
3910.46883 0.94792
3908.42039 0.94539
3906.37195 0.94165
3904.32351 0.94087
3902.27507 0.94412
3900.22663 0.94764
3898.17820 0.94992
3896.12976 0.94835
3894.08132 0.94405
3892.03288 0.94345
3889.98444 0.94606
3887.93600 0.94420
3885.88756 0.94286
3883.83913 0.94448
3881.79069 0.94446
3879.74225 0.94742
3877.69381 0.94820
3875.64537 0.94430
3873.59693 0.94200
3871.54850 0.94180
3869.50006 0.94473
3867.45162 0.94587
3865.40318 0.94342
3863.35474 0.94502
3861.30630 0.94722
3859.25787 0.94425
3857.20943 0.93752
3855.16099 0.93182
3853.11255 0.94127
3851.06411 0.95247
3849.01567 0.95022
3846.96724 0.94506
3844.91880 0.94151
3842.87036 0.94015
3840.82192 0.93950
3838.77348 0.94137
3836.72504 0.94611
3834.67661 0.94725
3832.62817 0.94661
3830.57973 0.94644
3828.53129 0.94509
3826.48285 0.94368
3824.43441 0.94062
3822.38598 0.93688
3820.33754 0.94079
3818.28910 0.94347
3816.24066 0.94461
3814.19222 0.94857
3812.14378 0.94736
3810.09535 0.94261
3808.04691 0.94029
3805.99847 0.94217
3803.95003 0.94072
3801.90159 0.94082
3799.85315 0.94616
3797.80472 0.94683
3795.75628 0.94752
3793.70784 0.94851
3791.65940 0.94726
3789.61096 0.94580
3787.56252 0.94449
3785.51409 0.94463
3783.46565 0.94575
3781.41721 0.94502
3779.36877 0.94590
3777.32033 0.94861
3775.27189 0.94804
3773.22346 0.94492
3771.17502 0.94297
3769.12658 0.94474
3767.07814 0.94639
3765.02970 0.94690
3762.98126 0.94559
3760.93283 0.94229
3758.88439 0.94246
3756.83595 0.94388
3754.78751 0.94044
3752.73907 0.93560
3750.69063 0.93944
3748.64219 0.94541
3746.59376 0.94290
3744.54532 0.94480
3742.49688 0.95070
3740.44844 0.94800
3738.40000 0.94161
3736.35156 0.93971
3734.30313 0.94645
3732.25469 0.95226
3730.20625 0.95107
3728.15781 0.94686
3726.10937 0.94496
3724.06093 0.94654
3722.01250 0.94859
3719.96406 0.94995
3717.91562 0.94962
3715.86718 0.94671
3713.81874 0.94227
3711.77030 0.94330
3709.72187 0.95108
3707.67343 0.95341
3705.62499 0.95047
3703.57655 0.94747
3701.52811 0.94904
3699.47967 0.95137
3697.43124 0.95049
3695.38280 0.94875
3693.33436 0.94611
3691.28592 0.94381
3689.23748 0.94871
3687.18904 0.95558
3685.14061 0.95560
3683.09217 0.95290
3681.04373 0.95031
3678.99529 0.94713
3676.94685 0.94559
3674.89841 0.95279
3672.84998 0.95554
3670.80154 0.95336
3668.75310 0.95795
3666.70466 0.96029
3664.65622 0.95818
3662.60778 0.95664
3660.55935 0.95525
3658.51091 0.95297
3656.46247 0.95357
3654.41403 0.95463
3652.36559 0.94978
3650.31715 0.94666
3648.26872 0.95734
3646.22028 0.96521
3644.17184 0.96417
3642.12340 0.96176
3640.07496 0.96100
3638.02652 0.96078
3635.97809 0.96021
3633.92965 0.95931
3631.88121 0.95653
3629.83277 0.95541
3627.78433 0.96315
3625.73589 0.96697
3623.68746 0.96414
3621.63902 0.96045
3619.59058 0.96075
3617.54214 0.96457
3615.49370 0.96534
3613.44526 0.96571
3611.39682 0.96697
3609.34839 0.96780
3607.29995 0.97025
3605.25151 0.97130
3603.20307 0.96932
3601.15463 0.96801
3599.10619 0.96827
3597.05776 0.96814
3595.00932 0.96913
3592.96088 0.97120
3590.91244 0.97051
3588.86400 0.96944
3586.81556 0.97408
3584.76713 0.97808
3582.71869 0.97735
3580.67025 0.97636
3578.62181 0.97634
3576.57337 0.97636
3574.52493 0.97657
3572.47650 0.97619
3570.42806 0.97376
3568.37962 0.97206
3566.33118 0.97642
3564.28274 0.98081
3562.23430 0.98125
3560.18587 0.98144
3558.13743 0.98165
3556.08899 0.98061
3554.04055 0.97944
3551.99211 0.97980
3549.94367 0.98023
3547.89524 0.97974
3545.84680 0.98066
3543.79836 0.98299
3541.74992 0.98426
3539.70148 0.98416
3537.65304 0.98407
3535.60461 0.98478
3533.55617 0.98503
3531.50773 0.98401
3529.45929 0.98289
3527.41085 0.98279
3525.36241 0.98323
3523.31398 0.98407
3521.26554 0.98529
3519.21710 0.98610
3517.16866 0.98653
3515.12022 0.98693
3513.07178 0.98732
3511.02335 0.98751
3508.97491 0.98768
3506.92647 0.98731
3504.87803 0.98645
3502.82959 0.98690
3500.78115 0.98800
3498.73272 0.98787
3496.68428 0.98749
3494.63584 0.98795
3492.58740 0.98865
3490.53896 0.98898
3488.49052 0.98915
3486.44209 0.98907
3484.39365 0.98862
3482.34521 0.98888
3480.29677 0.98996
3478.24833 0.99006
3476.19989 0.98927
3474.15146 0.98903
3472.10302 0.98945
3470.05458 0.98990
3468.00614 0.98997
3465.95770 0.98967
3463.90926 0.98937
3461.86082 0.98958
3459.81239 0.99000
3457.76395 0.99011
3455.71551 0.99011
3453.66707 0.99036
3451.61863 0.99073
3449.57019 0.99092
3447.52176 0.99145
3445.47332 0.99254
3443.42488 0.99314
3441.37644 0.99316
3439.32800 0.99300
3437.27956 0.99253
3435.23113 0.99190
3433.18269 0.99143
3431.13425 0.99128
3429.08581 0.99152
3427.03737 0.99224
3424.98893 0.99340
3422.94050 0.99436
3420.89206 0.99478
3418.84362 0.99504
3416.79518 0.99481
3414.74674 0.99411
3412.69830 0.99364
3410.64987 0.99347
3408.60143 0.99339
3406.55299 0.99341
3404.50455 0.99359
3402.45611 0.99421
3400.40767 0.99513
3398.35924 0.99569
3396.31080 0.99571
3394.26236 0.99534
3392.21392 0.99520
3390.16548 0.99536
3388.11704 0.99495
3386.06861 0.99396
3384.02017 0.99351
3381.97173 0.99415
3379.92329 0.99503
3377.87485 0.99539
3375.82641 0.99531
3373.77798 0.99485
3371.72954 0.99395
3369.68110 0.99319
3367.63266 0.99312
3365.58422 0.99342
3363.53578 0.99365
3361.48735 0.99381
3359.43891 0.99388
3357.39047 0.99385
3355.34203 0.99401
3353.29359 0.99424
3351.24515 0.99439
3349.19672 0.99447
3347.14828 0.99425
3345.09984 0.99392
3343.05140 0.99393
3341.00296 0.99414
3338.95452 0.99396
3336.90609 0.99358
3334.85765 0.99355
3332.80921 0.99366
3330.76077 0.99370
3328.71233 0.99368
3326.66389 0.99358
3324.61545 0.99364
3322.56702 0.99394
3320.51858 0.99430
3318.47014 0.99436
3316.42170 0.99396
3314.37326 0.99345
3312.32482 0.99311
3310.27639 0.99267
3308.22795 0.99202
3306.17951 0.99163
3304.13107 0.99167
3302.08263 0.99189
3300.03419 0.99192
3297.98576 0.99159
3295.93732 0.99115
3293.88888 0.99094
3291.84044 0.99103
3289.79200 0.99126
3287.74356 0.99139
3285.69513 0.99119
3283.64669 0.99079
3281.59825 0.99078
3279.54981 0.99110
3277.50137 0.99122
3275.45293 0.99122
3273.40450 0.99129
3271.35606 0.99098
3269.30762 0.99035
3267.25918 0.99001
3265.21074 0.99008
3263.16230 0.99038
3261.11387 0.99066
3259.06543 0.99074
3257.01699 0.99049
3254.96855 0.98999
3252.92011 0.98930
3250.87167 0.98844
3248.82324 0.98785
3246.77480 0.98780
3244.72636 0.98807
3242.67792 0.98833
3240.62948 0.98851
3238.58104 0.98888
3236.53261 0.98929
3234.48417 0.98923
3232.43573 0.98877
3230.38729 0.98832
3228.33885 0.98793
3226.29041 0.98749
3224.24198 0.98700
3222.19354 0.98674
3220.14510 0.98698
3218.09666 0.98728
3216.04822 0.98721
3213.99978 0.98697
3211.95135 0.98659
3209.90291 0.98612
3207.85447 0.98592
3205.80603 0.98587
3203.75759 0.98566
3201.70915 0.98537
3199.66072 0.98533
3197.61228 0.98546
3195.56384 0.98513
3193.51540 0.98417
3191.46696 0.98305
3189.41852 0.98204
3187.37008 0.98124
3185.32165 0.98107
3183.27321 0.98134
3181.22477 0.98153
3179.17633 0.98184
3177.12789 0.98257
3175.07945 0.98320
3173.03102 0.98313
3170.98258 0.98240
3168.93414 0.98161
3166.88570 0.98095
3164.83726 0.97996
3162.78882 0.97852
3160.74039 0.97727
3158.69195 0.97680
3156.64351 0.97709
3154.59507 0.97786
3152.54663 0.97872
3150.49819 0.97922
3148.44976 0.97914
3146.40132 0.97857
3144.35288 0.97794
3142.30444 0.97739
3140.25600 0.97694
3138.20756 0.97674
3136.15913 0.97670
3134.11069 0.97665
3132.06225 0.97639
3130.01381 0.97584
3127.96537 0.97550
3125.91693 0.97543
3123.86850 0.97522
3121.82006 0.97516
3119.77162 0.97524
3117.72318 0.97514
3115.67474 0.97520
3113.62630 0.97562
3111.57787 0.97596
3109.52943 0.97579
3107.48099 0.97522
3105.43255 0.97457
3103.38411 0.97400
3101.33567 0.97359
3099.28724 0.97323
3097.23880 0.97296
3095.19036 0.97309
3093.14192 0.97348
3091.09348 0.97375
3089.04504 0.97371
3086.99661 0.97306
3084.94817 0.97206
3082.89973 0.97124
3080.85129 0.97077
3078.80285 0.97057
3076.75441 0.97064
3074.70598 0.97110
3072.65754 0.97192
3070.60910 0.97261
3068.56066 0.97293
3066.51222 0.97322
3064.46378 0.97357
3062.41535 0.97368
3060.36691 0.97340
3058.31847 0.97289
3056.27003 0.97229
3054.22159 0.97171
3052.17315 0.97123
3050.12471 0.97087
3048.07628 0.97047
3046.02784 0.97004
3043.97940 0.96983
3041.93096 0.96988
3039.88252 0.97006
3037.83408 0.97046
3035.78565 0.97089
3033.73721 0.97105
3031.68877 0.97133
3029.64033 0.97181
3027.59189 0.97181
3025.54345 0.97124
3023.49502 0.97036
3021.44658 0.96953
3019.39814 0.96920
3017.34970 0.96924
3015.30126 0.96935
3013.25282 0.96959
3011.20439 0.97006
3009.15595 0.97065
3007.10751 0.97125
3005.05907 0.97159
3003.01063 0.97153
3000.96219 0.97140
2998.91376 0.97140
2996.86532 0.97141
2994.81688 0.97135
2992.76844 0.97125
2990.72000 0.97133
2988.67156 0.97160
2986.62313 0.97168
2984.57469 0.97179
2982.52625 0.97233
2980.47781 0.97309
2978.42937 0.97416
2976.38093 0.97571
2974.33250 0.97768
2972.28406 0.98022
2970.23562 0.98323
2968.18718 0.98597
2966.13874 0.98764
2964.09030 0.98810
2962.04187 0.98789
2959.99343 0.98748
2957.94499 0.98702
2955.89655 0.98669
2953.84811 0.98645
2951.79967 0.98608
2949.75124 0.98582
2947.70280 0.98602
2945.65436 0.98644
2943.60592 0.98667
2941.55748 0.98697
2939.50904 0.98772
2937.46061 0.98870
2935.41217 0.99004
2933.36373 0.99217
2931.31529 0.99478
2929.26685 0.99731
2927.21841 0.99970
2925.16998 1.00164
2923.12154 1.00247
2921.07310 1.00199
2919.02466 1.00046
2916.97622 0.99797
2914.92778 0.99468
2912.87934 0.99142
2910.83091 0.98911
2908.78247 0.98789
2906.73403 0.98725
2904.68559 0.98679
2902.63715 0.98613
2900.58871 0.98499
2898.54028 0.98359
2896.49184 0.98212
2894.44340 0.98068
2892.39496 0.97964
2890.34652 0.97915
2888.29808 0.97925
2886.24965 0.97963
2884.20121 0.97971
2882.15277 0.97954
2880.10433 0.97960
2878.05589 0.97990
2876.00745 0.98001
2873.95902 0.97969
2871.91058 0.97901
2869.86214 0.97854
2867.81370 0.97892
2865.76526 0.98019
2863.71682 0.98178
2861.66839 0.98308
2859.61995 0.98401
2857.57151 0.98503
2855.52307 0.98659
2853.47463 0.98814
2851.42619 0.98852
2849.37776 0.98742
2847.32932 0.98547
2845.28088 0.98335
2843.23244 0.98142
2841.18400 0.97954
2839.13556 0.97750
2837.08713 0.97541
2835.03869 0.97346
2832.99025 0.97185
2830.94181 0.97090
2828.89337 0.97063
2826.84493 0.97063
2824.79650 0.97066
2822.74806 0.97070
2820.69962 0.97076
2818.65118 0.97078
2816.60274 0.97045
2814.55430 0.96965
2812.50587 0.96882
2810.45743 0.96829
2808.40899 0.96786
2806.36055 0.96738
2804.31211 0.96705
2802.26367 0.96717
2800.21524 0.96746
2798.16680 0.96746
2796.11836 0.96707
2794.06992 0.96634
2792.02148 0.96559
2789.97304 0.96513
2787.92461 0.96510
2785.87617 0.96559
2783.82773 0.96641
2781.77929 0.96701
2779.73085 0.96683
2777.68241 0.96590
2775.63397 0.96472
2773.58554 0.96369
2771.53710 0.96291
2769.48866 0.96245
2767.44022 0.96234
2765.39178 0.96270
2763.34334 0.96352
2761.29491 0.96440
2759.24647 0.96502
2757.19803 0.96543
2755.14959 0.96566
2753.10115 0.96551
2751.05271 0.96488
2749.00428 0.96415
2746.95584 0.96352
2744.90740 0.96322
2742.85896 0.96353
2740.81052 0.96423
2738.76208 0.96498
2736.71365 0.96530
2734.66521 0.96478
2732.61677 0.96395
2730.56833 0.96346
2728.51989 0.96318
2726.47145 0.96299
2724.42302 0.96335
2722.37458 0.96427
2720.32614 0.96511
2718.27770 0.96569
2716.22926 0.96590
2714.18082 0.96544
2712.13239 0.96447
2710.08395 0.96366
2708.03551 0.96326
2705.98707 0.96295
2703.93863 0.96281
2701.89019 0.96325
2699.84176 0.96405
2697.79332 0.96464
2695.74488 0.96498
2693.69644 0.96535
2691.64800 0.96582
2689.59956 0.96593
2687.55113 0.96537
2685.50269 0.96454
2683.45425 0.96407
2681.40581 0.96417
2679.35737 0.96462
2677.30893 0.96537
2675.26050 0.96628
2673.21206 0.96689
2671.16362 0.96692
2669.11518 0.96649
2667.06674 0.96565
2665.01830 0.96473
2662.96987 0.96415
2660.92143 0.96408
2658.87299 0.96454
2656.82455 0.96525
2654.77611 0.96615
2652.72767 0.96728
2650.67924 0.96815
2648.63080 0.96827
2646.58236 0.96777
2644.53392 0.96688
2642.48548 0.96578
2640.43704 0.96490
2638.38860 0.96454
2636.34017 0.96442
2634.29173 0.96457
2632.24329 0.96521
2630.19485 0.96591
2628.14641 0.96651
2626.09797 0.96711
2624.04954 0.96740
2622.00110 0.96729
2619.95266 0.96708
2617.90422 0.96705
2615.85578 0.96720
2613.80734 0.96730
2611.75891 0.96725
2609.71047 0.96708
2607.66203 0.96662
2605.61359 0.96615
2603.56515 0.96602
2601.51671 0.96598
2599.46828 0.96595
2597.41984 0.96587
2595.37140 0.96592
2593.32296 0.96646
2591.27452 0.96718
2589.22608 0.96756
2587.17765 0.96728
2585.12921 0.96651
2583.08077 0.96596
2581.03233 0.96561
2578.98389 0.96478
2576.93545 0.96376
2574.88702 0.96342
2572.83858 0.96401
2570.79014 0.96514
2568.74170 0.96626
2566.69326 0.96711
2564.64482 0.96786
2562.59639 0.96841
2560.54795 0.96827
2558.49951 0.96742
2556.45107 0.96641
2554.40263 0.96572
2552.35419 0.96539
2550.30576 0.96525
2548.25732 0.96543
2546.20888 0.96594
2544.16044 0.96648
2542.11200 0.96698
2540.06356 0.96742
2538.01513 0.96766
2535.96669 0.96786
2533.91825 0.96830
2531.86981 0.96870
2529.82137 0.96887
2527.77293 0.96917
2525.72450 0.96948
2523.67606 0.96940
2521.62762 0.96907
2519.57918 0.96877
2517.53074 0.96827
2515.48230 0.96774
2513.43387 0.96774
2511.38543 0.96825
2509.33699 0.96909
2507.28855 0.97024
2505.24011 0.97137
2503.19167 0.97208
2501.14324 0.97239
2499.09480 0.97244
2497.04636 0.97229
2494.99792 0.97208
2492.94948 0.97188
2490.90104 0.97194
2488.85260 0.97251
2486.80417 0.97308
2484.75573 0.97338
2482.70729 0.97375
2480.65885 0.97415
2478.61041 0.97443
2476.56197 0.97475
2474.51354 0.97518
2472.46510 0.97576
2470.41666 0.97636
2468.36822 0.97670
2466.31978 0.97656
2464.27134 0.97610
2462.22291 0.97560
2460.17447 0.97515
2458.12603 0.97481
2456.07759 0.97469
2454.02915 0.97491
2451.98071 0.97589
2449.93228 0.97787
2447.88384 0.98023
2445.83540 0.98216
2443.78696 0.98354
2441.73852 0.98491
2439.69008 0.98670
2437.64165 0.98897
2435.59321 0.99184
2433.54477 0.99545
2431.49633 0.99975
2429.44789 1.00395
2427.39945 1.00613
2425.35102 1.00510
2423.30258 1.00157
2421.25414 0.99702
2419.20570 0.99266
2417.15726 0.98901
2415.10882 0.98634
2413.06039 0.98482
2411.01195 0.98394
2408.96351 0.98338
2406.91507 0.98321
2404.86663 0.98330
2402.81819 0.98320
2400.76976 0.98225
2398.72132 0.98073
2396.67288 0.97937
2394.62444 0.97839
2392.57600 0.97786
2390.52756 0.97736
2388.47913 0.97681
2386.43069 0.97683
2384.38225 0.97743
2382.33381 0.97799
2380.28537 0.97788
2378.23693 0.97662
2376.18850 0.97392
2374.14006 0.97010
2372.09162 0.96607
2370.04318 0.96261
2367.99474 0.96023
2365.94630 0.95891
2363.89787 0.95776
2361.84943 0.95685
2359.80099 0.95780
2357.75255 0.96114
2355.70411 0.96533
2353.65567 0.96973
2351.60723 0.97299
2349.55880 0.97207
2347.51036 0.96780
2345.46192 0.96411
2343.41348 0.96384
2341.36504 0.96492
2339.31660 0.96557
2337.26817 0.96585
2335.21973 0.96583
2333.17129 0.96553
2331.12285 0.96508
2329.07441 0.96485
2327.02597 0.96529
2324.97754 0.96633
2322.92910 0.96804
2320.88066 0.97030
2318.83222 0.97206
2316.78378 0.97302
2314.73534 0.97380
2312.68691 0.97456
2310.63847 0.97518
2308.59003 0.97575
2306.54159 0.97621
2304.49315 0.97640
2302.44471 0.97618
2300.39628 0.97568
2298.34784 0.97511
2296.29940 0.97468
2294.25096 0.97445
2292.20252 0.97437
2290.15408 0.97458
2288.10565 0.97501
2286.05721 0.97550
2284.00877 0.97619
2281.96033 0.97676
2279.91189 0.97678
2277.86345 0.97666
2275.81502 0.97664
2273.76658 0.97618
2271.71814 0.97541
2269.66970 0.97534
2267.62126 0.97587
2265.57282 0.97604
2263.52439 0.97586
2261.47595 0.97580
2259.42751 0.97567
2257.37907 0.97547
2255.33063 0.97545
2253.28219 0.97548
2251.23376 0.97582
2249.18532 0.97647
2247.13688 0.97693
2245.08844 0.97710
2243.04000 0.97742
2240.99156 0.97788
2238.94313 0.97765
2236.89469 0.97646
2234.84625 0.97546
2232.79781 0.97550
2230.74937 0.97615
2228.70093 0.97670
2226.65250 0.97676
2224.60406 0.97654
2222.55562 0.97662
2220.50718 0.97723
2218.45874 0.97796
2216.41030 0.97796
2214.36186 0.97691
2212.31343 0.97582
2210.26499 0.97559
2208.21655 0.97587
2206.16811 0.97606
2204.11967 0.97647
2202.07123 0.97749
2200.02280 0.97849
2197.97436 0.97869
2195.92592 0.97802
2193.87748 0.97698
2191.82904 0.97634
2189.78060 0.97631
2187.73217 0.97651
2185.68373 0.97664
2183.63529 0.97687
2181.58685 0.97744
2179.53841 0.97826
2177.48997 0.97923
2175.44154 0.98030
2173.39310 0.98135
2171.34466 0.98199
2169.29622 0.98189
2167.24778 0.98138
2165.19934 0.98107
2163.15091 0.98063
2161.10247 0.97957
2159.05403 0.97852
2157.00559 0.97814
2154.95715 0.97829
2152.90871 0.97860
2150.86028 0.97908
2148.81184 0.97987
2146.76340 0.98080
2144.71496 0.98133
2142.66652 0.98112
2140.61808 0.98074
2138.56965 0.98075
2136.52121 0.98080
2134.47277 0.98069
2132.42433 0.98065
2130.37589 0.98061
2128.32745 0.98068
2126.27902 0.98071
2124.23058 0.98012
2122.18214 0.97932
2120.13370 0.97904
2118.08526 0.97924
2116.03682 0.97957
2113.98839 0.97982
2111.93995 0.98042
2109.89151 0.98176
2107.84307 0.98332
2105.79463 0.98432
2103.74619 0.98455
2101.69776 0.98417
2099.64932 0.98328
2097.60088 0.98225
2095.55244 0.98134
2093.50400 0.98058
2091.45556 0.98033
2089.40713 0.98075
2087.35869 0.98154
2085.31025 0.98254
2083.26181 0.98350
2081.21337 0.98406
2079.16493 0.98396
2077.11649 0.98289
2075.06806 0.98088
2073.01962 0.97896
2070.97118 0.97844
2068.92274 0.97949
2066.87430 0.98121
2064.82586 0.98277
2062.77743 0.98358
2060.72899 0.98348
2058.68055 0.98277
2056.63211 0.98162
2054.58367 0.98035
2052.53523 0.97973
2050.48680 0.97984
2048.43836 0.98024
2046.38992 0.98070
2044.34148 0.98110
2042.29304 0.98182
2040.24460 0.98290
2038.19617 0.98316
2036.14773 0.98234
2034.09929 0.98131
2032.05085 0.98041
2030.00241 0.97956
2027.95397 0.97919
2025.90554 0.98010
2023.85710 0.98194
2021.80866 0.98320
2019.76022 0.98342
2017.71178 0.98339
2015.66334 0.98317
2013.61491 0.98225
2011.56647 0.98098
2009.51803 0.98020
2007.46959 0.98037
2005.42115 0.98146
2003.37271 0.98286
2001.32428 0.98376
1999.27584 0.98413
1997.22740 0.98438
1995.17896 0.98430
1993.13052 0.98413
1991.08208 0.98422
1989.03365 0.98383
1986.98521 0.98327
1984.93677 0.98329
1982.88833 0.98386
1980.83989 0.98489
1978.79145 0.98585
1976.74302 0.98592
1974.69458 0.98500
1972.64614 0.98404
1970.59770 0.98364
1968.54926 0.98398
1966.50082 0.98554
1964.45239 0.98711
1962.40395 0.98730
1960.35551 0.98684
1958.30707 0.98682
1956.25863 0.98726
1954.21019 0.98730
1952.16176 0.98634
1950.11332 0.98503
1948.06488 0.98404
1946.01644 0.98332
1943.96800 0.98330
1941.91956 0.98471
1939.87112 0.98636
1937.82269 0.98714
1935.77425 0.98736
1933.72581 0.98727
1931.67737 0.98708
1929.62893 0.98693
1927.58049 0.98675
1925.53206 0.98596
1923.48362 0.98499
1921.43518 0.98428
1919.38674 0.98340
1917.33830 0.98366
1915.28986 0.98452
1913.24143 0.98420
1911.19299 0.98381
1909.14455 0.98493
1907.09611 0.98681
1905.04767 0.98758
1902.99923 0.98740
1900.95080 0.98722
1898.90236 0.98695
1896.85392 0.98660
1894.80548 0.98644
1892.75704 0.98553
1890.70860 0.98428
1888.66017 0.98455
1886.61173 0.98506
1884.56329 0.98487
1882.51485 0.98496
1880.46641 0.98563
1878.41797 0.98667
1876.36954 0.98725
1874.32110 0.98640
1872.27266 0.98370
1870.22422 0.98098
1868.17578 0.98179
1866.12734 0.98414
1864.07891 0.98446
1862.03047 0.98418
1859.98203 0.98439
1857.93359 0.98470
1855.88515 0.98510
1853.83671 0.98543
1851.78828 0.98482
1849.73984 0.98284
1847.69140 0.97993
1845.64296 0.97804
1843.59452 0.98024
1841.54608 0.98318
1839.49765 0.98352
1837.44921 0.98354
1835.40077 0.98434
1833.35233 0.98407
1831.30389 0.98302
1829.25545 0.98372
1827.20702 0.98412
1825.15858 0.98375
1823.11014 0.98444
1821.06170 0.98442
1819.01326 0.98411
1816.96482 0.98542
1814.91639 0.98726
1812.86795 0.98817
1810.81951 0.98939
1808.77107 0.99082
1806.72263 0.99063
1804.67419 0.98871
1802.62575 0.98656
1800.57732 0.98653
1798.52888 0.98794
1796.48044 0.98807
1794.43200 0.98710
1792.38356 0.98813
1790.33512 0.99111
1788.28669 0.99142
1786.23825 0.99029
1784.18981 0.98983
1782.14137 0.98916
1780.09293 0.98824
1778.04449 0.98699
1775.99606 0.98446
1773.94762 0.98264
1771.89918 0.98591
1769.85074 0.99063
1767.80230 0.99223
1765.75386 0.99193
1763.70543 0.99088
1761.65699 0.99192
1759.60855 0.99373
1757.56011 0.99445
1755.51167 0.99500
1753.46323 0.99359
1751.41480 0.99228
1749.36636 0.99527
1747.31792 0.99942
1745.26948 1.00167
1743.22104 1.00301
1741.17260 1.00455
1739.12417 1.00617
1737.07573 1.00473
1735.02729 1.00211
1732.97885 1.00449
1730.93041 1.00671
1728.88197 1.00660
1726.83354 1.00626
1724.78510 1.00635
1722.73666 1.00683
1720.68822 1.00569
1718.63978 1.00479
1716.59134 1.00935
1714.54291 1.01331
1712.49447 1.01244
1710.44603 1.00923
1708.39759 1.00500
1706.34915 1.00207
1704.30071 1.00115
1702.25228 1.00021
1700.20384 1.00300
1698.15540 1.00910
1696.10696 1.01468
1694.05852 1.01915
1692.01008 1.01869
1689.96165 1.01651
1687.91321 1.01366
1685.86477 1.00939
1683.81633 1.00957
1681.76789 1.01267
1679.71945 1.01208
1677.67102 1.00998
1675.62258 1.00938
1673.57414 1.01023
1671.52570 1.01013
1669.47726 1.01353
1667.42882 1.01808
1665.38038 1.01825
1663.33195 1.01886
1661.28351 1.02171
1659.23507 1.02152
1657.18663 1.01737
1655.13819 1.01217
1653.08975 1.01597
1651.04132 1.02163
1648.99288 1.01821
1646.94444 1.01738
1644.89600 1.02089
1642.84756 1.02064
1640.79912 1.01821
1638.75069 1.01515
1636.70225 1.01485
1634.65381 1.02105
1632.60537 1.02335
1630.55693 1.02159
1628.50849 1.02065
1626.46006 1.02112
1624.41162 1.02203
1622.36318 1.02333
1620.31474 1.02166
1618.26630 1.01768
1616.21786 1.01610
1614.16943 1.01567
1612.12099 1.01450
1610.07255 1.01556
1608.02411 1.01898
1605.97567 1.02162
1603.92723 1.02290
1601.87880 1.02394
1599.83036 1.02396
1597.78192 1.02180
1595.73348 1.01787
1593.68504 1.01369
1591.63660 1.01031
1589.58817 1.00818
1587.53973 1.00762
1585.49129 1.00889
1583.44285 1.01191
1581.39441 1.01485
1579.34597 1.01548
1577.29754 1.01575
1575.24910 1.01793
1573.20066 1.01619
1571.15222 1.01158
1569.10378 1.00872
1567.05534 1.00752
1565.00691 1.00679
1562.95847 1.00537
1560.91003 1.00181
1558.86159 1.00546
1556.81315 1.01497
1554.76471 1.01569
1552.71628 1.01409
1550.66784 1.01166
1548.61940 1.00914
1546.57096 1.00637
1544.52252 1.00355
1542.47408 1.00168
1540.42565 1.00677
1538.37721 1.01593
1536.32877 1.01635
1534.28033 1.01494
1532.23189 1.01487
1530.18345 1.01192
1528.13501 1.00716
1526.08658 1.00355
1524.03814 1.00089
1521.98970 1.00220
1519.94126 1.00781
1517.89282 1.01171
1515.84438 1.01522
1513.79595 1.01599
1511.74751 1.01298
1509.69907 1.00768
1507.65063 1.00534
1505.60219 1.01077
1503.55375 1.01000
1501.50532 1.00610
1499.45688 1.00405
1497.40844 1.00655
1495.36000 1.01117
1493.31156 1.01196
1491.26312 1.01103
1489.21469 1.01291
1487.16625 1.01497
1485.11781 1.01378
1483.06937 1.01146
1481.02093 1.00976
1478.97249 1.00825
1476.92406 1.00651
1474.87562 1.00672
1472.82718 1.01304
1470.77874 1.02009
1468.73030 1.02056
1466.68186 1.01929
1464.63343 1.02081
1462.58499 1.02208
1460.53655 1.01990
1458.48811 1.01749
1456.43967 1.01954
1454.39123 1.02003
1452.34280 1.01787
1450.29436 1.01610
1448.24592 1.01587
1446.19748 1.01629
1444.14904 1.01560
1442.10060 1.01453
1440.05217 1.01373
1438.00373 1.01437
1435.95529 1.01859
1433.90685 1.02140
1431.85841 1.02099
1429.80997 1.02003
1427.76154 1.01795
1425.71310 1.01453
1423.66466 1.01191
1421.61622 1.01077
1419.56778 1.01156
1417.51934 1.01405
1415.47091 1.01443
1413.42247 1.01419
1411.37403 1.01524
1409.32559 1.01590
1407.27715 1.01468
1405.22871 1.01376
1403.18028 1.01457
1401.13184 1.01556
1399.08340 1.01653
1397.03496 1.01676
1394.98652 1.01678
1392.93808 1.01731
1390.88965 1.01615
1388.84121 1.01338
1386.79277 1.01099
1384.74433 1.00934
1382.69589 1.00840
1380.64745 1.00919
1378.59901 1.01151
1376.55058 1.01446
1374.50214 1.01876
1372.45370 1.02310
1370.40526 1.02491
1368.35682 1.02518
1366.30838 1.02376
1364.25995 1.01994
1362.21151 1.01510
1360.16307 1.01121
1358.11463 1.00931
1356.06619 1.01005
1354.01775 1.01270
1351.96932 1.01566
1349.92088 1.01889
1347.87244 1.02241
1345.82400 1.02468
1343.77556 1.02408
1341.72712 1.02084
1339.67869 1.01761
1337.63025 1.01664
1335.58181 1.01682
1333.53337 1.01734
1331.48493 1.01845
1329.43649 1.02006
1327.38806 1.02197
1325.33962 1.02384
1323.29118 1.02477
1321.24274 1.02392
1319.19430 1.02198
1317.14586 1.02077
1315.09743 1.02110
1313.04899 1.02304
1311.00055 1.02645
1308.95211 1.03050
1306.90367 1.03355
1304.85523 1.03364
1302.80680 1.03057
1300.75836 1.02648
1298.70992 1.02366
1296.66148 1.02304
1294.61304 1.02405
1292.56460 1.02565
1290.51617 1.02850
1288.46773 1.03349
1286.41929 1.03894
1284.37085 1.04270
1282.32241 1.04387
1280.27397 1.04152
1278.22554 1.03656
1276.17710 1.03231
1274.12866 1.03054
1272.08022 1.03149
1270.03178 1.03645
1267.98334 1.04551
1265.93491 1.05573
1263.88647 1.06382
1261.83803 1.06813
1259.78959 1.06806
1257.74115 1.06397
1255.69271 1.05779
1253.64428 1.05186
1251.59584 1.04745
1249.54740 1.04453
1247.49896 1.04229
1245.45052 1.04015
1243.40208 1.03822
1241.35364 1.03664
1239.30521 1.03555
1237.25677 1.03528
1235.20833 1.03604
1233.15989 1.03847
1231.11145 1.04365
1229.06301 1.05025
1227.01458 1.05473
1224.96614 1.05532
1222.91770 1.05285
1220.86926 1.04878
1218.82082 1.04401
1216.77238 1.03914
1214.72395 1.03559
1212.67551 1.03490
1210.62707 1.03647
1208.57863 1.03862
1206.53019 1.04141
1204.48175 1.04589
1202.43332 1.05138
1200.38488 1.05524
1198.33644 1.05568
1196.28800 1.05352
1194.23956 1.05068
1192.19112 1.04804
1190.14269 1.04579
1188.09425 1.04489
1186.04581 1.04623
1183.99737 1.04867
1181.94893 1.05053
1179.90049 1.05186
1177.85206 1.05308
1175.80362 1.05383
1173.75518 1.05490
1171.70674 1.05828
1169.65830 1.06389
1167.60986 1.06925
1165.56143 1.07237
1163.51299 1.07305
1161.46455 1.07199
1159.41611 1.06929
1157.36767 1.06451
1155.31923 1.05815
1153.27080 1.05244
1151.22236 1.05004
1149.17392 1.05188
1147.12548 1.05686
1145.07704 1.06345
1143.02860 1.07102
1140.98017 1.07837
1138.93173 1.08307
1136.88329 1.08332
1134.83485 1.07955
1132.78641 1.07449
1130.73797 1.07082
1128.68954 1.06985
1126.64110 1.07224
1124.59266 1.07693
1122.54422 1.08160
1120.49578 1.08533
1118.44734 1.08772
1116.39891 1.08822
1114.35047 1.08776
1112.30203 1.08757
1110.25359 1.08766
1108.20515 1.08770
1106.15671 1.08860
1104.10827 1.09165
1102.05984 1.09586
1100.01140 1.09871
1097.96296 1.09856
1095.91452 1.09488
1093.86608 1.08892
1091.81764 1.08294
1089.76921 1.07847
1087.72077 1.07667
1085.67233 1.07810
1083.62389 1.08218
1081.57545 1.08714
1079.52701 1.09021
1077.47858 1.08935
1075.43014 1.08463
1073.38170 1.07851
1071.33326 1.07386
1069.28482 1.07165
1067.23638 1.07184
1065.18795 1.07439
1063.13951 1.07907
1061.09107 1.08566
1059.04263 1.09328
1056.99419 1.09925
1054.94575 1.10034
1052.89732 1.09549
1050.84888 1.08719
1048.80044 1.07944
1046.75200 1.07464
1044.70356 1.07324
1042.65512 1.07530
1040.60669 1.08066
1038.55825 1.08702
1036.50981 1.09102
1034.46137 1.09197
1032.41293 1.09132
1030.36449 1.08988
1028.31606 1.08779
1026.26762 1.08586
1024.21918 1.08602
1022.17074 1.08924
1020.12230 1.09322
1018.07386 1.09482
1016.02543 1.09298
1013.97699 1.08831
1011.92855 1.08169
1009.88011 1.07429
1007.83167 1.06830
1005.78323 1.06605
1003.73480 1.06813
1001.68636 1.07310
999.63792 1.07945
997.58948 1.08500
995.54104 1.08634
993.49260 1.08273
991.44417 1.07701
989.39573 1.07248
987.34729 1.07007
985.29885 1.06838
983.25041 1.06705
981.20197 1.06797
979.15354 1.07203
977.10510 1.07674
975.05666 1.07811
973.00822 1.07500
970.95978 1.07023
968.91134 1.06637
966.86290 1.06371
964.81447 1.06275
962.76603 1.06565
960.71759 1.07380
958.66915 1.08526
956.62071 1.09557
954.57227 1.10068
952.52384 1.09874
950.47540 1.09136
948.42696 1.08396
946.37852 1.08056
944.33008 1.08041
942.28164 1.08224
940.23321 1.08665
938.18477 1.09345
936.13633 1.10033
934.08789 1.10555
932.03945 1.10796
929.99101 1.10627
927.94258 1.10215
925.89414 1.09915
923.84570 1.09837
921.79726 1.09955
919.74882 1.10274
917.70038 1.10735
915.65195 1.11266
913.60351 1.11792
911.55507 1.12108
909.50663 1.12051
907.45819 1.11721
905.40975 1.11336
903.36132 1.11036
901.31288 1.10828
899.26444 1.10745
897.21600 1.10956
895.16756 1.11508
893.11912 1.12169
891.07069 1.12621
889.02225 1.12807
886.97381 1.12855
884.92537 1.12747
882.87693 1.12466
880.82849 1.12260
878.78006 1.12416
876.73162 1.12885
874.68318 1.13299
872.63474 1.13310
870.58630 1.12933
868.53786 1.12559
866.48943 1.12497
864.44099 1.12726
862.39255 1.13087
860.34411 1.13536
858.29567 1.14070
856.24723 1.14512
854.19880 1.14722
852.15036 1.14708
850.10192 1.14410
848.05348 1.13803
846.00504 1.13129
843.95660 1.12778
841.90817 1.13033
839.85973 1.13769
837.81129 1.14520
835.76285 1.15144
833.71441 1.15768
831.66597 1.16212
829.61753 1.16172
827.56910 1.15685
825.52066 1.15129
823.47222 1.14882
821.42378 1.15064
819.37534 1.15591
817.32690 1.16318
815.27847 1.17057
813.23003 1.17475
811.18159 1.17259
809.13315 1.16582
807.08471 1.15914
805.03627 1.15449
802.98784 1.15249
800.93940 1.15622
798.89096 1.16933
796.84252 1.19036
794.79408 1.21076
792.74564 1.22182
790.69721 1.22173
788.64877 1.21316
786.60033 1.20128
784.55189 1.19221
782.50345 1.18855
780.45501 1.19174
778.40658 1.20361
776.35814 1.22126
774.30970 1.23790
772.26126 1.24920
770.21282 1.25466
768.16438 1.25548
766.11595 1.25280
764.06751 1.24850
762.01907 1.24637
759.97063 1.25046
757.92219 1.26184
755.87375 1.27811
753.82532 1.29519
751.77688 1.30727
749.72844 1.30887
747.68000 1.30031
745.63156 1.28882
743.58312 1.28235
741.53469 1.28434
739.48625 1.29501
737.43781 1.31127
735.38937 1.32735
733.34093 1.33837
731.29249 1.33990
729.24406 1.33339
727.19562 1.32687
725.14718 1.32507
723.09874 1.32723
721.05030 1.32884
719.00186 1.32792
716.95343 1.33024
714.90499 1.34095
712.85655 1.35719
710.80811 1.37088
708.75967 1.37627
706.71123 1.37376
704.66280 1.36810
702.61436 1.36459
700.56592 1.36558
698.51748 1.36955
696.46904 1.37532
694.42060 1.38229
692.37216 1.38584
690.32373 1.38050
688.27529 1.36648
686.22685 1.34934
684.17841 1.33633
682.12997 1.32949
680.08153 1.32425
678.03310 1.32056
675.98466 1.32255
673.93622 1.32990
671.88778 1.33648
669.83934 1.33565
667.79090 1.32580
665.74247 1.31746
663.69403 1.31662
661.64559 1.32745
659.59715 1.34890
657.54871 1.36837
655.50027 1.38109
653.45184 1.38936
651.40340 1.38847
649.35496 1.37501
647.30652 1.35837
645.25808 1.34866
643.20964 1.34056
641.16121 1.32795
639.11277 1.31504
637.06433 1.30676
635.01589 1.30377
632.96745 1.30206
630.91901 1.30005
628.87058 1.29646
626.82214 1.28565
624.77370 1.26915
622.72526 1.25622
620.67682 1.25234
618.62838 1.25492
616.57995 1.25906
614.53151 1.26436
612.48307 1.26803
610.43463 1.26217
608.38619 1.24472
606.33775 1.22373
604.28932 1.21200
602.24088 1.21965
600.19244 1.24261
598.14400 1.26235
