3996.50324 1.05428
3994.45480 1.05388
3992.40636 1.05357
3990.35792 1.05337
3988.30948 1.05377
3986.26104 1.05439
3984.21261 1.05470
3982.16417 1.05503
3980.11573 1.05564
3978.06729 1.05615
3976.01885 1.05630
3973.97041 1.05635
3971.92198 1.05624
3969.87354 1.05589
3967.82510 1.05568
3965.77666 1.05547
3963.72822 1.05498
3961.67978 1.05489
3959.63135 1.05502
3957.58291 1.05468
3955.53447 1.05443
3953.48603 1.05448
3951.43759 1.05440
3949.38915 1.05435
3947.34072 1.05476
3945.29228 1.05493
3943.24384 1.05551
3941.19540 1.05667
3939.14696 1.05647
3937.09852 1.05512
3935.05009 1.05365
3933.00165 1.05328
3930.95321 1.05451
3928.90477 1.05489
3926.85633 1.05402
3924.80789 1.05430
3922.75946 1.05557
3920.71102 1.05558
3918.66258 1.05526
3916.61414 1.05624
3914.56570 1.05690
3912.51726 1.05612
3910.46883 1.05512
3908.42039 1.05347
3906.37195 1.05066
3904.32351 1.04959
3902.27507 1.05163
3900.22663 1.05413
3898.17820 1.05624
3896.12976 1.05607
3894.08132 1.05356
3892.03288 1.05311
3889.98444 1.05516
3887.93600 1.05426
3885.88756 1.05331
3883.83913 1.05415
3881.79069 1.05356
3879.74225 1.05478
3877.69381 1.05532
3875.64537 1.05270
3873.59693 1.05076
3871.54850 1.05075
3869.50006 1.05364
3867.45162 1.05555
3865.40318 1.05418
3863.35474 1.05473
3861.30630 1.05611
3859.25787 1.05446
3857.20943 1.04989
3855.16099 1.04469
3853.11255 1.04884
3851.06411 1.05696
3849.01567 1.05708
3846.96724 1.05467
3844.91880 1.05290
3842.87036 1.05225
3840.82192 1.05150
3838.77348 1.05163
3836.72504 1.05418
3834.67661 1.05533
3832.62817 1.05522
3830.57973 1.05555
3828.53129 1.05509
3826.48285 1.05416
3824.43441 1.05225
3822.38598 1.05023
3820.33754 1.05297
3818.28910 1.05448
3816.24066 1.05466
3814.19222 1.05721
3812.14378 1.05682
3810.09535 1.05347
3808.04691 1.05124
3805.99847 1.05211
3803.95003 1.05097
3801.90159 1.05071
3799.85315 1.05500
3797.80472 1.05664
3795.75628 1.05745
3793.70784 1.05813
3791.65940 1.05730
3789.61096 1.05617
3787.56252 1.05511
3785.51409 1.05498
3783.46565 1.05579
3781.41721 1.05569
3779.36877 1.05631
3777.32033 1.05785
3775.27189 1.05741
3773.22346 1.05520
3771.17502 1.05341
3769.12658 1.05460
3767.07814 1.05656
3765.02970 1.05721
3762.98126 1.05605
3760.93283 1.05368
3758.88439 1.05393
3756.83595 1.05535
3754.78751 1.05334
3752.73907 1.04984
3750.69063 1.05167
3748.64219 1.05585
3746.59376 1.05451
3744.54532 1.05498
3742.49688 1.05886
3740.44844 1.05814
3738.40000 1.05454
3736.35156 1.05283
3734.30313 1.05661
3732.25469 1.06051
3730.20625 1.06021
3728.15781 1.05774
3726.10937 1.05599
3724.06093 1.05631
3722.01250 1.05756
3719.96406 1.05889
3717.91562 1.05905
3715.86718 1.05695
3713.81874 1.05333
3711.77030 1.05341
3709.72187 1.05903
3707.67343 1.06143
3705.62499 1.05999
3703.57655 1.05815
3701.52811 1.05914
3699.47967 1.06105
3697.43124 1.06084
3695.38280 1.05945
3693.33436 1.05704
3691.28592 1.05470
3689.23748 1.05768
3687.18904 1.06327
3685.14061 1.06420
3683.09217 1.06242
3681.04373 1.06011
3678.99529 1.05710
3676.94685 1.05450
3674.89841 1.05826
3672.84998 1.06106
3670.80154 1.06045
3668.75310 1.06405
3666.70466 1.06642
3664.65622 1.06568
3662.60778 1.06502
3660.55935 1.06426
3658.51091 1.06281
3656.46247 1.06335
3654.41403 1.06447
3652.36559 1.06139
3650.31715 1.05817
3648.26872 1.06395
3646.22028 1.06979
3644.17184 1.06999
3642.12340 1.06873
3640.07496 1.06808
3638.02652 1.06782
3635.97809 1.06767
3633.92965 1.06766
3631.88121 1.06645
3629.83277 1.06581
3627.78433 1.07065
3625.73589 1.07341
3623.68746 1.07176
3621.63902 1.06914
3619.59058 1.06894
3617.54214 1.07155
3615.49370 1.07213
3613.44526 1.07181
3611.39682 1.07247
3609.34839 1.07335
3607.29995 1.07524
3605.25151 1.07667
3603.20307 1.07651
3601.15463 1.07640
3599.10619 1.07656
3597.05776 1.07606
3595.00932 1.07630
3592.96088 1.07747
3590.91244 1.07706
3588.86400 1.07625
3586.81556 1.07904
3584.76713 1.08195
3582.71869 1.08190
3580.67025 1.08147
3578.62181 1.08185
3576.57337 1.08237
3574.52493 1.08251
3572.47650 1.08197
3570.42806 1.08014
3568.37962 1.07799
3566.33118 1.07902
3564.28274 1.08162
3562.23430 1.08266
3560.18587 1.08314
3558.13743 1.08359
3556.08899 1.08372
3554.04055 1.08376
3551.99211 1.08442
3549.94367 1.08507
3547.89524 1.08507
3545.84680 1.08550
3543.79836 1.08649
3541.74992 1.08680
3539.70148 1.08626
3537.65304 1.08566
3535.60461 1.08568
3533.55617 1.08604
3531.50773 1.08639
3529.45929 1.08687
3527.41085 1.08748
3525.36241 1.08757
3523.31398 1.08747
3521.26554 1.08806
3519.21710 1.08897
3517.16866 1.08972
3515.12022 1.08975
3513.07178 1.08901
3511.02335 1.08835
3508.97491 1.08821
3506.92647 1.08804
3504.87803 1.08783
3502.82959 1.08874
3500.78115 1.09031
3498.73272 1.09092
3496.68428 1.09088
3494.63584 1.09129
3492.58740 1.09185
3490.53896 1.09176
3488.49052 1.09148
3486.44209 1.09168
3484.39365 1.09192
3482.34521 1.09194
3480.29677 1.09192
3478.24833 1.09165
3476.19989 1.09131
3474.15146 1.09156
3472.10302 1.09233
3470.05458 1.09291
3468.00614 1.09313
3465.95770 1.09346
3463.90926 1.09406
3461.86082 1.09462
3459.81239 1.09486
3457.76395 1.09489
3455.71551 1.09480
3453.66707 1.09447
3451.61863 1.09392
3449.57019 1.09313
3447.52176 1.09248
3445.47332 1.09285
3443.42488 1.09404
3441.37644 1.09532
3439.32800 1.09614
3437.27956 1.09640
3435.23113 1.09644
3433.18269 1.09643
3431.13425 1.09644
3429.08581 1.09641
3427.03737 1.09603
3424.98893 1.09526
3422.94050 1.09455
3420.89206 1.09449
3418.84362 1.09464
3416.79518 1.09417
3414.74674 1.09385
3412.69830 1.09458
3410.64987 1.09571
3408.60143 1.09644
3406.55299 1.09668
3404.50455 1.09648
3402.45611 1.09604
3400.40767 1.09572
3398.35924 1.09563
3396.31080 1.09554
3394.26236 1.09511
3392.21392 1.09455
3390.16548 1.09416
3388.11704 1.09379
3386.06861 1.09354
3384.02017 1.09389
3381.97173 1.09451
3379.92329 1.09496
3377.87485 1.09545
3375.82641 1.09569
3373.77798 1.09556
3371.72954 1.09552
3369.68110 1.09552
3367.63266 1.09512
3365.58422 1.09421
3363.53578 1.09331
3361.48735 1.09275
3359.43891 1.09259
3357.39047 1.09276
3355.34203 1.09261
3353.29359 1.09199
3351.24515 1.09198
3349.19672 1.09273
3347.14828 1.09334
3345.09984 1.09347
3343.05140 1.09323
3341.00296 1.09288
3338.95452 1.09303
3336.90609 1.09384
3334.85765 1.09441
3332.80921 1.09420
3330.76077 1.09360
3328.71233 1.09302
3326.66389 1.09261
3324.61545 1.09223
3322.56702 1.09172
3320.51858 1.09126
3318.47014 1.09110
3316.42170 1.09133
3314.37326 1.09181
3312.32482 1.09202
3310.27639 1.09198
3308.22795 1.09201
3306.17951 1.09188
3304.13107 1.09144
3302.08263 1.09105
3300.03419 1.09108
3297.98576 1.09151
3295.93732 1.09209
3293.88888 1.09252
3291.84044 1.09283
3289.79200 1.09296
3287.74356 1.09276
3285.69513 1.09248
3283.64669 1.09195
3281.59825 1.09114
3279.54981 1.09050
3277.50137 1.09025
3275.45293 1.09021
3273.40450 1.08996
3271.35606 1.08928
3269.30762 1.08880
3267.25918 1.08922
3265.21074 1.09010
3263.16230 1.09081
3261.11387 1.09138
3259.06543 1.09189
3257.01699 1.09212
3254.96855 1.09211
3252.92011 1.09188
3250.87167 1.09126
3248.82324 1.09035
3246.77480 1.08948
3244.72636 1.08898
3242.67792 1.08866
3240.62948 1.08833
3238.58104 1.08815
3236.53261 1.08833
3234.48417 1.08890
3232.43573 1.08950
3230.38729 1.08994
3228.33885 1.09022
3226.29041 1.09012
3224.24198 1.08955
3222.19354 1.08887
3220.14510 1.08858
3218.09666 1.08831
3216.04822 1.08754
3213.99978 1.08661
3211.95135 1.08603
3209.90291 1.08631
3207.85447 1.08719
3205.80603 1.08777
3203.75759 1.08803
3201.70915 1.08813
3199.66072 1.08780
3197.61228 1.08730
3195.56384 1.08715
3193.51540 1.08714
3191.46696 1.08693
3189.41852 1.08634
3187.37008 1.08520
3185.32165 1.08398
3183.27321 1.08323
3181.22477 1.08283
3179.17633 1.08285
3177.12789 1.08324
3175.07945 1.08344
3173.03102 1.08358
3170.98258 1.08401
3168.93414 1.08452
3166.88570 1.08471
3164.83726 1.08431
3162.78882 1.08351
3160.74039 1.08284
3158.69195 1.08240
3156.64351 1.08207
3154.59507 1.08175
3152.54663 1.08110
3150.49819 1.08029
3148.44976 1.08014
3146.40132 1.08044
3144.35288 1.08041
3142.30444 1.08004
3140.25600 1.07975
3138.20756 1.07983
3136.15913 1.08001
3134.11069 1.07990
3132.06225 1.07978
3130.01381 1.07980
3127.96537 1.07976
3125.91693 1.07966
3123.86850 1.07939
3121.82006 1.07901
3119.77162 1.07890
3117.72318 1.07881
3115.67474 1.07829
3113.62630 1.07775
3111.57787 1.07765
3109.52943 1.07789
3107.48099 1.07808
3105.43255 1.07788
3103.38411 1.07746
3101.33567 1.07719
3099.28724 1.07703
3097.23880 1.07703
3095.19036 1.07727
3093.14192 1.07745
3091.09348 1.07744
3089.04504 1.07743
3086.99661 1.07758
3084.94817 1.07765
3082.89973 1.07761
3080.85129 1.07791
3078.80285 1.07855
3076.75441 1.07889
3074.70598 1.07840
3072.65754 1.07736
3070.60910 1.07645
3068.56066 1.07591
3066.51222 1.07550
3064.46378 1.07499
3062.41535 1.07457
3060.36691 1.07471
3058.31847 1.07514
3056.27003 1.07522
3054.22159 1.07525
3052.17315 1.07562
3050.12471 1.07599
3048.07628 1.07614
3046.02784 1.07622
3043.97940 1.07623
3041.93096 1.07598
3039.88252 1.07555
3037.83408 1.07522
3035.78565 1.07486
3033.73721 1.07424
3031.68877 1.07380
3029.64033 1.07397
3027.59189 1.07436
3025.54345 1.07453
3023.49502 1.07460
3021.44658 1.07465
3019.39814 1.07446
3017.34970 1.07402
3015.30126 1.07365
3013.25282 1.07338
3011.20439 1.07319
3009.15595 1.07348
3007.10751 1.07386
3005.05907 1.07351
3003.01063 1.07279
3000.96219 1.07246
2998.91376 1.07280
2996.86532 1.07389
2994.81688 1.07534
2992.76844 1.07653
2990.72000 1.07703
2988.67156 1.07696
2986.62313 1.07673
2984.57469 1.07651
2982.52625 1.07657
2980.47781 1.07692
2978.42937 1.07734
2976.38093 1.07803
2974.33250 1.07931
2972.28406 1.08112
2970.23562 1.08331
2968.18718 1.08575
2966.13874 1.08822
2964.09030 1.09026
2962.04187 1.09138
2959.99343 1.09168
2957.94499 1.09161
2955.89655 1.09119
2953.84811 1.09046
2951.79967 1.08981
2949.75124 1.08927
2947.70280 1.08863
2945.65436 1.08786
2943.60592 1.08733
2941.55748 1.08757
2939.50904 1.08872
2937.46061 1.09039
2935.41217 1.09223
2933.36373 1.09431
2931.31529 1.09644
2929.26685 1.09814
2927.21841 1.09944
2925.16998 1.10043
2923.12154 1.10085
2921.07310 1.10051
2919.02466 1.09955
2916.97622 1.09829
2914.92778 1.09698
2912.87934 1.09552
2910.83091 1.09375
2908.78247 1.09209
2906.73403 1.09091
2904.68559 1.08986
2902.63715 1.08876
2900.58871 1.08780
2898.54028 1.08700
2896.49184 1.08648
2894.44340 1.08612
2892.39496 1.08548
2890.34652 1.08455
2888.29808 1.08357
2886.24965 1.08279
2884.20121 1.08224
2882.15277 1.08191
2880.10433 1.08192
2878.05589 1.08218
2876.00745 1.08250
2873.95902 1.08291
2871.91058 1.08309
2869.86214 1.08280
2867.81370 1.08262
2865.76526 1.08320
2863.71682 1.08443
2861.66839 1.08601
2859.61995 1.08764
2857.57151 1.08894
2855.52307 1.08978
2853.47463 1.09010
2851.42619 1.08999
2849.37776 1.08942
2847.32932 1.08810
2845.28088 1.08599
2843.23244 1.08317
2841.18400 1.08014
2839.13556 1.07772
2837.08713 1.07628
2835.03869 1.07562
2832.99025 1.07528
2830.94181 1.07495
2828.89337 1.07461
2826.84493 1.07428
2824.79650 1.07365
2822.74806 1.07277
2820.69962 1.07224
2818.65118 1.07215
2816.60274 1.07208
2814.55430 1.07169
2812.50587 1.07085
2810.45743 1.07001
2808.40899 1.06954
2806.36055 1.06933
2804.31211 1.06935
2802.26367 1.06949
2800.21524 1.06956
2798.16680 1.06948
2796.11836 1.06941
2794.06992 1.06946
2792.02148 1.06958
2789.97304 1.06979
2787.92461 1.07006
2785.87617 1.06999
2783.82773 1.06927
2781.77929 1.06838
2779.73085 1.06781
2777.68241 1.06742
2775.63397 1.06712
2773.58554 1.06696
2771.53710 1.06697
2769.48866 1.06706
2767.44022 1.06720
2765.39178 1.06756
2763.34334 1.06803
2761.29491 1.06842
2759.24647 1.06887
2757.19803 1.06965
2755.14959 1.07036
2753.10115 1.07023
2751.05271 1.06954
2749.00428 1.06890
2746.95584 1.06832
2744.90740 1.06782
2742.85896 1.06765
2740.81052 1.06752
2738.76208 1.06710
2736.71365 1.06666
2734.66521 1.06659
2732.61677 1.06696
2730.56833 1.06758
2728.51989 1.06822
2726.47145 1.06869
2724.42302 1.06891
2722.37458 1.06887
2720.32614 1.06873
2718.27770 1.06866
2716.22926 1.06842
2714.18082 1.06801
2712.13239 1.06770
2710.08395 1.06752
2708.03551 1.06756
2705.98707 1.06778
2703.93863 1.06810
2701.89019 1.06826
2699.84176 1.06812
2697.79332 1.06800
2695.74488 1.06805
2693.69644 1.06826
2691.64800 1.06861
2689.59956 1.06898
2687.55113 1.06919
2685.50269 1.06916
2683.45425 1.06916
2681.40581 1.06926
2679.35737 1.06936
2677.30893 1.06954
2675.26050 1.06967
2673.21206 1.06954
2671.16362 1.06927
2669.11518 1.06899
2667.06674 1.06876
2665.01830 1.06881
2662.96987 1.06916
2660.92143 1.06935
2658.87299 1.06918
2656.82455 1.06894
2654.77611 1.06882
2652.72767 1.06877
2650.67924 1.06852
2648.63080 1.06795
2646.58236 1.06768
2644.53392 1.06807
2642.48548 1.06854
2640.43704 1.06870
2638.38860 1.06872
2636.34017 1.06874
2634.29173 1.06893
2632.24329 1.06921
2630.19485 1.06931
2628.14641 1.06926
2626.09797 1.06917
2624.04954 1.06892
2622.00110 1.06865
2619.95266 1.06845
2617.90422 1.06795
2615.85578 1.06714
2613.80734 1.06638
2611.75891 1.06592
2609.71047 1.06592
2607.66203 1.06630
2605.61359 1.06684
2603.56515 1.06749
2601.51671 1.06815
2599.46828 1.06876
2597.41984 1.06942
2595.37140 1.06998
2593.32296 1.07004
2591.27452 1.06960
2589.22608 1.06909
2587.17765 1.06868
2585.12921 1.06821
2583.08077 1.06759
2581.03233 1.06688
2578.98389 1.06615
2576.93545 1.06582
2574.88702 1.06610
2572.83858 1.06679
2570.79014 1.06768
2568.74170 1.06848
2566.69326 1.06905
2564.64482 1.06956
2562.59639 1.07002
2560.54795 1.07005
2558.49951 1.06989
2556.45107 1.06999
2554.40263 1.06992
2552.35419 1.06935
2550.30576 1.06852
2548.25732 1.06782
2546.20888 1.06751
2544.16044 1.06766
2542.11200 1.06817
2540.06356 1.06871
2538.01513 1.06885
2535.96669 1.06886
2533.91825 1.06921
2531.86981 1.06965
2529.82137 1.07001
2527.77293 1.07040
2525.72450 1.07084
2523.67606 1.07117
2521.62762 1.07120
2519.57918 1.07087
2517.53074 1.07056
2515.48230 1.07069
2513.43387 1.07117
2511.38543 1.07165
2509.33699 1.07200
2507.28855 1.07223
2505.24011 1.07224
2503.19167 1.07208
2501.14324 1.07195
2499.09480 1.07194
2497.04636 1.07211
2494.99792 1.07258
2492.94948 1.07325
2490.90104 1.07384
2488.85260 1.07393
2486.80417 1.07335
2484.75573 1.07264
2482.70729 1.07266
2480.65885 1.07330
2478.61041 1.07395
2476.56197 1.07446
2474.51354 1.07479
2472.46510 1.07497
2470.41666 1.07506
2468.36822 1.07508
2466.31978 1.07539
2464.27134 1.07605
2462.22291 1.07664
2460.17447 1.07693
2458.12603 1.07690
2456.07759 1.07648
2454.02915 1.07594
2451.98071 1.07575
2449.93228 1.07592
2447.88384 1.07650
2445.83540 1.07747
2443.78696 1.07881
2441.73852 1.08103
2439.69008 1.08414
2437.64165 1.08762
2435.59321 1.09164
2433.54477 1.09648
2431.49633 1.10154
2429.44789 1.10549
2427.39945 1.10670
2425.35102 1.10435
2423.30258 1.09962
2421.25414 1.09420
2419.20570 1.08915
2417.15726 1.08501
2415.10882 1.08180
2413.06039 1.07961
2411.01195 1.07816
2408.96351 1.07689
2406.91507 1.07598
2404.86663 1.07598
2402.81819 1.07651
2400.76976 1.07679
2398.72132 1.07664
2396.67288 1.07617
2394.62444 1.07574
2392.57600 1.07563
2390.52756 1.07564
2388.47913 1.07556
2386.43069 1.07517
2384.38225 1.07405
2382.33381 1.07233
2380.28537 1.07045
2378.23693 1.06876
2376.18850 1.06724
2374.14006 1.06549
2372.09162 1.06323
2370.04318 1.06049
2367.99474 1.05753
2365.94630 1.05525
2363.89787 1.05427
2361.84943 1.05420
2359.80099 1.05414
2357.75255 1.05447
2355.70411 1.05672
2353.65567 1.06091
2351.60723 1.06442
2349.55880 1.06452
2347.51036 1.06200
2345.46192 1.05956
2343.41348 1.05917
2341.36504 1.05993
2339.31660 1.06099
2337.26817 1.06197
2335.21973 1.06217
2333.17129 1.06172
2331.12285 1.06191
2329.07441 1.06277
2327.02597 1.06308
2324.97754 1.06271
2322.92910 1.06266
2320.88066 1.06391
2318.83222 1.06579
2316.78378 1.06713
2314.73534 1.06790
2312.68691 1.06848
2310.63847 1.06915
2308.59003 1.07022
2306.54159 1.07114
2304.49315 1.07131
2302.44471 1.07117
2300.39628 1.07087
2298.34784 1.07021
2296.29940 1.06943
2294.25096 1.06864
2292.20252 1.06805
2290.15408 1.06803
2288.10565 1.06862
2286.05721 1.06962
2284.00877 1.07071
2281.96033 1.07138
2279.91189 1.07160
2277.86345 1.07208
2275.81502 1.07300
2273.76658 1.07363
2271.71814 1.07354
2269.66970 1.07296
2267.62126 1.07190
2265.57282 1.07054
2263.52439 1.06967
2261.47595 1.06937
2259.42751 1.06924
2257.37907 1.06931
2255.33063 1.06969
2253.28219 1.07022
2251.23376 1.07065
2249.18532 1.07104
2247.13688 1.07165
2245.08844 1.07246
2243.04000 1.07322
2240.99156 1.07351
2238.94313 1.07330
2236.89469 1.07282
2234.84625 1.07218
2232.79781 1.07174
2230.74937 1.07162
2228.70093 1.07149
2226.65250 1.07119
2224.60406 1.07071
2222.55562 1.07015
2220.50718 1.06988
2218.45874 1.07022
2216.41030 1.07098
2214.36186 1.07170
2212.31343 1.07216
2210.26499 1.07239
2208.21655 1.07236
2206.16811 1.07207
2204.11967 1.07177
2202.07123 1.07174
2200.02280 1.07194
2197.97436 1.07198
2195.92592 1.07173
2193.87748 1.07140
2191.82904 1.07112
2189.78060 1.07084
2187.73217 1.07076
2185.68373 1.07132
2183.63529 1.07224
2181.58685 1.07287
2179.53841 1.07312
2177.48997 1.07321
2175.44154 1.07340
2173.39310 1.07349
2171.34466 1.07331
2169.29622 1.07313
2167.24778 1.07281
2165.19934 1.07216
2163.15091 1.07157
2161.10247 1.07126
2159.05403 1.07129
2157.00559 1.07176
2154.95715 1.07226
2152.90871 1.07244
2150.86028 1.07256
2148.81184 1.07277
2146.76340 1.07271
2144.71496 1.07245
2142.66652 1.07253
2140.61808 1.07295
2138.56965 1.07329
2136.52121 1.07322
2134.47277 1.07278
2132.42433 1.07236
2130.37589 1.07252
2128.32745 1.07327
2126.27902 1.07398
2124.23058 1.07419
2122.18214 1.07385
2120.13370 1.07319
2118.08526 1.07258
2116.03682 1.07230
2113.98839 1.07248
2111.93995 1.07280
2109.89151 1.07292
2107.84307 1.07298
2105.79463 1.07308
2103.74619 1.07296
2101.69776 1.07279
2099.64932 1.07279
2097.60088 1.07267
2095.55244 1.07259
2093.50400 1.07273
2091.45556 1.07274
2089.40713 1.07265
2087.35869 1.07273
2085.31025 1.07310
2083.26181 1.07388
2081.21337 1.07498
2079.16493 1.07565
2077.11649 1.07536
2075.06806 1.07444
2073.01962 1.07354
2070.97118 1.07340
2068.92274 1.07381
2066.87430 1.07376
2064.82586 1.07319
2062.77743 1.07270
2060.72899 1.07232
2058.68055 1.07200
2056.63211 1.07207
2054.58367 1.07256
2052.53523 1.07301
2050.48680 1.07324
2048.43836 1.07348
2046.38992 1.07388
2044.34148 1.07441
2042.29304 1.07479
2040.24460 1.07492
2038.19617 1.07501
2036.14773 1.07507
2034.09929 1.07507
2032.05085 1.07501
2030.00241 1.07475
2027.95397 1.07434
2025.90554 1.07407
2023.85710 1.07397
2021.80866 1.07379
2019.76022 1.07352
2017.71178 1.07341
2015.66334 1.07363
2013.61491 1.07395
2011.56647 1.07411
2009.51803 1.07393
2007.46959 1.07362
2005.42115 1.07367
2003.37271 1.07380
2001.32428 1.07355
1999.27584 1.07343
1997.22740 1.07369
1995.17896 1.07363
1993.13052 1.07349
1991.08208 1.07392
1989.03365 1.07423
1986.98521 1.07426
1984.93677 1.07440
1982.88833 1.07448
1980.83989 1.07435
1978.79145 1.07411
1976.74302 1.07390
1974.69458 1.07392
1972.64614 1.07410
1970.59770 1.07401
1968.54926 1.07392
1966.50082 1.07482
1964.45239 1.07623
1962.40395 1.07680
1960.35551 1.07645
1958.30707 1.07583
1956.25863 1.07521
1954.21019 1.07465
1952.16176 1.07413
1950.11332 1.07353
1948.06488 1.07308
1946.01644 1.07277
1943.96800 1.07274
1941.91956 1.07380
1939.87112 1.07503
1937.82269 1.07562
1935.77425 1.07624
1933.72581 1.07665
1931.67737 1.07654
1929.62893 1.07633
1927.58049 1.07595
1925.53206 1.07493
1923.48362 1.07406
1921.43518 1.07376
1919.38674 1.07314
1917.33830 1.07287
1915.28986 1.07312
1913.24143 1.07287
1911.19299 1.07252
1909.14455 1.07312
1907.09611 1.07449
1905.04767 1.07558
1902.99923 1.07650
1900.95080 1.07759
1898.90236 1.07854
1896.85392 1.07896
1894.80548 1.07872
1892.75704 1.07749
1890.70860 1.07592
1888.66017 1.07532
1886.61173 1.07512
1884.56329 1.07483
1882.51485 1.07483
1880.46641 1.07472
1878.41797 1.07449
1876.36954 1.07471
1874.32110 1.07528
1872.27266 1.07511
1870.22422 1.07456
1868.17578 1.07615
1866.12734 1.07866
1864.07891 1.07934
1862.03047 1.07888
1859.98203 1.07801
1857.93359 1.07713
1855.88515 1.07662
1853.83671 1.07635
1851.78828 1.07606
1849.73984 1.07557
1847.69140 1.07473
1845.64296 1.07409
1843.59452 1.07587
1841.54608 1.07811
1839.49765 1.07832
1837.44921 1.07823
1835.40077 1.07841
1833.35233 1.07761
1831.30389 1.07640
1829.25545 1.07659
1827.20702 1.07678
1825.15858 1.07650
1823.11014 1.07690
1821.06170 1.07710
1819.01326 1.07724
1816.96482 1.07789
1814.91639 1.07833
1812.86795 1.07821
1810.81951 1.07860
1808.77107 1.07949
1806.72263 1.07975
1804.67419 1.07931
1802.62575 1.07874
1800.57732 1.07898
1798.52888 1.07954
1796.48044 1.07897
1794.43200 1.07764
1792.38356 1.07810
1790.33512 1.08061
1788.28669 1.08120
1786.23825 1.08022
1784.18981 1.07986
1782.14137 1.08004
1780.09293 1.08019
1778.04449 1.07976
1775.99606 1.07792
1773.94762 1.07567
1771.89918 1.07612
1769.85074 1.07883
1767.80230 1.08074
1765.75386 1.08094
1763.70543 1.07981
1761.65699 1.08031
1759.60855 1.08232
1757.56011 1.08386
1755.51167 1.08531
1753.46323 1.08500
1751.41480 1.08339
1749.36636 1.08381
1747.31792 1.08561
1745.26948 1.08600
1743.22104 1.08558
1741.17260 1.08561
1739.12417 1.08611
1737.07573 1.08516
1735.02729 1.08345
1732.97885 1.08508
1730.93041 1.08756
1728.88197 1.08908
1726.83354 1.09052
1724.78510 1.09184
1722.73666 1.09274
1720.68822 1.09179
1718.63978 1.08984
1716.59134 1.09092
1714.54291 1.09361
1712.49447 1.09403
1710.44603 1.09258
1708.39759 1.08987
1706.34915 1.08760
1704.30071 1.08679
1702.25228 1.08553
1700.20384 1.08513
1698.15540 1.08746
1696.10696 1.09119
1694.05852 1.09462
1692.01008 1.09515
1689.96165 1.09477
1687.91321 1.09381
1685.86477 1.09146
1683.81633 1.09190
1681.76789 1.09456
1679.71945 1.09450
1677.67102 1.09302
1675.62258 1.09227
1673.57414 1.09250
1671.52570 1.09201
1669.47726 1.09337
1667.42882 1.09588
1665.38038 1.09585
1663.33195 1.09573
1661.28351 1.09740
1659.23507 1.09834
1657.18663 1.09696
1655.13819 1.09366
1653.08975 1.09410
1651.04132 1.09734
1648.99288 1.09573
1646.94444 1.09523
1644.89600 1.09797
1642.84756 1.09873
1640.79912 1.09812
1638.75069 1.09695
1636.70225 1.09685
1634.65381 1.10057
1632.60537 1.10246
1630.55693 1.10164
1628.50849 1.10084
1626.46006 1.10058
1624.41162 1.10007
1622.36318 1.09962
1620.31474 1.09815
1618.26630 1.09644
1616.21786 1.09797
1614.16943 1.09998
1612.12099 1.09969
1610.07255 1.09931
1608.02411 1.09983
1605.97567 1.10056
1603.92723 1.10102
1601.87880 1.10121
1599.83036 1.10098
1597.78192 1.10005
1595.73348 1.09852
1593.68504 1.09684
1591.63660 1.09524
1589.58817 1.09378
1587.53973 1.09265
1585.49129 1.09212
1583.44285 1.09237
1581.39441 1.09282
1579.34597 1.09226
1577.29754 1.09170
1575.24910 1.09367
1573.20066 1.09447
1571.15222 1.09388
1569.10378 1.09501
1567.05534 1.09583
1565.00691 1.09455
1562.95847 1.09178
1560.91003 1.08737
1558.86159 1.08519
1556.81315 1.08826
1554.76471 1.08882
1552.71628 1.08850
1550.66784 1.08843
1548.61940 1.08834
1546.57096 1.08691
1544.52252 1.08461
1542.47408 1.08286
1540.42565 1.08525
1538.37721 1.09049
1536.32877 1.09042
1534.28033 1.08871
1532.23189 1.08834
1530.18345 1.08722
1528.13501 1.08530
1526.08658 1.08443
1524.03814 1.08347
1521.98970 1.08341
1519.94126 1.08575
1517.89282 1.08715
1515.84438 1.08835
1513.79595 1.08897
1511.74751 1.08796
1509.69907 1.08528
1507.65063 1.08360
1505.60219 1.08818
1503.55375 1.08929
1501.50532 1.08709
1499.45688 1.08493
1497.40844 1.08473
1495.36000 1.08576
1493.31156 1.08522
1491.26312 1.08401
1489.21469 1.08548
1487.16625 1.08894
1485.11781 1.09076
1483.06937 1.09161
1481.02093 1.09255
1478.97249 1.09277
1476.92406 1.09184
1474.87562 1.09095
1472.82718 1.09226
1470.77874 1.09472
1468.73030 1.09483
1466.68186 1.09380
1464.63343 1.09365
1462.58499 1.09340
1460.53655 1.09164
1458.48811 1.09036
1456.43967 1.09389
1454.39123 1.09705
1452.34280 1.09764
1450.29436 1.09812
1448.24592 1.09939
1446.19748 1.10059
1444.14904 1.10030
1442.10060 1.09889
1440.05217 1.09700
1438.00373 1.09568
1435.95529 1.09630
1433.90685 1.09629
1431.85841 1.09484
1429.80997 1.09401
1427.76154 1.09375
1425.71310 1.09321
1423.66466 1.09303
1421.61622 1.09275
1419.56778 1.09288
1417.51934 1.09505
1415.47091 1.09655
1413.42247 1.09682
1411.37403 1.09724
1409.32559 1.09770
1407.27715 1.09745
1405.22871 1.09712
1403.18028 1.09699
1401.13184 1.09619
1399.08340 1.09509
1397.03496 1.09440
1394.98652 1.09459
1392.93808 1.09500
1390.88965 1.09390
1388.84121 1.09187
1386.79277 1.09098
1384.74433 1.09107
1382.69589 1.09106
1380.64745 1.09150
1378.59901 1.09222
1376.55058 1.09227
1374.50214 1.09258
1372.45370 1.09356
1370.40526 1.09372
1368.35682 1.09368
1366.30838 1.09390
1364.25995 1.09359
1362.21151 1.09314
1360.16307 1.09245
1358.11463 1.09082
1356.06619 1.08883
1354.01775 1.08724
1351.96932 1.08642
1349.92088 1.08670
1347.87244 1.08801
1345.82400 1.08943
1343.77556 1.09020
1341.72712 1.09060
1339.67869 1.09121
1337.63025 1.09185
1335.58181 1.09195
1333.53337 1.09184
1331.48493 1.09194
1329.43649 1.09216
1327.38806 1.09170
1325.33962 1.08983
1323.29118 1.08745
1321.24274 1.08621
1319.19430 1.08664
1317.14586 1.08805
1315.09743 1.08974
1313.04899 1.09154
1311.00055 1.09284
1308.95211 1.09315
1306.90367 1.09282
1304.85523 1.09226
1302.80680 1.09185
1300.75836 1.09168
1298.70992 1.09134
1296.66148 1.09079
1294.61304 1.09006
1292.56460 1.08937
1290.51617 1.08979
1288.46773 1.09166
1286.41929 1.09373
1284.37085 1.09511
1282.32241 1.09612
1280.27397 1.09738
1278.22554 1.09906
1276.17710 1.10084
1274.12866 1.10239
1272.08022 1.10402
1270.03178 1.10686
1267.98334 1.11080
1265.93491 1.11393
1263.88647 1.11472
1261.83803 1.11299
1259.78959 1.10970
1257.74115 1.10633
1255.69271 1.10345
1253.64428 1.10140
1251.59584 1.10086
1249.54740 1.10122
1247.49896 1.10166
1245.45052 1.10185
1243.40208 1.10105
1241.35364 1.09924
1239.30521 1.09686
1237.25677 1.09409
1235.20833 1.09179
1233.15989 1.09107
1231.11145 1.09215
1229.06301 1.09410
1227.01458 1.09555
1224.96614 1.09610
1222.91770 1.09661
1220.86926 1.09780
1218.82082 1.09934
1216.77238 1.10038
1214.72395 1.10057
1212.67551 1.10025
1210.62707 1.09931
1208.57863 1.09735
1206.53019 1.09515
1204.48175 1.09369
1202.43332 1.09284
1200.38488 1.09258
1198.33644 1.09314
1196.28800 1.09442
1194.23956 1.09598
1192.19112 1.09740
1190.14269 1.09855
1188.09425 1.09951
1186.04581 1.10062
1183.99737 1.10183
1181.94893 1.10247
1179.90049 1.10220
1177.85206 1.10098
1175.80362 1.09887
1173.75518 1.09699
1171.70674 1.09630
1169.65830 1.09691
1167.60986 1.09873
1165.56143 1.10083
1163.51299 1.10255
1161.46455 1.10420
1159.41611 1.10596
1157.36767 1.10769
1155.31923 1.10901
1153.27080 1.10925
1151.22236 1.10831
1149.17392 1.10688
1147.12548 1.10537
1145.07704 1.10380
1143.02860 1.10243
1140.98017 1.10188
1138.93173 1.10235
1136.88329 1.10354
1134.83485 1.10544
1132.78641 1.10766
1130.73797 1.10950
1128.68954 1.11131
1126.64110 1.11335
1124.59266 1.11556
1122.54422 1.11822
1120.49578 1.12053
1118.44734 1.12184
1116.39891 1.12260
1114.35047 1.12288
1112.30203 1.12301
1110.25359 1.12330
1108.20515 1.12317
1106.15671 1.12270
1104.10827 1.12280
1102.05984 1.12327
1100.01140 1.12351
1097.96296 1.12348
1095.91452 1.12287
1093.86608 1.12146
1091.81764 1.11984
1089.76921 1.11824
1087.72077 1.11668
1085.67233 1.11552
1083.62389 1.11450
1081.57545 1.11364
1079.52701 1.11317
1077.47858 1.11291
1075.43014 1.11310
1073.38170 1.11370
1071.33326 1.11422
1069.28482 1.11477
1067.23638 1.11524
1065.18795 1.11537
1063.13951 1.11569
1061.09107 1.11656
1059.04263 1.11765
1056.99419 1.11849
1054.94575 1.11883
1052.89732 1.11870
1050.84888 1.11838
1048.80044 1.11836
1046.75200 1.11882
1044.70356 1.11916
1042.65512 1.11906
1040.60669 1.11869
1038.55825 1.11844
1036.50981 1.11862
1034.46137 1.11862
1032.41293 1.11779
1030.36449 1.11619
1028.31606 1.11442
1026.26762 1.11332
1024.21918 1.11238
1022.17074 1.11102
1020.12230 1.10985
1018.07386 1.10930
1016.02543 1.10944
1013.97699 1.10995
1011.92855 1.11007
1009.88011 1.10966
1007.83167 1.10879
1005.78323 1.10773
1003.73480 1.10733
1001.68636 1.10767
999.63792 1.10817
997.58948 1.10855
995.54104 1.10822
993.49260 1.10690
991.44417 1.10496
989.39573 1.10292
987.34729 1.10111
985.29885 1.09926
983.25041 1.09732
981.20197 1.09516
979.15354 1.09288
977.10510 1.09156
975.05666 1.09143
973.00822 1.09159
970.95978 1.09215
968.91134 1.09346
966.86290 1.09448
964.81447 1.09470
962.76603 1.09502
960.71759 1.09624
958.66915 1.09854
956.62071 1.10100
954.57227 1.10191
952.52384 1.10110
950.47540 1.09989
948.42696 1.09959
946.37852 1.10068
944.33008 1.10202
942.28164 1.10258
940.23321 1.10254
938.18477 1.10267
936.13633 1.10354
934.08789 1.10427
932.03945 1.10427
929.99101 1.10426
927.94258 1.10487
925.89414 1.10606
923.84570 1.10725
921.79726 1.10792
919.74882 1.10814
917.70038 1.10841
915.65195 1.10922
913.60351 1.11084
911.55507 1.11312
909.50663 1.11578
907.45819 1.11790
905.40975 1.11844
903.36132 1.11810
901.31288 1.11788
899.26444 1.11760
897.21600 1.11767
895.16756 1.11868
893.11912 1.11959
891.07069 1.11984
889.02225 1.12064
886.97381 1.12245
884.92537 1.12435
882.87693 1.12608
880.82849 1.12791
878.78006 1.12962
876.73162 1.13137
874.68318 1.13293
872.63474 1.13310
870.58630 1.13230
868.53786 1.13196
866.48943 1.13200
864.44099 1.13238
862.39255 1.13343
860.34411 1.13441
858.29567 1.13480
856.24723 1.13515
854.19880 1.13583
852.15036 1.13736
850.10192 1.14063
848.05348 1.14495
846.00504 1.14817
843.95660 1.14964
841.90817 1.15079
839.85973 1.15247
837.81129 1.15341
835.76285 1.15268
833.71441 1.15161
831.66597 1.15116
829.61753 1.15156
827.56910 1.15445
825.52066 1.15894
823.47222 1.16166
821.42378 1.16278
819.37534 1.16424
817.32690 1.16616
815.27847 1.16791
813.23003 1.16913
811.18159 1.17016
809.13315 1.17143
807.08471 1.17293
805.03627 1.17461
802.98784 1.17595
800.93940 1.17696
798.89096 1.17844
796.84252 1.18144
794.79408 1.18674
792.74564 1.19272
790.69721 1.19679
788.64877 1.19848
786.60033 1.19911
784.55189 1.20113
782.50345 1.20579
780.45501 1.21095
778.40658 1.21390
776.35814 1.21540
774.30970 1.21764
772.26126 1.22005
770.21282 1.22219
768.16438 1.22540
766.11595 1.22866
764.06751 1.23019
762.01907 1.23095
759.97063 1.23229
757.92219 1.23414
755.87375 1.23583
753.82532 1.23680
751.77688 1.23643
749.72844 1.23336
747.68000 1.22905
745.63156 1.22811
743.58312 1.23111
741.53469 1.23426
739.48625 1.23672
737.43781 1.23941
735.38937 1.24135
733.34093 1.24254
731.29249 1.24398
729.24406 1.24567
727.19562 1.24604
725.14718 1.24485
723.09874 1.24402
721.05030 1.24362
719.00186 1.24301
716.95343 1.24342
714.90499 1.24538
712.85655 1.24756
710.80811 1.24954
708.75967 1.25141
706.71123 1.25242
704.66280 1.25183
702.61436 1.25104
700.56592 1.25195
698.51748 1.25279
696.46904 1.25200
694.42060 1.25101
692.37216 1.25124
690.32373 1.25121
688.27529 1.24838
686.22685 1.24423
684.17841 1.24172
682.12997 1.24166
680.08153 1.24305
678.03310 1.24642
675.98466 1.25144
673.93622 1.25446
671.88778 1.25593
669.83934 1.25626
667.79090 1.25018
665.74247 1.24592
663.69403 1.24805
661.64559 1.25179
659.59715 1.25545
657.54871 1.25836
655.50027 1.25966
653.45184 1.25947
651.40340 1.25683
649.35496 1.25300
647.30652 1.25416
645.25808 1.25962
643.20964 1.26099
641.16121 1.25815
639.11277 1.25474
637.06433 1.25044
635.01589 1.24751
632.96745 1.24797
630.91901 1.25101
628.87058 1.25101
626.82214 1.24433
624.77370 1.24192
622.72526 1.24976
620.67682 1.25669
618.62838 1.25552
616.57995 1.24851
614.53151 1.24276
612.48307 1.24430
610.43463 1.24689
608.38619 1.24634
606.33775 1.24743
604.28932 1.24684
602.24088 1.24355
600.19244 1.24149
598.14400 1.24155
