3996.50324 1.47556
3994.45480 1.47621
3992.40636 1.47656
3990.35792 1.47680
3988.30948 1.47690
3986.26104 1.47659
3984.21261 1.47644
3982.16417 1.47638
3980.11573 1.47598
3978.06729 1.47593
3976.01885 1.47644
3973.97041 1.47657
3971.92198 1.47633
3969.87354 1.47642
3967.82510 1.47669
3965.77666 1.47629
3963.72822 1.47498
3961.67978 1.47436
3959.63135 1.47487
3957.58291 1.47555
3955.53447 1.47645
3953.48603 1.47608
3951.43759 1.47361
3949.38915 1.47272
3947.34072 1.47480
3945.29228 1.47471
3943.24384 1.47443
3941.19540 1.47758
3939.14696 1.47801
3937.09852 1.47490
3935.05009 1.47157
3933.00165 1.47015
3930.95321 1.47320
3928.90477 1.47570
3926.85633 1.47304
3924.80789 1.47125
3922.75946 1.47306
3920.71102 1.47256
3918.66258 1.47153
3916.61414 1.47474
3914.56570 1.47766
3912.51726 1.47691
3910.46883 1.47544
3908.42039 1.47187
3906.37195 1.46435
3904.32351 1.46073
3902.27507 1.46717
3900.22663 1.47616
3898.17820 1.48159
3896.12976 1.47934
3894.08132 1.47098
3892.03288 1.46813
3889.98444 1.47372
3887.93600 1.47222
3885.88756 1.46814
3883.83913 1.46932
3881.79069 1.46919
3879.74225 1.47389
3877.69381 1.47624
3875.64537 1.46974
3873.59693 1.46580
3871.54850 1.46690
3869.50006 1.47323
3867.45162 1.47685
3865.40318 1.47334
3863.35474 1.47563
3861.30630 1.48015
3859.25787 1.47738
3857.20943 1.46812
3855.16099 1.45704
3853.11255 1.46723
3851.06411 1.48700
3849.01567 1.48601
3846.96724 1.47720
3844.91880 1.46987
3842.87036 1.46714
3840.82192 1.46559
3838.77348 1.46743
3836.72504 1.47684
3834.67661 1.48104
3832.62817 1.48038
3830.57973 1.48052
3828.53129 1.47898
3826.48285 1.47761
3824.43441 1.47415
3822.38598 1.46793
3820.33754 1.47349
3818.28910 1.47896
3816.24066 1.48115
3814.19222 1.48816
3812.14378 1.48627
3810.09535 1.47756
3808.04691 1.47286
3805.99847 1.47684
3803.95003 1.47625
3801.90159 1.47621
3799.85315 1.48584
3797.80472 1.48789
3795.75628 1.48794
3793.70784 1.48841
3791.65940 1.48508
3789.61096 1.48220
3787.56252 1.48087
3785.51409 1.48114
3783.46565 1.48195
3781.41721 1.47965
3779.36877 1.48009
3777.32033 1.48430
3775.27189 1.48363
3773.22346 1.47869
3771.17502 1.47519
3769.12658 1.47788
3767.07814 1.48066
3765.02970 1.48168
3762.98126 1.48106
3760.93283 1.47670
3758.88439 1.47726
3756.83595 1.48096
3754.78751 1.47539
3752.73907 1.46430
3750.69063 1.46661
3748.64219 1.47766
3746.59376 1.47610
3744.54532 1.48059
3742.49688 1.49160
3740.44844 1.48658
3738.40000 1.47390
3736.35156 1.46802
3734.30313 1.47744
3732.25469 1.48910
3730.20625 1.48980
3728.15781 1.48304
3726.10937 1.47850
3724.06093 1.48066
3722.01250 1.48412
3719.96406 1.48616
3717.91562 1.48629
3715.86718 1.48214
3713.81874 1.47362
3711.77030 1.47278
3709.72187 1.48576
3707.67343 1.49093
3705.62499 1.48643
3703.57655 1.48153
3701.52811 1.48404
3699.47967 1.48814
3697.43124 1.48696
3695.38280 1.48412
3693.33436 1.47941
3691.28592 1.47470
3689.23748 1.48189
3687.18904 1.49421
3685.14061 1.49511
3683.09217 1.48998
3681.04373 1.48503
3678.99529 1.47957
3676.94685 1.47484
3674.89841 1.48449
3672.84998 1.49130
3670.80154 1.48917
3668.75310 1.49768
3666.70466 1.50389
3664.65622 1.50169
3662.60778 1.49902
3660.55935 1.49693
3658.51091 1.49449
3656.46247 1.49651
3654.41403 1.49909
3652.36559 1.49157
3650.31715 1.48499
3648.26872 1.50145
3646.22028 1.51601
3644.17184 1.51481
3642.12340 1.51002
3640.07496 1.50856
3638.02652 1.50999
3635.97809 1.51125
3633.92965 1.51092
3631.88121 1.50650
3629.83277 1.50316
3627.78433 1.51444
3625.73589 1.52252
3623.68746 1.52035
3621.63902 1.51493
3619.59058 1.51326
3617.54214 1.51890
3615.49370 1.52129
3613.44526 1.52159
3611.39682 1.52331
3609.34839 1.52429
3607.29995 1.52771
3605.25151 1.53040
3603.20307 1.52875
3601.15463 1.52777
3599.10619 1.52981
3597.05776 1.53094
3595.00932 1.53263
3592.96088 1.53619
3590.91244 1.53516
3588.86400 1.53151
3586.81556 1.53636
3584.76713 1.54370
3582.71869 1.54471
3580.67025 1.54367
3578.62181 1.54345
3576.57337 1.54471
3574.52493 1.54732
3572.47650 1.54801
3570.42806 1.54322
3568.37962 1.53710
3566.33118 1.54016
3564.28274 1.54695
3562.23430 1.54911
3560.18587 1.54949
3558.13743 1.54913
3556.08899 1.54844
3554.04055 1.54934
3551.99211 1.55282
3549.94367 1.55518
3547.89524 1.55411
3545.84680 1.55392
3543.79836 1.55679
3541.74992 1.55882
3539.70148 1.55849
3537.65304 1.55813
3535.60461 1.55923
3533.55617 1.56002
3531.50773 1.55954
3529.45929 1.55850
3527.41085 1.55770
3525.36241 1.55806
3523.31398 1.56030
3521.26554 1.56304
3519.21710 1.56451
3517.16866 1.56545
3515.12022 1.56635
3513.07178 1.56656
3511.02335 1.56634
3508.97491 1.56712
3506.92647 1.56840
3504.87803 1.56858
3502.82959 1.56907
3500.78115 1.57015
3498.73272 1.57021
3496.68428 1.57020
3494.63584 1.57065
3492.58740 1.57126
3490.53896 1.57205
3488.49052 1.57222
3486.44209 1.57196
3484.39365 1.57151
3482.34521 1.57151
3480.29677 1.57255
3478.24833 1.57327
3476.19989 1.57377
3474.15146 1.57487
3472.10302 1.57564
3470.05458 1.57501
3468.00614 1.57400
3465.95770 1.57408
3463.90926 1.57549
3461.86082 1.57762
3459.81239 1.57865
3457.76395 1.57887
3455.71551 1.57990
3453.66707 1.58003
3451.61863 1.57850
3449.57019 1.57691
3447.52176 1.57631
3445.47332 1.57688
3443.42488 1.57728
3441.37644 1.57768
3439.32800 1.57868
3437.27956 1.57912
3435.23113 1.57880
3433.18269 1.57846
3431.13425 1.57863
3429.08581 1.57880
3427.03737 1.57865
3424.98893 1.57869
3422.94050 1.57918
3420.89206 1.57961
3418.84362 1.57933
3416.79518 1.57932
3414.74674 1.58028
3412.69830 1.58094
3410.64987 1.58097
3408.60143 1.58116
3406.55299 1.58138
3404.50455 1.58151
3402.45611 1.58111
3400.40767 1.57991
3398.35924 1.57933
3396.31080 1.58006
3394.26236 1.58135
3392.21392 1.58300
3390.16548 1.58418
3388.11704 1.58386
3386.06861 1.58293
3384.02017 1.58271
3381.97173 1.58308
3379.92329 1.58344
3377.87485 1.58345
3375.82641 1.58246
3373.77798 1.58130
3371.72954 1.58129
3369.68110 1.58146
3367.63266 1.58121
3365.58422 1.58156
3363.53578 1.58197
3361.48735 1.58136
3359.43891 1.57969
3357.39047 1.57792
3355.34203 1.57788
3353.29359 1.57913
3351.24515 1.57997
3349.19672 1.58011
3347.14828 1.57968
3345.09984 1.57919
3343.05140 1.57934
3341.00296 1.57976
3338.95452 1.57978
3336.90609 1.57958
3334.85765 1.57919
3332.80921 1.57859
3330.76077 1.57816
3328.71233 1.57822
3326.66389 1.57861
3324.61545 1.57853
3322.56702 1.57773
3320.51858 1.57732
3318.47014 1.57736
3316.42170 1.57657
3314.37326 1.57541
3312.32482 1.57475
3310.27639 1.57434
3308.22795 1.57403
3306.17951 1.57362
3304.13107 1.57322
3302.08263 1.57293
3300.03419 1.57253
3297.98576 1.57302
3295.93732 1.57431
3293.88888 1.57480
3291.84044 1.57448
3289.79200 1.57414
3287.74356 1.57412
3285.69513 1.57409
3283.64669 1.57361
3281.59825 1.57323
3279.54981 1.57330
3277.50137 1.57309
3275.45293 1.57210
3273.40450 1.57139
3271.35606 1.57160
3269.30762 1.57218
3267.25918 1.57265
3265.21074 1.57280
3263.16230 1.57280
3261.11387 1.57286
3259.06543 1.57303
3257.01699 1.57286
3254.96855 1.57250
3252.92011 1.57262
3250.87167 1.57272
3248.82324 1.57245
3246.77480 1.57198
3244.72636 1.57155
3242.67792 1.57156
3240.62948 1.57175
3238.58104 1.57191
3236.53261 1.57209
3234.48417 1.57196
3232.43573 1.57157
3230.38729 1.57097
3228.33885 1.57056
3226.29041 1.57154
3224.24198 1.57327
3222.19354 1.57422
3220.14510 1.57385
3218.09666 1.57251
3216.04822 1.57148
3213.99978 1.57100
3211.95135 1.57065
3209.90291 1.57093
3207.85447 1.57127
3205.80603 1.57099
3203.75759 1.57072
3201.70915 1.57048
3199.66072 1.57010
3197.61228 1.56990
3195.56384 1.56981
3193.51540 1.56956
3191.46696 1.56931
3189.41852 1.56832
3187.37008 1.56622
3185.32165 1.56474
3183.27321 1.56478
3181.22477 1.56499
3179.17633 1.56407
3177.12789 1.56292
3175.07945 1.56278
3173.03102 1.56286
3170.98258 1.56238
3168.93414 1.56202
3166.88570 1.56202
3164.83726 1.56167
3162.78882 1.56102
3160.74039 1.56031
3158.69195 1.55933
3156.64351 1.55874
3154.59507 1.55866
3152.54663 1.55807
3150.49819 1.55682
3148.44976 1.55593
3146.40132 1.55575
3144.35288 1.55469
3142.30444 1.55251
3140.25600 1.55126
3138.20756 1.55069
3136.15913 1.54936
3134.11069 1.54799
3132.06225 1.54719
3130.01381 1.54611
3127.96537 1.54477
3125.91693 1.54357
3123.86850 1.54249
3121.82006 1.54208
3119.77162 1.54214
3117.72318 1.54153
3115.67474 1.54071
3113.62630 1.54060
3111.57787 1.54019
3109.52943 1.53893
3107.48099 1.53783
3105.43255 1.53726
3103.38411 1.53703
3101.33567 1.53700
3099.28724 1.53701
3097.23880 1.53667
3095.19036 1.53662
3093.14192 1.53779
3091.09348 1.53860
3089.04504 1.53761
3086.99661 1.53630
3084.94817 1.53564
3082.89973 1.53483
3080.85129 1.53426
3078.80285 1.53467
3076.75441 1.53510
3074.70598 1.53512
3072.65754 1.53521
3070.60910 1.53535
3068.56066 1.53527
3066.51222 1.53460
3064.46378 1.53338
3062.41535 1.53233
3060.36691 1.53172
3058.31847 1.53136
3056.27003 1.53137
3054.22159 1.53162
3052.17315 1.53150
3050.12471 1.53101
3048.07628 1.53098
3046.02784 1.53126
3043.97940 1.53088
3041.93096 1.52981
3039.88252 1.52859
3037.83408 1.52773
3035.78565 1.52802
3033.73721 1.52940
3031.68877 1.53053
3029.64033 1.53066
3027.59189 1.52989
3025.54345 1.52929
3023.49502 1.52993
3021.44658 1.53090
3019.39814 1.53127
3017.34970 1.53133
3015.30126 1.53139
3013.25282 1.53184
3011.20439 1.53291
3009.15595 1.53397
3007.10751 1.53430
3005.05907 1.53406
3003.01063 1.53398
3000.96219 1.53418
2998.91376 1.53447
2996.86532 1.53472
2994.81688 1.53521
2992.76844 1.53657
2990.72000 1.53809
2988.67156 1.53897
2986.62313 1.53976
2984.57469 1.54132
2982.52625 1.54398
2980.47781 1.54684
2978.42937 1.54976
2976.38093 1.55269
2974.33250 1.55538
2972.28406 1.55928
2970.23562 1.56470
2968.18718 1.57002
2966.13874 1.57425
2964.09030 1.57742
2962.04187 1.58050
2959.99343 1.58416
2957.94499 1.58722
2955.89655 1.58817
2953.84811 1.58771
2951.79967 1.58757
2949.75124 1.58812
2947.70280 1.58889
2945.65436 1.58975
2943.60592 1.59085
2941.55748 1.59273
2939.50904 1.59563
2937.46061 1.59920
2935.41217 1.60303
2933.36373 1.60646
2931.31529 1.60920
2929.26685 1.61146
2927.21841 1.61376
2925.16998 1.61667
2923.12154 1.61897
2921.07310 1.61883
2919.02466 1.61597
2916.97622 1.61152
2914.92778 1.60715
2912.87934 1.60361
2910.83091 1.60019
2908.78247 1.59688
2906.73403 1.59452
2904.68559 1.59278
2902.63715 1.59097
2900.58871 1.58885
2898.54028 1.58673
2896.49184 1.58529
2894.44340 1.58446
2892.39496 1.58340
2890.34652 1.58168
2888.29808 1.57983
2886.24965 1.57796
2884.20121 1.57618
2882.15277 1.57531
2880.10433 1.57569
2878.05589 1.57701
2876.00745 1.57818
2873.95902 1.57832
2871.91058 1.57842
2869.86214 1.57930
2867.81370 1.58014
2865.76526 1.58118
2863.71682 1.58321
2861.66839 1.58562
2859.61995 1.58823
2857.57151 1.59106
2855.52307 1.59343
2853.47463 1.59483
2851.42619 1.59470
2849.37776 1.59215
2847.32932 1.58668
2845.28088 1.57907
2843.23244 1.57145
2841.18400 1.56546
2839.13556 1.56089
2837.08713 1.55664
2835.03869 1.55234
2832.99025 1.54854
2830.94181 1.54519
2828.89337 1.54195
2826.84493 1.53906
2824.79650 1.53605
2822.74806 1.53273
2820.69962 1.52985
2818.65118 1.52745
2816.60274 1.52511
2814.55430 1.52348
2812.50587 1.52327
2810.45743 1.52324
2808.40899 1.52201
2806.36055 1.51987
2804.31211 1.51796
2802.26367 1.51708
2800.21524 1.51705
2798.16680 1.51705
2796.11836 1.51621
2794.06992 1.51454
2792.02148 1.51311
2789.97304 1.51219
2787.92461 1.51116
2785.87617 1.50991
2783.82773 1.50876
2781.77929 1.50801
2779.73085 1.50754
2777.68241 1.50669
2775.63397 1.50539
2773.58554 1.50491
2771.53710 1.50552
2769.48866 1.50577
2767.44022 1.50526
2765.39178 1.50406
2763.34334 1.50254
2761.29491 1.50205
2759.24647 1.50259
2757.19803 1.50332
2755.14959 1.50364
2753.10115 1.50297
2751.05271 1.50200
2749.00428 1.50137
2746.95584 1.50103
2744.90740 1.50096
2742.85896 1.50064
2740.81052 1.49986
2738.76208 1.49941
2736.71365 1.49976
2734.66521 1.50002
2732.61677 1.49952
2730.56833 1.49896
2728.51989 1.49878
2726.47145 1.49879
2724.42302 1.49893
2722.37458 1.49908
2720.32614 1.49855
2718.27770 1.49770
2716.22926 1.49801
2714.18082 1.49862
2712.13239 1.49773
2710.08395 1.49631
2708.03551 1.49578
2705.98707 1.49582
2703.93863 1.49574
2701.89019 1.49557
2699.84176 1.49543
2697.79332 1.49515
2695.74488 1.49471
2693.69644 1.49453
2691.64800 1.49473
2689.59956 1.49503
2687.55113 1.49556
2685.50269 1.49603
2683.45425 1.49579
2681.40581 1.49502
2679.35737 1.49433
2677.30893 1.49443
2675.26050 1.49542
2673.21206 1.49630
2671.16362 1.49662
2669.11518 1.49677
2667.06674 1.49688
2665.01830 1.49732
2662.96987 1.49799
2660.92143 1.49829
2658.87299 1.49841
2656.82455 1.49891
2654.77611 1.49939
2652.72767 1.49923
2650.67924 1.49897
2648.63080 1.49913
2646.58236 1.49992
2644.53392 1.50085
2642.48548 1.50066
2640.43704 1.49972
2638.38860 1.49943
2636.34017 1.49982
2634.29173 1.50039
2632.24329 1.50094
2630.19485 1.50114
2628.14641 1.50092
2626.09797 1.50047
2624.04954 1.50014
2622.00110 1.50006
2619.95266 1.50002
2617.90422 1.49986
2615.85578 1.49967
2613.80734 1.49968
2611.75891 1.49992
2609.71047 1.50046
2607.66203 1.50095
2605.61359 1.50125
2603.56515 1.50169
2601.51671 1.50179
2599.46828 1.50106
2597.41984 1.50014
2595.37140 1.49971
2593.32296 1.49958
2591.27452 1.49966
2589.22608 1.49991
2587.17765 1.50001
2585.12921 1.50011
2583.08077 1.50036
2581.03233 1.50054
2578.98389 1.50080
2576.93545 1.50130
2574.88702 1.50180
2572.83858 1.50206
2570.79014 1.50216
2568.74170 1.50265
2566.69326 1.50355
2564.64482 1.50386
2562.59639 1.50352
2560.54795 1.50328
2558.49951 1.50351
2556.45107 1.50413
2554.40263 1.50453
2552.35419 1.50473
2550.30576 1.50524
2548.25732 1.50548
2546.20888 1.50494
2544.16044 1.50403
2542.11200 1.50325
2540.06356 1.50306
2538.01513 1.50319
2535.96669 1.50285
2533.91825 1.50232
2531.86981 1.50232
2529.82137 1.50263
2527.77293 1.50286
2525.72450 1.50309
2523.67606 1.50311
2521.62762 1.50278
2519.57918 1.50280
2517.53074 1.50397
2515.48230 1.50547
2513.43387 1.50618
2511.38543 1.50675
2509.33699 1.50768
2507.28855 1.50828
2505.24011 1.50852
2503.19167 1.50876
2501.14324 1.50880
2499.09480 1.50839
2497.04636 1.50818
2494.99792 1.50890
2492.94948 1.50981
2490.90104 1.51008
2488.85260 1.50982
2486.80417 1.50942
2484.75573 1.50930
2482.70729 1.50942
2480.65885 1.50952
2478.61041 1.50942
2476.56197 1.50927
2474.51354 1.50945
2472.46510 1.51020
2470.41666 1.51082
2468.36822 1.51082
2466.31978 1.51041
2464.27134 1.50992
2462.22291 1.51005
2460.17447 1.51089
2458.12603 1.51167
2456.07759 1.51202
2454.02915 1.51220
2451.98071 1.51262
2449.93228 1.51352
2447.88384 1.51510
2445.83540 1.51719
2443.78696 1.51960
2441.73852 1.52315
2439.69008 1.52867
2437.64165 1.53589
2435.59321 1.54442
2433.54477 1.55478
2431.49633 1.56723
2429.44789 1.57861
2427.39945 1.58280
2425.35102 1.57676
2423.30258 1.56351
2421.25414 1.54851
2419.20570 1.53562
2417.15726 1.52608
2415.10882 1.51937
2413.06039 1.51437
2411.01195 1.51057
2408.96351 1.50780
2406.91507 1.50597
2404.86663 1.50519
2402.81819 1.50486
2400.76976 1.50443
2398.72132 1.50427
2396.67288 1.50424
2394.62444 1.50392
2392.57600 1.50371
2390.52756 1.50393
2388.47913 1.50339
2386.43069 1.50113
2384.38225 1.49803
2382.33381 1.49551
2380.28537 1.49409
2378.23693 1.49272
2376.18850 1.49038
2374.14006 1.48788
2372.09162 1.48638
2370.04318 1.48595
2367.99474 1.48455
2365.94630 1.48220
2363.89787 1.48457
2361.84943 1.48961
2359.80099 1.49024
2357.75255 1.49015
2355.70411 1.49378
2353.65567 1.49904
2351.60723 1.50240
2349.55880 1.50105
2347.51036 1.49664
2345.46192 1.49470
2343.41348 1.49855
2341.36504 1.50350
2339.31660 1.50673
2337.26817 1.50808
2335.21973 1.50815
2333.17129 1.50705
2331.12285 1.50464
2329.07441 1.50179
2327.02597 1.49924
2324.97754 1.49706
2322.92910 1.49554
2320.88066 1.49560
2318.83222 1.49558
2316.78378 1.49394
2314.73534 1.49247
2312.68691 1.49282
2310.63847 1.49376
2308.59003 1.49328
2306.54159 1.49215
2304.49315 1.49185
2302.44471 1.49256
2300.39628 1.49360
2298.34784 1.49434
2296.29940 1.49436
2294.25096 1.49351
2292.20252 1.49282
2290.15408 1.49343
2288.10565 1.49517
2286.05721 1.49636
2284.00877 1.49557
2281.96033 1.49404
2279.91189 1.49396
2277.86345 1.49528
2275.81502 1.49685
2273.76658 1.49801
2271.71814 1.49844
2269.66970 1.49856
2267.62126 1.49917
2265.57282 1.50047
2263.52439 1.50127
2261.47595 1.50064
2259.42751 1.49958
2257.37907 1.49928
2255.33063 1.49993
2253.28219 1.50106
2251.23376 1.50205
2249.18532 1.50255
2247.13688 1.50276
2245.08844 1.50306
2243.04000 1.50354
2240.99156 1.50409
2238.94313 1.50449
2236.89469 1.50428
2234.84625 1.50381
2232.79781 1.50430
2230.74937 1.50545
2228.70093 1.50574
2226.65250 1.50481
2224.60406 1.50348
2222.55562 1.50290
2220.50718 1.50324
2218.45874 1.50353
2216.41030 1.50324
2214.36186 1.50249
2212.31343 1.50184
2210.26499 1.50186
2208.21655 1.50207
2206.16811 1.50150
2204.11967 1.50008
2202.07123 1.49856
2200.02280 1.49769
2197.97436 1.49780
2195.92592 1.49815
2193.87748 1.49745
2191.82904 1.49563
2189.78060 1.49393
2187.73217 1.49333
2185.68373 1.49370
2183.63529 1.49419
2181.58685 1.49400
2179.53841 1.49312
2177.48997 1.49228
2175.44154 1.49219
2173.39310 1.49275
2171.34466 1.49291
2169.29622 1.49216
2167.24778 1.49110
2165.19934 1.49032
2163.15091 1.48990
2161.10247 1.48954
2159.05403 1.48929
2157.00559 1.48942
2154.95715 1.48900
2152.90871 1.48776
2150.86028 1.48702
2148.81184 1.48683
2146.76340 1.48673
2144.71496 1.48703
2142.66652 1.48749
2140.61808 1.48753
2138.56965 1.48706
2136.52121 1.48646
2134.47277 1.48641
2132.42433 1.48675
2130.37589 1.48682
2128.32745 1.48633
2126.27902 1.48503
2124.23058 1.48359
2122.18214 1.48308
2120.13370 1.48344
2118.08526 1.48377
2116.03682 1.48336
2113.98839 1.48228
2111.93995 1.48135
2109.89151 1.48167
2107.84307 1.48326
2105.79463 1.48456
2103.74619 1.48420
2101.69776 1.48258
2099.64932 1.48104
2097.60088 1.48119
2095.55244 1.48314
2093.50400 1.48496
2091.45556 1.48543
2089.40713 1.48463
2087.35869 1.48349
2085.31025 1.48375
2083.26181 1.48527
2081.21337 1.48614
2079.16493 1.48566
2077.11649 1.48490
2075.06806 1.48480
2073.01962 1.48481
2070.97118 1.48444
2068.92274 1.48418
2066.87430 1.48434
2064.82586 1.48473
2062.77743 1.48473
2060.72899 1.48406
2058.68055 1.48347
2056.63211 1.48361
2054.58367 1.48431
2052.53523 1.48472
2050.48680 1.48399
2048.43836 1.48236
2046.38992 1.48135
2044.34148 1.48176
2042.29304 1.48273
2040.24460 1.48315
2038.19617 1.48257
2036.14773 1.48135
2034.09929 1.48066
2032.05085 1.48115
2030.00241 1.48238
2027.95397 1.48376
2025.90554 1.48494
2023.85710 1.48555
2021.80866 1.48536
2019.76022 1.48467
2017.71178 1.48502
2015.66334 1.48697
2013.61491 1.48870
2011.56647 1.48925
2009.51803 1.48919
2007.46959 1.48915
2005.42115 1.48909
2003.37271 1.48915
2001.32428 1.48949
1999.27584 1.48961
1997.22740 1.48924
1995.17896 1.48808
1993.13052 1.48729
1991.08208 1.48882
1989.03365 1.49128
1986.98521 1.49257
1984.93677 1.49260
1982.88833 1.49222
1980.83989 1.49229
1978.79145 1.49289
1976.74302 1.49395
1974.69458 1.49512
1972.64614 1.49566
1970.59770 1.49524
1968.54926 1.49496
1966.50082 1.49621
1964.45239 1.49776
1962.40395 1.49787
1960.35551 1.49703
1958.30707 1.49644
1956.25863 1.49663
1954.21019 1.49686
1952.16176 1.49638
1950.11332 1.49600
1948.06488 1.49622
1946.01644 1.49611
1943.96800 1.49576
1941.91956 1.49713
1939.87112 1.49890
1937.82269 1.49896
1935.77425 1.49868
1933.72581 1.49883
1931.67737 1.49897
1929.62893 1.49898
1927.58049 1.49861
1925.53206 1.49721
1923.48362 1.49630
1921.43518 1.49634
1919.38674 1.49573
1917.33830 1.49686
1915.28986 1.49855
1913.24143 1.49740
1911.19299 1.49533
1909.14455 1.49505
1907.09611 1.49619
1905.04767 1.49675
1902.99923 1.49668
1900.95080 1.49609
1898.90236 1.49416
1896.85392 1.49185
1894.80548 1.49117
1892.75704 1.49108
1890.70860 1.49058
1888.66017 1.49115
1886.61173 1.49131
1884.56329 1.49046
1882.51485 1.49019
1880.46641 1.49020
1878.41797 1.48996
1876.36954 1.48968
1874.32110 1.48914
1872.27266 1.48710
1870.22422 1.48497
1868.17578 1.48753
1866.12734 1.49198
1864.07891 1.49313
1862.03047 1.49292
1859.98203 1.49326
1857.93359 1.49361
1855.88515 1.49328
1853.83671 1.49265
1851.78828 1.49219
1849.73984 1.49179
1847.69140 1.49074
1845.64296 1.48921
1843.59452 1.49062
1841.54608 1.49295
1839.49765 1.49288
1837.44921 1.49291
1835.40077 1.49298
1833.35233 1.48995
1831.30389 1.48605
1829.25545 1.48700
1827.20702 1.48928
1825.15858 1.48981
1823.11014 1.49092
1821.06170 1.49124
1819.01326 1.49080
1816.96482 1.49029
1814.91639 1.48881
1812.86795 1.48705
1810.81951 1.48790
1808.77107 1.49091
1806.72263 1.49253
1804.67419 1.49149
1802.62575 1.48897
1800.57732 1.48874
1798.52888 1.49114
1796.48044 1.49193
1794.43200 1.49013
1792.38356 1.48968
1790.33512 1.49230
1788.28669 1.49290
1786.23825 1.49245
1784.18981 1.49337
1782.14137 1.49402
1780.09293 1.49398
1778.04449 1.49251
1775.99606 1.48818
1773.94762 1.48455
1771.89918 1.48824
1769.85074 1.49448
1767.80230 1.49699
1765.75386 1.49681
1763.70543 1.49468
1761.65699 1.49535
1759.60855 1.49887
1757.56011 1.50211
1755.51167 1.50523
1753.46323 1.50466
1751.41480 1.50323
1749.36636 1.50877
1747.31792 1.51813
1745.26948 1.52490
1743.22104 1.52948
1741.17260 1.53295
1739.12417 1.53520
1737.07573 1.53391
1735.02729 1.53098
1732.97885 1.53280
1730.93041 1.53437
1728.88197 1.53297
1726.83354 1.53041
1724.78510 1.52729
1722.73666 1.52478
1720.68822 1.52119
1718.63978 1.51717
1716.59134 1.51988
1714.54291 1.52572
1712.49447 1.52733
1710.44603 1.52642
1708.39759 1.52396
1706.34915 1.52192
1704.30071 1.52127
1702.25228 1.51891
1700.20384 1.51706
1698.15540 1.51806
1696.10696 1.52085
1694.05852 1.52381
1692.01008 1.52180
1689.96165 1.51801
1687.91321 1.51484
1685.86477 1.51218
1683.81633 1.51757
1681.76789 1.52406
1679.71945 1.52344
1677.67102 1.52147
1675.62258 1.52176
1673.57414 1.52310
1671.52570 1.52246
1669.47726 1.52590
1667.42882 1.53076
1665.38038 1.53013
1663.33195 1.53018
1661.28351 1.53345
1659.23507 1.53364
1657.18663 1.52900
1655.13819 1.52219
1653.08975 1.52577
1651.04132 1.53321
1648.99288 1.52943
1646.94444 1.52880
1644.89600 1.53426
1642.84756 1.53462
1640.79912 1.53195
1638.75069 1.52840
1636.70225 1.52787
1634.65381 1.53442
1632.60537 1.53568
1630.55693 1.53188
1628.50849 1.52958
1626.46006 1.52984
1624.41162 1.53013
1622.36318 1.53076
1620.31474 1.52891
1618.26630 1.52498
1616.21786 1.52602
1614.16943 1.52952
1612.12099 1.52962
1610.07255 1.52858
1608.02411 1.52726
1605.97567 1.52528
1603.92723 1.52353
1601.87880 1.52312
1599.83036 1.52360
1597.78192 1.52370
1595.73348 1.52276
1593.68504 1.52066
1591.63660 1.51845
1589.58817 1.51786
1587.53973 1.51883
1585.49129 1.51968
1583.44285 1.51932
1581.39441 1.51683
1579.34597 1.51178
1577.29754 1.50760
1575.24910 1.50966
1573.20066 1.51056
1571.15222 1.50780
1569.10378 1.50600
1567.05534 1.50451
1565.00691 1.50234
1562.95847 1.49974
1560.91003 1.49589
1558.86159 1.49808
1556.81315 1.50341
1554.76471 1.50234
1552.71628 1.50269
1550.66784 1.50478
1548.61940 1.50553
1546.57096 1.50188
1544.52252 1.49588
1542.47408 1.49228
1540.42565 1.49714
1538.37721 1.50570
1536.32877 1.50467
1534.28033 1.50069
1532.23189 1.49950
1530.18345 1.49782
1528.13501 1.49496
1526.08658 1.49386
1524.03814 1.49200
1521.98970 1.49009
1519.94126 1.49204
1517.89282 1.49422
1515.84438 1.49633
1513.79595 1.49644
1511.74751 1.49329
1509.69907 1.48786
1507.65063 1.48726
1505.60219 1.49902
1503.55375 1.50134
1501.50532 1.49732
1499.45688 1.49335
1497.40844 1.49358
1495.36000 1.49698
1493.31156 1.49584
1491.26312 1.49109
1489.21469 1.48977
1487.16625 1.49362
1485.11781 1.49617
1483.06937 1.49655
1481.02093 1.49678
1478.97249 1.49709
1476.92406 1.49696
1474.87562 1.49872
1472.82718 1.50693
1470.77874 1.51590
1468.73030 1.51797
1466.68186 1.51794
1464.63343 1.51977
1462.58499 1.52014
1460.53655 1.51621
1458.48811 1.51215
1456.43967 1.51569
1454.39123 1.51812
1452.34280 1.51637
1450.29436 1.51492
1448.24592 1.51541
1446.19748 1.51661
1444.14904 1.51576
1442.10060 1.51346
1440.05217 1.51098
1438.00373 1.50961
1435.95529 1.51191
1433.90685 1.51370
1431.85841 1.51231
1429.80997 1.51025
1427.76154 1.50865
1425.71310 1.50757
1423.66466 1.50741
1421.61622 1.50678
1419.56778 1.50645
1417.51934 1.50856
1415.47091 1.50894
1413.42247 1.50713
1411.37403 1.50596
1409.32559 1.50618
1407.27715 1.50646
1405.22871 1.50688
1403.18028 1.50674
1401.13184 1.50442
1399.08340 1.50211
1397.03496 1.50223
1394.98652 1.50468
1392.93808 1.50685
1390.88965 1.50571
1388.84121 1.50328
1386.79277 1.50385
1384.74433 1.50702
1382.69589 1.50980
1380.64745 1.51205
1378.59901 1.51319
1376.55058 1.51193
1374.50214 1.50976
1372.45370 1.50924
1370.40526 1.50953
1368.35682 1.50973
1366.30838 1.50817
1364.25995 1.50390
1362.21151 1.50088
1360.16307 1.50120
1358.11463 1.50152
1356.06619 1.50072
1354.01775 1.49933
1351.96932 1.49801
1349.92088 1.49771
1347.87244 1.49832
1345.82400 1.49826
1343.77556 1.49656
1341.72712 1.49467
1339.67869 1.49604
1337.63025 1.50011
1335.58181 1.50180
1333.53337 1.50048
1331.48493 1.49924
1329.43649 1.50131
1327.38806 1.50606
1325.33962 1.50880
1323.29118 1.50671
1321.24274 1.50260
1319.19430 1.50151
1317.14586 1.50443
1315.09743 1.50815
1313.04899 1.50952
1311.00055 1.50744
1308.95211 1.50438
1306.90367 1.50351
1304.85523 1.50492
1302.80680 1.50680
1300.75836 1.50800
1298.70992 1.50827
1296.66148 1.50791
1294.61304 1.50706
1292.56460 1.50649
1290.51617 1.50803
1288.46773 1.51182
1286.41929 1.51490
1284.37085 1.51512
1282.32241 1.51386
1280.27397 1.51334
1278.22554 1.51428
1276.17710 1.51654
1274.12866 1.51931
1272.08022 1.52130
1270.03178 1.52281
1267.98334 1.52561
1265.93491 1.53002
1263.88647 1.53380
1261.83803 1.53495
1259.78959 1.53369
1257.74115 1.53086
1255.69271 1.52776
1253.64428 1.52551
1251.59584 1.52428
1249.54740 1.52410
1247.49896 1.52420
1245.45052 1.52386
1243.40208 1.52346
1241.35364 1.52280
1239.30521 1.52175
1237.25677 1.52135
1235.20833 1.52245
1233.15989 1.52419
1231.11145 1.52445
1229.06301 1.52272
1227.01458 1.52112
1224.96614 1.52115
1222.91770 1.52246
1220.86926 1.52366
1218.82082 1.52338
1216.77238 1.52225
1214.72395 1.52192
1212.67551 1.52289
1210.62707 1.52448
1208.57863 1.52562
1206.53019 1.52571
1204.48175 1.52500
1202.43332 1.52451
1200.38488 1.52499
1198.33644 1.52627
1196.28800 1.52731
1194.23956 1.52693
1192.19112 1.52572
1190.14269 1.52519
1188.09425 1.52544
1186.04581 1.52574
1183.99737 1.52554
1181.94893 1.52546
1179.90049 1.52658
1177.85206 1.52840
1175.80362 1.52967
1173.75518 1.52949
1171.70674 1.52841
1169.65830 1.52842
1167.60986 1.52954
1165.56143 1.53002
1163.51299 1.52890
1161.46455 1.52662
1159.41611 1.52452
1157.36767 1.52353
1155.31923 1.52411
1153.27080 1.52547
1151.22236 1.52563
1149.17392 1.52465
1147.12548 1.52380
1145.07704 1.52351
1143.02860 1.52425
1140.98017 1.52575
1138.93173 1.52705
1136.88329 1.52817
1134.83485 1.52905
1132.78641 1.52968
1130.73797 1.53071
1128.68954 1.53246
1126.64110 1.53486
1124.59266 1.53719
1122.54422 1.53852
1120.49578 1.53976
1118.44734 1.54200
1116.39891 1.54455
1114.35047 1.54646
1112.30203 1.54728
1110.25359 1.54734
1108.20515 1.54770
1106.15671 1.54862
1104.10827 1.54909
1102.05984 1.54824
1100.01140 1.54657
1097.96296 1.54543
1095.91452 1.54534
1093.86608 1.54513
1091.81764 1.54314
1089.76921 1.53997
1087.72077 1.53857
1085.67233 1.54001
1083.62389 1.54139
1081.57545 1.53995
1079.52701 1.53688
1077.47858 1.53568
1075.43014 1.53726
1073.38170 1.53913
1071.33326 1.53946
1069.28482 1.53848
1067.23638 1.53698
1065.18795 1.53619
1063.13951 1.53650
1061.09107 1.53706
1059.04263 1.53727
1056.99419 1.53664
1054.94575 1.53601
1052.89732 1.53686
1050.84888 1.53863
1048.80044 1.53981
1046.75200 1.53929
1044.70356 1.53805
1042.65512 1.53819
1040.60669 1.53980
1038.55825 1.54091
1036.50981 1.53975
1034.46137 1.53725
1032.41293 1.53535
1030.36449 1.53465
1028.31606 1.53503
1026.26762 1.53619
1024.21918 1.53748
1022.17074 1.53878
1020.12230 1.53934
1018.07386 1.53899
1016.02543 1.54059
1013.97699 1.54432
1011.92855 1.54626
1009.88011 1.54524
1007.83167 1.54315
1005.78323 1.54179
1003.73480 1.54211
1001.68636 1.54334
999.63792 1.54363
997.58948 1.54196
995.54104 1.53840
993.49260 1.53403
991.44417 1.53016
989.39573 1.52787
987.34729 1.52675
985.29885 1.52517
983.25041 1.52200
981.20197 1.51684
979.15354 1.51168
977.10510 1.50940
975.05666 1.50937
973.00822 1.50849
970.95978 1.50555
968.91134 1.50180
966.86290 1.49904
964.81447 1.49802
962.76603 1.49837
960.71759 1.49906
958.66915 1.49860
956.62071 1.49657
954.57227 1.49456
952.52384 1.49375
950.47540 1.49383
948.42696 1.49416
946.37852 1.49376
944.33008 1.49256
942.28164 1.49203
940.23321 1.49232
938.18477 1.49126
936.13633 1.48860
934.08789 1.48729
932.03945 1.48897
929.99101 1.49132
927.94258 1.49159
925.89414 1.49051
923.84570 1.49035
921.79726 1.49253
919.74882 1.49631
917.70038 1.49888
915.65195 1.50010
913.60351 1.50117
911.55507 1.50234
909.50663 1.50415
907.45819 1.50603
905.40975 1.50758
903.36132 1.50903
901.31288 1.51018
899.26444 1.51095
897.21600 1.51165
895.16756 1.51331
893.11912 1.51668
891.07069 1.52066
889.02225 1.52297
886.97381 1.52279
884.92537 1.52088
882.87693 1.51900
880.82849 1.51857
878.78006 1.51923
876.73162 1.51954
874.68318 1.51778
872.63474 1.51419
870.58630 1.51084
868.53786 1.50914
866.48943 1.50965
864.44099 1.51172
862.39255 1.51355
860.34411 1.51370
858.29567 1.51247
856.24723 1.51088
854.19880 1.50955
852.15036 1.50991
850.10192 1.51207
848.05348 1.51379
846.00504 1.51250
843.95660 1.50859
841.90817 1.50685
839.85973 1.50890
837.81129 1.51133
835.76285 1.51225
833.71441 1.51153
831.66597 1.51037
829.61753 1.51210
827.56910 1.51856
825.52066 1.52479
823.47222 1.52394
821.42378 1.51906
819.37534 1.51739
817.32690 1.52069
815.27847 1.52610
813.23003 1.52808
811.18159 1.52555
809.13315 1.52354
807.08471 1.52580
805.03627 1.53227
802.98784 1.53889
800.93940 1.54208
798.89096 1.54547
796.84252 1.55384
794.79408 1.56492
792.74564 1.57409
790.69721 1.58098
788.64877 1.58719
786.60033 1.59450
784.55189 1.60535
782.50345 1.61882
780.45501 1.63184
778.40658 1.64245
776.35814 1.64968
774.30970 1.65468
772.26126 1.66067
770.21282 1.66996
768.16438 1.68041
766.11595 1.69153
764.06751 1.70417
762.01907 1.71564
759.97063 1.72897
757.92219 1.75028
755.87375 1.77465
753.82532 1.79254
751.77688 1.80154
749.72844 1.80481
747.68000 1.80598
745.63156 1.80529
743.58312 1.80528
741.53469 1.81048
739.48625 1.81914
737.43781 1.82654
735.38937 1.83133
733.34093 1.82943
731.29249 1.81951
729.24406 1.81532
727.19562 1.83076
725.14718 1.85954
723.09874 1.87908
721.05030 1.88143
719.00186 1.88078
716.95343 1.88839
714.90499 1.90132
712.85655 1.91411
710.80811 1.92488
708.75967 1.93216
706.71123 1.93995
704.66280 1.95084
702.61436 1.96077
700.56592 1.96751
698.51748 1.97482
696.46904 1.97999
694.42060 1.98092
692.37216 1.98617
690.32373 1.98589
688.27529 1.96892
686.22685 1.95263
684.17841 1.94742
682.12997 1.94489
680.08153 1.93848
678.03310 1.92470
675.98466 1.91666
673.93622 1.93392
671.88778 1.95708
669.83934 1.95999
667.79090 1.95743
665.74247 1.96101
663.69403 1.96206
661.64559 1.96818
659.59715 1.98219
657.54871 2.00220
655.50027 2.02932
653.45184 2.06326
651.40340 2.07511
649.35496 2.04640
647.30652 2.01770
645.25808 2.01211
643.20964 2.02288
641.16121 2.03264
639.11277 2.00504
637.06433 1.93900
635.01589 1.88757
632.96745 1.87896
630.91901 1.87988
628.87058 1.85660
626.82214 1.83845
624.77370 1.85189
622.72526 1.86464
620.67682 1.84928
618.62838 1.82522
616.57995 1.79612
614.53151 1.76549
612.48307 1.75526
610.43463 1.75572
608.38619 1.74510
606.33775 1.72852
604.28932 1.72106
602.24088 1.72690
600.19244 1.72696
598.14400 1.69788
