3996.50324 1.06733
3994.45480 1.06761
3992.40636 1.06801
3990.35792 1.06856
3988.30948 1.06915
3986.26104 1.06920
3984.21261 1.06872
3982.16417 1.06845
3980.11573 1.06850
3978.06729 1.06831
3976.01885 1.06793
3973.97041 1.06788
3971.92198 1.06818
3969.87354 1.06869
3967.82510 1.06908
3965.77666 1.06876
3963.72822 1.06802
3961.67978 1.06803
3959.63135 1.06835
3957.58291 1.06791
3955.53447 1.06734
3953.48603 1.06688
3951.43759 1.06600
3949.38915 1.06553
3947.34072 1.06589
3945.29228 1.06497
3943.24384 1.06429
3941.19540 1.06601
3939.14696 1.06706
3937.09852 1.06612
3935.05009 1.06381
3933.00165 1.06275
3930.95321 1.06531
3928.90477 1.06705
3926.85633 1.06567
3924.80789 1.06525
3922.75946 1.06630
3920.71102 1.06562
3918.66258 1.06504
3916.61414 1.06732
3914.56570 1.06959
3912.51726 1.06930
3910.46883 1.06803
3908.42039 1.06569
3906.37195 1.06192
3904.32351 1.06114
3902.27507 1.06511
3900.22663 1.06940
3898.17820 1.07212
3896.12976 1.07076
3894.08132 1.06657
3892.03288 1.06637
3889.98444 1.06953
3887.93600 1.06742
3885.88756 1.06568
3883.83913 1.06812
3881.79069 1.06845
3879.74225 1.07043
3877.69381 1.07019
3875.64537 1.06547
3873.59693 1.06254
3871.54850 1.06170
3869.50006 1.06468
3867.45162 1.06715
3865.40318 1.06556
3863.35474 1.06743
3861.30630 1.06965
3859.25787 1.06626
3857.20943 1.05869
3855.16099 1.05125
3853.11255 1.05921
3851.06411 1.07134
3849.01567 1.06918
3846.96724 1.06309
3844.91880 1.05901
3842.87036 1.05791
3840.82192 1.05750
3838.77348 1.06004
3836.72504 1.06677
3834.67661 1.06906
3832.62817 1.06785
3830.57973 1.06702
3828.53129 1.06552
3826.48285 1.06424
3824.43441 1.06168
3822.38598 1.05832
3820.33754 1.06284
3818.28910 1.06585
3816.24066 1.06612
3814.19222 1.06994
3812.14378 1.06929
3810.09535 1.06464
3808.04691 1.06221
3805.99847 1.06429
3803.95003 1.06251
3801.90159 1.06192
3799.85315 1.06837
3797.80472 1.06994
3795.75628 1.07025
3793.70784 1.07139
3791.65940 1.07100
3789.61096 1.07039
3787.56252 1.06932
3785.51409 1.06892
3783.46565 1.06949
3781.41721 1.06843
3779.36877 1.06900
3777.32033 1.07140
3775.27189 1.07029
3773.22346 1.06666
3771.17502 1.06442
3769.12658 1.06636
3767.07814 1.06872
3765.02970 1.07030
3762.98126 1.07015
3760.93283 1.06745
3758.88439 1.06802
3756.83595 1.06952
3754.78751 1.06518
3752.73907 1.05921
3750.69063 1.06254
3748.64219 1.06799
3746.59376 1.06470
3744.54532 1.06630
3742.49688 1.07234
3740.44844 1.06912
3738.40000 1.06186
3736.35156 1.05974
3734.30313 1.06713
3732.25469 1.07351
3730.20625 1.07256
3728.15781 1.06834
3726.10937 1.06632
3724.06093 1.06767
3722.01250 1.06931
3719.96406 1.07054
3717.91562 1.07019
3715.86718 1.06672
3713.81874 1.06129
3711.77030 1.06138
3709.72187 1.06882
3707.67343 1.07104
3705.62499 1.06811
3703.57655 1.06546
3701.52811 1.06758
3699.47967 1.07033
3697.43124 1.06981
3695.38280 1.06861
3693.33436 1.06650
3691.28592 1.06502
3689.23748 1.07169
3687.18904 1.08021
3685.14061 1.08013
3683.09217 1.07628
3681.04373 1.07303
3678.99529 1.06997
3676.94685 1.06783
3674.89841 1.07418
3672.84998 1.07741
3670.80154 1.07553
3668.75310 1.08027
3666.70466 1.08277
3664.65622 1.08068
3662.60778 1.07948
3660.55935 1.07879
3658.51091 1.07701
3656.46247 1.07783
3654.41403 1.07932
3652.36559 1.07494
3650.31715 1.07195
3648.26872 1.08188
3646.22028 1.08867
3644.17184 1.08717
3642.12340 1.08484
3640.07496 1.08423
3638.02652 1.08430
3635.97809 1.08447
3633.92965 1.08431
3631.88121 1.08165
3629.83277 1.08001
3627.78433 1.08730
3625.73589 1.09051
3623.68746 1.08686
3621.63902 1.08265
3619.59058 1.08243
3617.54214 1.08570
3615.49370 1.08588
3613.44526 1.08528
3611.39682 1.08589
3609.34839 1.08667
3607.29995 1.08914
3605.25151 1.09055
3603.20307 1.08956
3601.15463 1.08989
3599.10619 1.09217
3597.05776 1.09363
3595.00932 1.09559
3592.96088 1.09800
3590.91244 1.09710
3588.86400 1.09596
3586.81556 1.10066
3584.76713 1.10454
3582.71869 1.10407
3580.67025 1.10402
3578.62181 1.10552
3576.57337 1.10701
3574.52493 1.10824
3572.47650 1.10872
3570.42806 1.10711
3568.37962 1.10603
3566.33118 1.11075
3564.28274 1.11474
3562.23430 1.11378
3560.18587 1.11270
3558.13743 1.11278
3556.08899 1.11190
3554.04055 1.11083
3551.99211 1.11170
3549.94367 1.11218
3547.89524 1.11093
3545.84680 1.11128
3543.79836 1.11336
3541.74992 1.11407
3539.70148 1.11341
3537.65304 1.11315
3535.60461 1.11421
3533.55617 1.11501
3531.50773 1.11440
3529.45929 1.11388
3527.41085 1.11413
3525.36241 1.11403
3523.31398 1.11373
3521.26554 1.11345
3519.21710 1.11285
3517.16866 1.11254
3515.12022 1.11238
3513.07178 1.11218
3511.02335 1.11271
3508.97491 1.11373
3506.92647 1.11400
3504.87803 1.11411
3502.82959 1.11565
3500.78115 1.11732
3498.73272 1.11737
3496.68428 1.11683
3494.63584 1.11693
3492.58740 1.11744
3490.53896 1.11764
3488.49052 1.11762
3486.44209 1.11787
3484.39365 1.11821
3482.34521 1.11914
3480.29677 1.12067
3478.24833 1.12152
3476.19989 1.12200
3474.15146 1.12329
3472.10302 1.12492
3470.05458 1.12610
3468.00614 1.12723
3465.95770 1.12859
3463.90926 1.12971
3461.86082 1.13073
3459.81239 1.13187
3457.76395 1.13304
3455.71551 1.13405
3453.66707 1.13446
3451.61863 1.13412
3449.57019 1.13338
3447.52176 1.13318
3445.47332 1.13340
3443.42488 1.13313
3441.37644 1.13271
3439.32800 1.13242
3437.27956 1.13236
3435.23113 1.13260
3433.18269 1.13286
3431.13425 1.13323
3429.08581 1.13372
3427.03737 1.13388
3424.98893 1.13352
3422.94050 1.13308
3420.89206 1.13311
3418.84362 1.13332
3416.79518 1.13318
3414.74674 1.13298
3412.69830 1.13295
3410.64987 1.13269
3408.60143 1.13192
3406.55299 1.13104
3404.50455 1.13054
3402.45611 1.13057
3400.40767 1.13090
3398.35924 1.13095
3396.31080 1.13055
3394.26236 1.13038
3392.21392 1.13099
3390.16548 1.13186
3388.11704 1.13253
3386.06861 1.13296
3384.02017 1.13287
3381.97173 1.13288
3379.92329 1.13386
3377.87485 1.13530
3375.82641 1.13603
3373.77798 1.13583
3371.72954 1.13527
3369.68110 1.13486
3367.63266 1.13494
3365.58422 1.13507
3363.53578 1.13490
3361.48735 1.13498
3359.43891 1.13517
3357.39047 1.13513
3355.34203 1.13538
3353.29359 1.13617
3351.24515 1.13724
3349.19672 1.13821
3347.14828 1.13876
3345.09984 1.13882
3343.05140 1.13893
3341.00296 1.13955
3338.95452 1.14033
3336.90609 1.14085
3334.85765 1.14070
3332.80921 1.14004
3330.76077 1.13955
3328.71233 1.13948
3326.66389 1.13956
3324.61545 1.13926
3322.56702 1.13865
3320.51858 1.13799
3318.47014 1.13709
3316.42170 1.13599
3314.37326 1.13515
3312.32482 1.13506
3310.27639 1.13560
3308.22795 1.13628
3306.17951 1.13648
3304.13107 1.13576
3302.08263 1.13460
3300.03419 1.13352
3297.98576 1.13250
3295.93732 1.13140
3293.88888 1.13040
3291.84044 1.12999
3289.79200 1.13002
3287.74356 1.13001
3285.69513 1.13008
3283.64669 1.13042
3281.59825 1.13075
3279.54981 1.13084
3277.50137 1.13097
3275.45293 1.13110
3273.40450 1.13089
3271.35606 1.13032
3269.30762 1.12933
3267.25918 1.12836
3265.21074 1.12794
3263.16230 1.12780
3261.11387 1.12762
3259.06543 1.12756
3257.01699 1.12783
3254.96855 1.12845
3252.92011 1.12925
3250.87167 1.12997
3248.82324 1.13011
3246.77480 1.12970
3244.72636 1.12951
3242.67792 1.12979
3240.62948 1.13036
3238.58104 1.13115
3236.53261 1.13171
3234.48417 1.13179
3232.43573 1.13152
3230.38729 1.13074
3228.33885 1.12967
3226.29041 1.12911
3224.24198 1.12921
3222.19354 1.12941
3220.14510 1.12922
3218.09666 1.12834
3216.04822 1.12686
3213.99978 1.12515
3211.95135 1.12342
3209.90291 1.12204
3207.85447 1.12121
3205.80603 1.12048
3203.75759 1.11950
3201.70915 1.11829
3199.66072 1.11695
3197.61228 1.11597
3195.56384 1.11522
3193.51540 1.11404
3191.46696 1.11295
3189.41852 1.11236
3187.37008 1.11157
3185.32165 1.11045
3183.27321 1.10954
3181.22477 1.10927
3179.17633 1.10963
3177.12789 1.10986
3175.07945 1.10938
3173.03102 1.10890
3170.98258 1.10879
3168.93414 1.10838
3166.88570 1.10786
3164.83726 1.10808
3162.78882 1.10886
3160.74039 1.10975
3158.69195 1.11079
3156.64351 1.11177
3154.59507 1.11237
3152.54663 1.11282
3150.49819 1.11340
3148.44976 1.11408
3146.40132 1.11480
3144.35288 1.11516
3142.30444 1.11483
3140.25600 1.11439
3138.20756 1.11428
3136.15913 1.11413
3134.11069 1.11373
3132.06225 1.11306
3130.01381 1.11197
3127.96537 1.11072
3125.91693 1.10995
3123.86850 1.10995
3121.82006 1.11018
3119.77162 1.10968
3117.72318 1.10833
3115.67474 1.10713
3113.62630 1.10679
3111.57787 1.10657
3109.52943 1.10565
3107.48099 1.10445
3105.43255 1.10320
3103.38411 1.10169
3101.33567 1.10029
3099.28724 1.09956
3097.23880 1.09948
3095.19036 1.09952
3093.14192 1.09893
3091.09348 1.09791
3089.04504 1.09721
3086.99661 1.09678
3084.94817 1.09634
3082.89973 1.09588
3080.85129 1.09522
3078.80285 1.09435
3076.75441 1.09381
3074.70598 1.09400
3072.65754 1.09471
3070.60910 1.09539
3068.56066 1.09556
3066.51222 1.09510
3064.46378 1.09425
3062.41535 1.09331
3060.36691 1.09243
3058.31847 1.09178
3056.27003 1.09172
3054.22159 1.09237
3052.17315 1.09357
3050.12471 1.09496
3048.07628 1.09615
3046.02784 1.09720
3043.97940 1.09827
3041.93096 1.09917
3039.88252 1.09989
3037.83408 1.10086
3035.78565 1.10198
3033.73721 1.10259
3031.68877 1.10238
3029.64033 1.10120
3027.59189 1.09911
3025.54345 1.09687
3023.49502 1.09504
3021.44658 1.09370
3019.39814 1.09292
3017.34970 1.09281
3015.30126 1.09325
3013.25282 1.09384
3011.20439 1.09412
3009.15595 1.09398
3007.10751 1.09367
3005.05907 1.09314
3003.01063 1.09248
3000.96219 1.09206
2998.91376 1.09179
2996.86532 1.09143
2994.81688 1.09106
2992.76844 1.09096
2990.72000 1.09117
2988.67156 1.09134
2986.62313 1.09123
2984.57469 1.09063
2982.52625 1.08959
2980.47781 1.08911
2978.42937 1.08998
2976.38093 1.09145
2974.33250 1.09295
2972.28406 1.09530
2970.23562 1.09882
2968.18718 1.10229
2966.13874 1.10452
2964.09030 1.10541
2962.04187 1.10528
2959.99343 1.10446
2957.94499 1.10289
2955.89655 1.10076
2953.84811 1.09907
2951.79967 1.09797
2949.75124 1.09702
2947.70280 1.09642
2945.65436 1.09631
2943.60592 1.09667
2941.55748 1.09769
2939.50904 1.09933
2937.46061 1.10120
2935.41217 1.10276
2933.36373 1.10389
2931.31529 1.10480
2929.26685 1.10596
2927.21841 1.10776
2925.16998 1.10985
2923.12154 1.11153
2921.07310 1.11246
2919.02466 1.11262
2916.97622 1.11249
2914.92778 1.11215
2912.87934 1.11141
2910.83091 1.11088
2908.78247 1.11082
2906.73403 1.11046
2904.68559 1.10941
2902.63715 1.10794
2900.58871 1.10615
2898.54028 1.10399
2896.49184 1.10183
2894.44340 1.10003
2892.39496 1.09874
2890.34652 1.09792
2888.29808 1.09697
2886.24965 1.09563
2884.20121 1.09458
2882.15277 1.09427
2880.10433 1.09431
2878.05589 1.09434
2876.00745 1.09421
2873.95902 1.09383
2871.91058 1.09354
2869.86214 1.09358
2867.81370 1.09395
2865.76526 1.09473
2863.71682 1.09587
2861.66839 1.09692
2859.61995 1.09753
2857.57151 1.09781
2855.52307 1.09779
2853.47463 1.09731
2851.42619 1.09600
2849.37776 1.09363
2847.32932 1.09050
2845.28088 1.08703
2843.23244 1.08353
2841.18400 1.08034
2839.13556 1.07794
2837.08713 1.07657
2835.03869 1.07577
2832.99025 1.07492
2830.94181 1.07417
2828.89337 1.07382
2826.84493 1.07383
2824.79650 1.07389
2822.74806 1.07374
2820.69962 1.07371
2818.65118 1.07395
2816.60274 1.07410
2814.55430 1.07437
2812.50587 1.07540
2810.45743 1.07729
2808.40899 1.07952
2806.36055 1.08171
2804.31211 1.08374
2802.26367 1.08550
2800.21524 1.08685
2798.16680 1.08747
2796.11836 1.08710
2794.06992 1.08615
2792.02148 1.08559
2789.97304 1.08567
2787.92461 1.08585
2785.87617 1.08579
2783.82773 1.08581
2781.77929 1.08626
2779.73085 1.08669
2777.68241 1.08663
2775.63397 1.08614
2773.58554 1.08528
2771.53710 1.08401
2769.48866 1.08240
2767.44022 1.08081
2765.39178 1.07929
2763.34334 1.07769
2761.29491 1.07614
2759.24647 1.07466
2757.19803 1.07314
2755.14959 1.07201
2753.10115 1.07176
2751.05271 1.07207
2749.00428 1.07243
2746.95584 1.07269
2744.90740 1.07284
2742.85896 1.07257
2740.81052 1.07165
2738.76208 1.07068
2736.71365 1.07030
2734.66521 1.07028
2732.61677 1.07028
2730.56833 1.07043
2728.51989 1.07072
2726.47145 1.07076
2724.42302 1.07038
2722.37458 1.06990
2720.32614 1.06988
2718.27770 1.07050
2716.22926 1.07156
2714.18082 1.07262
2712.13239 1.07317
2710.08395 1.07319
2708.03551 1.07316
2705.98707 1.07352
2703.93863 1.07431
2701.89019 1.07530
2699.84176 1.07659
2697.79332 1.07788
2695.74488 1.07821
2693.69644 1.07754
2691.64800 1.07692
2689.59956 1.07664
2687.55113 1.07607
2685.50269 1.07527
2683.45425 1.07500
2681.40581 1.07562
2679.35737 1.07691
2677.30893 1.07824
2675.26050 1.07914
2673.21206 1.07962
2671.16362 1.07951
2669.11518 1.07842
2667.06674 1.07671
2665.01830 1.07532
2662.96987 1.07461
2660.92143 1.07406
2658.87299 1.07311
2656.82455 1.07190
2654.77611 1.07089
2652.72767 1.07044
2650.67924 1.07042
2648.63080 1.07003
2646.58236 1.06876
2644.53392 1.06697
2642.48548 1.06533
2640.43704 1.06436
2638.38860 1.06395
2636.34017 1.06388
2634.29173 1.06405
2632.24329 1.06412
2630.19485 1.06404
2628.14641 1.06416
2626.09797 1.06464
2624.04954 1.06537
2622.00110 1.06615
2619.95266 1.06694
2617.90422 1.06767
2615.85578 1.06796
2613.80734 1.06762
2611.75891 1.06704
2609.71047 1.06648
2607.66203 1.06613
2605.61359 1.06613
2603.56515 1.06639
2601.51671 1.06681
2599.46828 1.06752
2597.41984 1.06878
2595.37140 1.07054
2593.32296 1.07219
2591.27452 1.07363
2589.22608 1.07526
2587.17765 1.07686
2585.12921 1.07806
2583.08077 1.07876
2581.03233 1.07875
2578.98389 1.07795
2576.93545 1.07663
2574.88702 1.07486
2572.83858 1.07288
2570.79014 1.07131
2568.74170 1.07027
2566.69326 1.06956
2564.64482 1.06949
2562.59639 1.07025
2560.54795 1.07146
2558.49951 1.07243
2556.45107 1.07278
2554.40263 1.07276
2552.35419 1.07262
2550.30576 1.07220
2548.25732 1.07103
2546.20888 1.06918
2544.16044 1.06730
2542.11200 1.06570
2540.06356 1.06442
2538.01513 1.06312
2535.96669 1.06189
2533.91825 1.06167
2531.86981 1.06256
2529.82137 1.06391
2527.77293 1.06531
2525.72450 1.06648
2523.67606 1.06765
2521.62762 1.06898
2519.57918 1.06990
2517.53074 1.06997
2515.48230 1.06966
2513.43387 1.06947
2511.38543 1.06931
2509.33699 1.06885
2507.28855 1.06814
2505.24011 1.06762
2503.19167 1.06786
2501.14324 1.06898
2499.09480 1.07056
2497.04636 1.07223
2494.99792 1.07395
2492.94948 1.07571
2490.90104 1.07740
2488.85260 1.07896
2486.80417 1.08028
2484.75573 1.08103
2482.70729 1.08116
2480.65885 1.08111
2478.61041 1.08119
2476.56197 1.08136
2474.51354 1.08176
2472.46510 1.08237
2470.41666 1.08308
2468.36822 1.08409
2466.31978 1.08559
2464.27134 1.08730
2462.22291 1.08858
2460.17447 1.08924
2458.12603 1.08969
2456.07759 1.08998
2454.02915 1.08983
2451.98071 1.08919
2449.93228 1.08805
2447.88384 1.08668
2445.83540 1.08558
2443.78696 1.08462
2441.73852 1.08364
2439.69008 1.08354
2437.64165 1.08505
2435.59321 1.08775
2433.54477 1.09117
2431.49633 1.09503
2429.44789 1.09836
2427.39945 1.09967
2425.35102 1.09798
2423.30258 1.09384
2421.25414 1.08892
2419.20570 1.08420
2417.15726 1.07996
2415.10882 1.07650
2413.06039 1.07389
2411.01195 1.07208
2408.96351 1.07080
2406.91507 1.06953
2404.86663 1.06847
2402.81819 1.06813
2400.76976 1.06866
2398.72132 1.06988
2396.67288 1.07109
2394.62444 1.07168
2392.57600 1.07161
2390.52756 1.07107
2388.47913 1.07035
2386.43069 1.06986
2384.38225 1.06994
2382.33381 1.07054
2380.28537 1.07150
2378.23693 1.07292
2376.18850 1.07467
2374.14006 1.07631
2372.09162 1.07755
2370.04318 1.07803
2367.99474 1.07818
2365.94630 1.07781
2363.89787 1.07574
2361.84943 1.07481
2359.80099 1.07735
2357.75255 1.08043
2355.70411 1.08312
2353.65567 1.08695
2351.60723 1.08954
2349.55880 1.08801
2347.51036 1.08378
2345.46192 1.07989
2343.41348 1.07804
2341.36504 1.07686
2339.31660 1.07619
2337.26817 1.07640
2335.21973 1.07650
2333.17129 1.07561
2331.12285 1.07445
2329.07441 1.07426
2327.02597 1.07430
2324.97754 1.07337
2322.92910 1.07167
2320.88066 1.06915
2318.83222 1.06556
2316.78378 1.06162
2314.73534 1.05823
2312.68691 1.05638
2310.63847 1.05593
2308.59003 1.05540
2306.54159 1.05428
2304.49315 1.05364
2302.44471 1.05458
2300.39628 1.05676
2298.34784 1.05902
2296.29940 1.06056
2294.25096 1.06110
2292.20252 1.06104
2290.15408 1.06101
2288.10565 1.06135
2286.05721 1.06206
2284.00877 1.06293
2281.96033 1.06403
2279.91189 1.06547
2277.86345 1.06679
2275.81502 1.06773
2273.76658 1.06843
2271.71814 1.06896
2269.66970 1.06933
2267.62126 1.06977
2265.57282 1.07057
2263.52439 1.07147
2261.47595 1.07209
2259.42751 1.07249
2257.37907 1.07283
2255.33063 1.07318
2253.28219 1.07394
2251.23376 1.07557
2249.18532 1.07794
2247.13688 1.08016
2245.08844 1.08135
2243.04000 1.08136
2240.99156 1.08051
2238.94313 1.07967
2236.89469 1.07938
2234.84625 1.07912
2232.79781 1.07844
2230.74937 1.07728
2228.70093 1.07570
2226.65250 1.07413
2224.60406 1.07285
2222.55562 1.07177
2220.50718 1.07088
2218.45874 1.07023
2216.41030 1.06926
2214.36186 1.06739
2212.31343 1.06519
2210.26499 1.06325
2208.21655 1.06154
2206.16811 1.06000
2204.11967 1.05857
2202.07123 1.05693
2200.02280 1.05481
2197.97436 1.05288
2195.92592 1.05202
2193.87748 1.05193
2191.82904 1.05191
2189.78060 1.05197
2187.73217 1.05252
2185.68373 1.05367
2183.63529 1.05502
2181.58685 1.05604
2179.53841 1.05632
2177.48997 1.05613
2175.44154 1.05614
2173.39310 1.05651
2171.34466 1.05678
2169.29622 1.05665
2167.24778 1.05645
2165.19934 1.05643
2163.15091 1.05644
2161.10247 1.05658
2159.05403 1.05701
2157.00559 1.05747
2154.95715 1.05765
2152.90871 1.05790
2150.86028 1.05872
2148.81184 1.05994
2146.76340 1.06108
2144.71496 1.06201
2142.66652 1.06291
2140.61808 1.06416
2138.56965 1.06574
2136.52121 1.06725
2134.47277 1.06850
2132.42433 1.06945
2130.37589 1.07052
2128.32745 1.07225
2126.27902 1.07459
2124.23058 1.07733
2122.18214 1.07996
2120.13370 1.08146
2118.08526 1.08141
2116.03682 1.08016
2113.98839 1.07841
2111.93995 1.07666
2109.89151 1.07505
2107.84307 1.07363
2105.79463 1.07218
2103.74619 1.07073
2101.69776 1.06948
2099.64932 1.06834
2097.60088 1.06726
2095.55244 1.06635
2093.50400 1.06581
2091.45556 1.06559
2089.40713 1.06517
2087.35869 1.06432
2085.31025 1.06351
2083.26181 1.06309
2081.21337 1.06297
2079.16493 1.06296
2077.11649 1.06275
2075.06806 1.06172
2073.01962 1.05979
2070.97118 1.05776
2068.92274 1.05631
2066.87430 1.05567
2064.82586 1.05558
2062.77743 1.05547
2060.72899 1.05512
2058.68055 1.05470
2056.63211 1.05468
2054.58367 1.05591
2052.53523 1.05826
2050.48680 1.06041
2048.43836 1.06169
2046.38992 1.06256
2044.34148 1.06360
2042.29304 1.06501
2040.24460 1.06619
2038.19617 1.06647
2036.14773 1.06656
2034.09929 1.06716
2032.05085 1.06791
2030.00241 1.06855
2027.95397 1.06920
2025.90554 1.06997
2023.85710 1.07107
2021.80866 1.07259
2019.76022 1.07413
2017.71178 1.07595
2015.66334 1.07833
2013.61491 1.08067
2011.56647 1.08272
2009.51803 1.08464
2007.46959 1.08668
2005.42115 1.08847
2003.37271 1.08911
2001.32428 1.08868
1999.27584 1.08817
1997.22740 1.08770
1995.17896 1.08651
1993.13052 1.08501
1991.08208 1.08372
1989.03365 1.08176
1986.98521 1.07888
1984.93677 1.07588
1982.88833 1.07346
1980.83989 1.07198
1978.79145 1.07102
1976.74302 1.06983
1974.69458 1.06826
1972.64614 1.06650
1970.59770 1.06481
1968.54926 1.06390
1966.50082 1.06448
1964.45239 1.06587
1962.40395 1.06711
1960.35551 1.06797
1958.30707 1.06840
1956.25863 1.06901
1954.21019 1.07034
1952.16176 1.07202
1950.11332 1.07366
1948.06488 1.07485
1946.01644 1.07543
1943.96800 1.07645
1941.91956 1.07888
1939.87112 1.08110
1937.82269 1.08195
1935.77425 1.08180
1933.72581 1.08086
1931.67737 1.07980
1929.62893 1.07943
1927.58049 1.07950
1925.53206 1.07906
1923.48362 1.07857
1921.43518 1.07874
1919.38674 1.07974
1917.33830 1.08269
1915.28986 1.08587
1913.24143 1.08691
1911.19299 1.08629
1909.14455 1.08516
1907.09611 1.08426
1905.04767 1.08354
1902.99923 1.08297
1900.95080 1.08271
1898.90236 1.08252
1896.85392 1.08186
1894.80548 1.08137
1892.75704 1.08162
1890.70860 1.08318
1888.66017 1.08673
1886.61173 1.08926
1884.56329 1.08946
1882.51485 1.08871
1880.46641 1.08692
1878.41797 1.08393
1876.36954 1.08050
1874.32110 1.07736
1872.27266 1.07398
1870.22422 1.07037
1868.17578 1.06924
1866.12734 1.07016
1864.07891 1.06986
1862.03047 1.06879
1859.98203 1.06837
1857.93359 1.06880
1855.88515 1.06937
1853.83671 1.06989
1851.78828 1.07076
1849.73984 1.07211
1847.69140 1.07340
1845.64296 1.07517
1843.59452 1.08024
1841.54608 1.08499
1839.49765 1.08632
1837.44921 1.08704
1835.40077 1.08817
1833.35233 1.08798
1831.30389 1.08676
1829.25545 1.08682
1827.20702 1.08690
1825.15858 1.08651
1823.11014 1.08669
1821.06170 1.08653
1819.01326 1.08680
1816.96482 1.08787
1814.91639 1.08808
1812.86795 1.08692
1810.81951 1.08584
1808.77107 1.08535
1806.72263 1.08481
1804.67419 1.08401
1802.62575 1.08304
1800.57732 1.08315
1798.52888 1.08438
1796.48044 1.08443
1794.43200 1.08339
1792.38356 1.08568
1790.33512 1.09154
1788.28669 1.09458
1786.23825 1.09557
1784.18981 1.09629
1782.14137 1.09570
1780.09293 1.09402
1778.04449 1.09173
1775.99606 1.08841
1773.94762 1.08542
1771.89918 1.08594
1769.85074 1.08759
1767.80230 1.08722
1765.75386 1.08550
1763.70543 1.08316
1761.65699 1.08274
1759.60855 1.08330
1757.56011 1.08323
1755.51167 1.08349
1753.46323 1.08172
1751.41480 1.07849
1749.36636 1.07745
1747.31792 1.07769
1745.26948 1.07734
1743.22104 1.07708
1741.17260 1.07805
1739.12417 1.08061
1737.07573 1.08145
1735.02729 1.08241
1732.97885 1.08977
1730.93041 1.09562
1728.88197 1.09828
1726.83354 1.10094
1724.78510 1.10424
1722.73666 1.10740
1720.68822 1.10741
1718.63978 1.10617
1716.59134 1.11023
1714.54291 1.11566
1712.49447 1.11727
1710.44603 1.11674
1708.39759 1.11499
1706.34915 1.11411
1704.30071 1.11413
1702.25228 1.11249
1700.20384 1.11320
1698.15540 1.11785
1696.10696 1.12272
1694.05852 1.12692
1692.01008 1.12712
1689.96165 1.12576
1687.91321 1.12370
1685.86477 1.12037
1683.81633 1.12146
1681.76789 1.12556
1679.71945 1.12643
1677.67102 1.12606
1675.62258 1.12686
1673.57414 1.12844
1671.52570 1.12836
1669.47726 1.13026
1667.42882 1.13338
1665.38038 1.13383
1663.33195 1.13580
1661.28351 1.13987
1659.23507 1.13960
1657.18663 1.13454
1655.13819 1.12708
1653.08975 1.12199
1651.04132 1.11984
1648.99288 1.11445
1646.94444 1.10991
1644.89600 1.10895
1642.84756 1.10754
1640.79912 1.10603
1638.75069 1.10460
1636.70225 1.10503
1634.65381 1.11045
1632.60537 1.11294
1630.55693 1.11242
1628.50849 1.11290
1626.46006 1.11448
1624.41162 1.11589
1622.36318 1.11761
1620.31474 1.11741
1618.26630 1.11613
1616.21786 1.11869
1614.16943 1.12232
1612.12099 1.12373
1610.07255 1.12567
1608.02411 1.12934
1605.97567 1.13352
1603.92723 1.13730
1601.87880 1.14048
1599.83036 1.14254
1597.78192 1.14354
1595.73348 1.14416
1593.68504 1.14454
1591.63660 1.14444
1589.58817 1.14429
1587.53973 1.14463
1585.49129 1.14515
1583.44285 1.14500
1581.39441 1.14320
1579.34597 1.13921
1577.29754 1.13573
1575.24910 1.13673
1573.20066 1.13693
1571.15222 1.13618
1569.10378 1.13980
1567.05534 1.14357
1565.00691 1.14343
1562.95847 1.14042
1560.91003 1.13507
1558.86159 1.13553
1556.81315 1.14271
1554.76471 1.14370
1552.71628 1.14251
1550.66784 1.14012
1548.61940 1.13711
1546.57096 1.13330
1544.52252 1.12896
1542.47408 1.12479
1540.42565 1.12332
1538.37721 1.12359
1536.32877 1.11959
1534.28033 1.11408
1532.23189 1.10951
1530.18345 1.10382
1528.13501 1.09626
1526.08658 1.08892
1524.03814 1.08271
1521.98970 1.07875
1519.94126 1.07851
1517.89282 1.07886
1515.84438 1.07950
1513.79595 1.07921
1511.74751 1.07739
1509.69907 1.07452
1507.65063 1.07434
1505.60219 1.08074
1503.55375 1.08084
1501.50532 1.07704
1499.45688 1.07382
1497.40844 1.07336
1495.36000 1.07383
1493.31156 1.07181
1491.26312 1.06962
1489.21469 1.07226
1487.16625 1.07767
1485.11781 1.08128
1483.06937 1.08504
1481.02093 1.09003
1478.97249 1.09357
1476.92406 1.09450
1474.87562 1.09546
1472.82718 1.10018
1470.77874 1.10585
1468.73030 1.10743
1466.68186 1.10820
1464.63343 1.11138
1462.58499 1.11368
1460.53655 1.11214
1458.48811 1.10970
1456.43967 1.11151
1454.39123 1.11383
1452.34280 1.11486
1450.29436 1.11626
1448.24592 1.11756
1446.19748 1.11744
1444.14904 1.11598
1442.10060 1.11468
1440.05217 1.11324
1438.00373 1.11139
1435.95529 1.11040
1433.90685 1.10815
1431.85841 1.10339
1429.80997 1.09747
1427.76154 1.09174
1425.71310 1.08665
1423.66466 1.08186
1421.61622 1.07697
1419.56778 1.07296
1417.51934 1.07206
1415.47091 1.07172
1413.42247 1.07010
1411.37403 1.06849
1409.32559 1.06789
1407.27715 1.06827
1405.22871 1.06949
1403.18028 1.07004
1401.13184 1.06895
1399.08340 1.06774
1397.03496 1.06638
1394.98652 1.06514
1392.93808 1.06511
1390.88965 1.06468
1388.84121 1.06448
1386.79277 1.06732
1384.74433 1.07131
1382.69589 1.07349
1380.64745 1.07438
1378.59901 1.07432
1376.55058 1.07368
1374.50214 1.07466
1372.45370 1.07800
1370.40526 1.08107
1368.35682 1.08318
1366.30838 1.08393
1364.25995 1.08383
1362.21151 1.08515
1360.16307 1.08673
1358.11463 1.08680
1356.06619 1.08695
1354.01775 1.08861
1351.96932 1.09087
1349.92088 1.09262
1347.87244 1.09417
1345.82400 1.09582
1343.77556 1.09686
1341.72712 1.09695
1339.67869 1.09670
1337.63025 1.09580
1335.58181 1.09409
1333.53337 1.09260
1331.48493 1.09095
1329.43649 1.08717
1327.38806 1.08073
1325.33962 1.07404
1323.29118 1.06952
1321.24274 1.06698
1319.19430 1.06534
1317.14586 1.06426
1315.09743 1.06338
1313.04899 1.06172
1311.00055 1.05847
1308.95211 1.05457
1306.90367 1.05128
1304.85523 1.04798
1302.80680 1.04403
1300.75836 1.04015
1298.70992 1.03753
1296.66148 1.03661
1294.61304 1.03665
1292.56460 1.03727
1290.51617 1.03888
1288.46773 1.04131
1286.41929 1.04421
1284.37085 1.04763
1282.32241 1.05111
1280.27397 1.05358
1278.22554 1.05462
1276.17710 1.05508
1274.12866 1.05595
1272.08022 1.05778
1270.03178 1.06122
1267.98334 1.06630
1265.93491 1.07139
1263.88647 1.07424
1261.83803 1.07392
1259.78959 1.07197
1257.74115 1.07143
1255.69271 1.07309
1253.64428 1.07492
1251.59584 1.07574
1249.54740 1.07665
1247.49896 1.07836
1245.45052 1.07988
1243.40208 1.08095
1241.35364 1.08252
1239.30521 1.08451
1237.25677 1.08620
1235.20833 1.08767
1233.15989 1.08972
1231.11145 1.09282
1229.06301 1.09677
1227.01458 1.10073
1224.96614 1.10427
1222.91770 1.10804
1220.86926 1.11242
1218.82082 1.11659
1216.77238 1.11951
1214.72395 1.12121
1212.67551 1.12229
1210.62707 1.12247
1208.57863 1.12107
1206.53019 1.11861
1204.48175 1.11613
1202.43332 1.11420
1200.38488 1.11368
1198.33644 1.11549
1196.28800 1.11993
1194.23956 1.12634
1192.19112 1.13276
1190.14269 1.13672
1188.09425 1.13692
1186.04581 1.13339
1183.99737 1.12771
1181.94893 1.12253
1179.90049 1.11865
1177.85206 1.11511
1175.80362 1.11276
1173.75518 1.11390
1171.70674 1.11793
1169.65830 1.12220
1167.60986 1.12670
1165.56143 1.13284
1163.51299 1.14035
1161.46455 1.14699
1159.41611 1.14991
1157.36767 1.14844
1155.31923 1.14449
1153.27080 1.14019
1151.22236 1.13625
1149.17392 1.13180
1147.12548 1.12697
1145.07704 1.12422
1143.02860 1.12549
1140.98017 1.12981
1138.93173 1.13450
1136.88329 1.13798
1134.83485 1.14005
1132.78641 1.14045
1130.73797 1.13941
1128.68954 1.13845
1126.64110 1.13928
1124.59266 1.14169
1122.54422 1.14361
1120.49578 1.14324
1118.44734 1.14015
1116.39891 1.13605
1114.35047 1.13323
1112.30203 1.13310
1110.25359 1.13705
1108.20515 1.14509
1106.15671 1.15389
1104.10827 1.15911
1102.05984 1.15988
1100.01140 1.15933
1097.96296 1.16044
1095.91452 1.16353
1093.86608 1.16781
1091.81764 1.17202
1089.76921 1.17454
1087.72077 1.17548
1085.67233 1.17620
1083.62389 1.17573
1081.57545 1.17160
1079.52701 1.16471
1077.47858 1.15886
1075.43014 1.15694
1073.38170 1.15929
1071.33326 1.16372
1069.28482 1.16760
1067.23638 1.16937
1065.18795 1.16792
1063.13951 1.16464
1061.09107 1.16235
1059.04263 1.16029
1056.99419 1.15572
1054.94575 1.14903
1052.89732 1.14309
1050.84888 1.14015
1048.80044 1.13967
1046.75200 1.13907
1044.70356 1.13756
1042.65512 1.13656
1040.60669 1.13630
1038.55825 1.13516
1036.50981 1.13264
1034.46137 1.12974
1032.41293 1.12702
1030.36449 1.12434
1028.31606 1.12150
1026.26762 1.11921
1024.21918 1.11869
1022.17074 1.11896
1020.12230 1.11737
1018.07386 1.11344
1016.02543 1.10817
1013.97699 1.10177
1011.92855 1.09509
1009.88011 1.09056
1007.83167 1.08876
1005.78323 1.08759
1003.73480 1.08585
1001.68636 1.08448
999.63792 1.08401
997.58948 1.08363
995.54104 1.08358
993.49260 1.08532
991.44417 1.08846
989.39573 1.09063
987.34729 1.09058
985.29885 1.08993
983.25041 1.09133
981.20197 1.09488
979.15354 1.09872
977.10510 1.10263
975.05666 1.10694
973.00822 1.11156
970.95978 1.11649
968.91134 1.12096
966.86290 1.12461
964.81447 1.12794
962.76603 1.13104
960.71759 1.13433
958.66915 1.13787
956.62071 1.14011
954.57227 1.13986
952.52384 1.13779
950.47540 1.13529
948.42696 1.13205
946.37852 1.12615
944.33008 1.11832
942.28164 1.11257
940.23321 1.11018
938.18477 1.10952
936.13633 1.10986
934.08789 1.11155
932.03945 1.11491
929.99101 1.11793
927.94258 1.11745
925.89414 1.11292
923.84570 1.10576
921.79726 1.09651
919.74882 1.08479
917.70038 1.07157
915.65195 1.05943
913.60351 1.04989
911.55507 1.04301
909.50663 1.03886
907.45819 1.03728
905.40975 1.03757
903.36132 1.03869
901.31288 1.03986
899.26444 1.04147
897.21600 1.04403
895.16756 1.04657
893.11912 1.04773
891.07069 1.04762
889.02225 1.04773
886.97381 1.04888
884.92537 1.05088
882.87693 1.05411
880.82849 1.06047
878.78006 1.07073
876.73162 1.08219
874.68318 1.09111
872.63474 1.09596
870.58630 1.09970
868.53786 1.10677
866.48943 1.11639
864.44099 1.12460
862.39255 1.13136
860.34411 1.14000
858.29567 1.15221
856.24723 1.16569
854.19880 1.17789
852.15036 1.19038
850.10192 1.20414
848.05348 1.21515
846.00504 1.21999
843.95660 1.21916
841.90817 1.21524
839.85973 1.21181
837.81129 1.20959
835.76285 1.20661
833.71441 1.20166
831.66597 1.19437
829.61753 1.18632
827.56910 1.18003
825.52066 1.17440
823.47222 1.16505
821.42378 1.14973
819.37534 1.13071
817.32690 1.11246
815.27847 1.09912
813.23003 1.09319
811.18159 1.09440
809.13315 1.09952
807.08471 1.10520
805.03627 1.10892
802.98784 1.10811
800.93940 1.10317
798.89096 1.09688
796.84252 1.09046
794.79408 1.08541
792.74564 1.08232
790.69721 1.07826
788.64877 1.07264
786.60033 1.07036
784.55189 1.07458
782.50345 1.08221
780.45501 1.08898
778.40658 1.09396
776.35814 1.09876
774.30970 1.10431
772.26126 1.11041
770.21282 1.11873
768.16438 1.12982
766.11595 1.14020
764.06751 1.14756
762.01907 1.15377
759.97063 1.16195
757.92219 1.17482
755.87375 1.19298
753.82532 1.21489
751.77688 1.23721
749.72844 1.25538
747.68000 1.26983
745.63156 1.28635
743.58312 1.30752
741.53469 1.33000
739.48625 1.35146
737.43781 1.37225
735.38937 1.38781
733.34093 1.39307
731.29249 1.39122
729.24406 1.38627
727.19562 1.37789
725.14718 1.36431
723.09874 1.34555
721.05030 1.32419
719.00186 1.30458
716.95343 1.29155
714.90499 1.28564
712.85655 1.28490
710.80811 1.28622
708.75967 1.28520
706.71123 1.28078
704.66280 1.27463
702.61436 1.27007
700.56592 1.27039
698.51748 1.27375
696.46904 1.27527
694.42060 1.27376
692.37216 1.27051
690.32373 1.26395
688.27529 1.25421
686.22685 1.24456
684.17841 1.23611
682.12997 1.23111
680.08153 1.23436
678.03310 1.24876
675.98466 1.26900
673.93622 1.28273
671.88778 1.28526
669.83934 1.28127
667.79090 1.27814
665.74247 1.28228
663.69403 1.28897
661.64559 1.29765
659.59715 1.30847
657.54871 1.31862
655.50027 1.32703
653.45184 1.33787
651.40340 1.35636
649.35496 1.37818
647.30652 1.39049
645.25808 1.39503
643.20964 1.39955
641.16121 1.39856
639.11277 1.39045
637.06433 1.38039
635.01589 1.36436
632.96745 1.34216
630.91901 1.32457
628.87058 1.31508
626.82214 1.31170
624.77370 1.31445
622.72526 1.31623
620.67682 1.30775
618.62838 1.29057
616.57995 1.26520
614.53151 1.23851
612.48307 1.22231
610.43463 1.21477
608.38619 1.20692
606.33775 1.19103
604.28932 1.17120
602.24088 1.15491
600.19244 1.13860
598.14400 1.12395
