3996.50324 1.30228
3994.45480 1.30256
3992.40636 1.30285
3990.35792 1.30349
3988.30948 1.30385
3986.26104 1.30364
3984.21261 1.30391
3982.16417 1.30456
3980.11573 1.30461
3978.06729 1.30376
3976.01885 1.30273
3973.97041 1.30267
3971.92198 1.30337
3969.87354 1.30421
3967.82510 1.30501
3965.77666 1.30522
3963.72822 1.30478
3961.67978 1.30473
3959.63135 1.30524
3957.58291 1.30532
3955.53447 1.30493
3953.48603 1.30440
3951.43759 1.30350
3949.38915 1.30320
3947.34072 1.30452
3945.29228 1.30529
3943.24384 1.30560
3941.19540 1.30698
3939.14696 1.30771
3937.09852 1.30658
3935.05009 1.30423
3933.00165 1.30332
3930.95321 1.30561
3928.90477 1.30704
3926.85633 1.30537
3924.80789 1.30421
3922.75946 1.30509
3920.71102 1.30529
3918.66258 1.30505
3916.61414 1.30596
3914.56570 1.30709
3912.51726 1.30713
3910.46883 1.30641
3908.42039 1.30447
3906.37195 1.30090
3904.32351 1.29849
3902.27507 1.29996
3900.22663 1.30382
3898.17820 1.30701
3896.12976 1.30625
3894.08132 1.30287
3892.03288 1.30179
3889.98444 1.30320
3887.93600 1.30164
3885.88756 1.30000
3883.83913 1.30136
3881.79069 1.30192
3879.74225 1.30346
3877.69381 1.30424
3875.64537 1.30184
3873.59693 1.29930
3871.54850 1.29862
3869.50006 1.30104
3867.45162 1.30195
3865.40318 1.29938
3863.35474 1.29951
3861.30630 1.30169
3859.25787 1.30088
3857.20943 1.29666
3855.16099 1.29119
3853.11255 1.29442
3851.06411 1.30304
3849.01567 1.30446
3846.96724 1.30257
3844.91880 1.30015
3842.87036 1.29795
3840.82192 1.29551
3838.77348 1.29504
3836.72504 1.29849
3834.67661 1.30123
3832.62817 1.30333
3830.57973 1.30534
3828.53129 1.30449
3826.48285 1.30198
3824.43441 1.29907
3822.38598 1.29665
3820.33754 1.29913
3818.28910 1.30041
3816.24066 1.30039
3814.19222 1.30346
3812.14378 1.30380
3810.09535 1.30098
3808.04691 1.29896
3805.99847 1.29934
3803.95003 1.29731
3801.90159 1.29582
3799.85315 1.29893
3797.80472 1.30001
3795.75628 1.30077
3793.70784 1.30195
3791.65940 1.30196
3789.61096 1.30167
3787.56252 1.30057
3785.51409 1.29987
3783.46565 1.30103
3781.41721 1.30149
3779.36877 1.30176
3777.32033 1.30307
3775.27189 1.30305
3773.22346 1.30125
3771.17502 1.29952
3769.12658 1.30030
3767.07814 1.30172
3765.02970 1.30238
3762.98126 1.30169
3760.93283 1.29945
3758.88439 1.29950
3756.83595 1.30079
3754.78751 1.29811
3752.73907 1.29362
3750.69063 1.29573
3748.64219 1.30066
3746.59376 1.29989
3744.54532 1.30145
3742.49688 1.30520
3740.44844 1.30331
3738.40000 1.29783
3736.35156 1.29376
3734.30313 1.29877
3732.25469 1.30665
3730.20625 1.30768
3728.15781 1.30476
3726.10937 1.30271
3724.06093 1.30298
3722.01250 1.30473
3719.96406 1.30749
3717.91562 1.30894
3715.86718 1.30722
3713.81874 1.30303
3711.77030 1.30094
3709.72187 1.30439
3707.67343 1.30709
3705.62499 1.30682
3703.57655 1.30559
3701.52811 1.30616
3699.47967 1.30725
3697.43124 1.30714
3695.38280 1.30647
3693.33436 1.30440
3691.28592 1.30223
3689.23748 1.30539
3687.18904 1.31176
3685.14061 1.31451
3683.09217 1.31426
3681.04373 1.31238
3678.99529 1.30902
3676.94685 1.30600
3674.89841 1.30910
3672.84998 1.31103
3670.80154 1.30981
3668.75310 1.31387
3666.70466 1.31771
3664.65622 1.31794
3662.60778 1.31781
3660.55935 1.31807
3658.51091 1.31753
3656.46247 1.31776
3654.41403 1.31785
3652.36559 1.31368
3650.31715 1.30915
3648.26872 1.31492
3646.22028 1.32223
3644.17184 1.32375
3642.12340 1.32379
3640.07496 1.32376
3638.02652 1.32282
3635.97809 1.32186
3633.92965 1.32128
3631.88121 1.31919
3629.83277 1.31730
3627.78433 1.32222
3625.73589 1.32666
3623.68746 1.32651
3621.63902 1.32454
3619.59058 1.32380
3617.54214 1.32576
3615.49370 1.32645
3613.44526 1.32671
3611.39682 1.32792
3609.34839 1.32883
3607.29995 1.33079
3605.25151 1.33257
3603.20307 1.33258
3601.15463 1.33264
3599.10619 1.33348
3597.05776 1.33418
3595.00932 1.33581
3592.96088 1.33836
3590.91244 1.33887
3588.86400 1.33827
3586.81556 1.34189
3584.76713 1.34635
3582.71869 1.34647
3580.67025 1.34507
3578.62181 1.34476
3576.57337 1.34517
3574.52493 1.34549
3572.47650 1.34469
3570.42806 1.34187
3568.37962 1.33992
3566.33118 1.34362
3564.28274 1.34812
3562.23430 1.34953
3560.18587 1.35053
3558.13743 1.35199
3556.08899 1.35247
3554.04055 1.35186
3551.99211 1.35169
3549.94367 1.35135
3547.89524 1.35014
3545.84680 1.35041
3543.79836 1.35262
3541.74992 1.35438
3539.70148 1.35509
3537.65304 1.35537
3535.60461 1.35603
3533.55617 1.35691
3531.50773 1.35732
3529.45929 1.35763
3527.41085 1.35837
3525.36241 1.35901
3523.31398 1.35961
3521.26554 1.36061
3519.21710 1.36151
3517.16866 1.36215
3515.12022 1.36240
3513.07178 1.36221
3511.02335 1.36201
3508.97491 1.36259
3506.92647 1.36381
3504.87803 1.36463
3502.82959 1.36582
3500.78115 1.36797
3498.73272 1.36934
3496.68428 1.36948
3494.63584 1.36970
3492.58740 1.37073
3490.53896 1.37189
3488.49052 1.37261
3486.44209 1.37311
3484.39365 1.37340
3482.34521 1.37380
3480.29677 1.37432
3478.24833 1.37395
3476.19989 1.37351
3474.15146 1.37410
3472.10302 1.37446
3470.05458 1.37399
3468.00614 1.37376
3465.95770 1.37396
3463.90926 1.37450
3461.86082 1.37582
3459.81239 1.37723
3457.76395 1.37782
3455.71551 1.37827
3453.66707 1.37876
3451.61863 1.37864
3449.57019 1.37804
3447.52176 1.37765
3445.47332 1.37774
3443.42488 1.37781
3441.37644 1.37814
3439.32800 1.37883
3437.27956 1.37928
3435.23113 1.37976
3433.18269 1.38040
3431.13425 1.38039
3429.08581 1.37983
3427.03737 1.37962
3424.98893 1.38005
3422.94050 1.38059
3420.89206 1.38112
3418.84362 1.38212
3416.79518 1.38297
3414.74674 1.38308
3412.69830 1.38364
3410.64987 1.38532
3408.60143 1.38657
3406.55299 1.38637
3404.50455 1.38582
3402.45611 1.38581
3400.40767 1.38607
3398.35924 1.38664
3396.31080 1.38734
3394.26236 1.38723
3392.21392 1.38705
3390.16548 1.38771
3388.11704 1.38783
3386.06861 1.38671
3384.02017 1.38588
3381.97173 1.38624
3379.92329 1.38688
3377.87485 1.38700
3375.82641 1.38678
3373.77798 1.38639
3371.72954 1.38564
3369.68110 1.38517
3367.63266 1.38566
3365.58422 1.38674
3363.53578 1.38736
3361.48735 1.38735
3359.43891 1.38729
3357.39047 1.38698
3355.34203 1.38665
3353.29359 1.38703
3351.24515 1.38770
3349.19672 1.38781
3347.14828 1.38796
3345.09984 1.38892
3343.05140 1.39000
3341.00296 1.39064
3338.95452 1.39091
3336.90609 1.39113
3334.85765 1.39137
3332.80921 1.39141
3330.76077 1.39164
3328.71233 1.39185
3326.66389 1.39148
3324.61545 1.39117
3322.56702 1.39114
3320.51858 1.39060
3318.47014 1.38997
3316.42170 1.38985
3314.37326 1.39007
3312.32482 1.39070
3310.27639 1.39139
3308.22795 1.39166
3306.17951 1.39176
3304.13107 1.39193
3302.08263 1.39192
3300.03419 1.39133
3297.98576 1.39052
3295.93732 1.39011
3293.88888 1.38983
3291.84044 1.38929
3289.79200 1.38896
3287.74356 1.38911
3285.69513 1.38942
3283.64669 1.38967
3281.59825 1.38974
3279.54981 1.38950
3277.50137 1.38905
3275.45293 1.38872
3273.40450 1.38821
3271.35606 1.38776
3269.30762 1.38825
3267.25918 1.38899
3265.21074 1.38892
3263.16230 1.38855
3261.11387 1.38856
3259.06543 1.38880
3257.01699 1.38897
3254.96855 1.38885
3252.92011 1.38858
3250.87167 1.38824
3248.82324 1.38776
3246.77480 1.38758
3244.72636 1.38761
3242.67792 1.38765
3240.62948 1.38786
3238.58104 1.38785
3236.53261 1.38726
3234.48417 1.38686
3232.43573 1.38707
3230.38729 1.38657
3228.33885 1.38525
3226.29041 1.38504
3224.24198 1.38580
3222.19354 1.38565
3220.14510 1.38454
3218.09666 1.38356
3216.04822 1.38301
3213.99978 1.38264
3211.95135 1.38215
3209.90291 1.38147
3207.85447 1.38123
3205.80603 1.38152
3203.75759 1.38129
3201.70915 1.38001
3199.66072 1.37869
3197.61228 1.37826
3195.56384 1.37848
3193.51540 1.37830
3191.46696 1.37730
3189.41852 1.37637
3187.37008 1.37552
3185.32165 1.37446
3183.27321 1.37368
3181.22477 1.37294
3179.17633 1.37231
3177.12789 1.37244
3175.07945 1.37305
3173.03102 1.37331
3170.98258 1.37272
3168.93414 1.37174
3166.88570 1.37139
3164.83726 1.37195
3162.78882 1.37287
3160.74039 1.37334
3158.69195 1.37298
3156.64351 1.37208
3154.59507 1.37107
3152.54663 1.37019
3150.49819 1.36969
3148.44976 1.36950
3146.40132 1.36946
3144.35288 1.37011
3142.30444 1.37128
3140.25600 1.37193
3138.20756 1.37176
3136.15913 1.37106
3134.11069 1.37044
3132.06225 1.37070
3130.01381 1.37126
3127.96537 1.37139
3125.91693 1.37158
3123.86850 1.37179
3121.82006 1.37202
3119.77162 1.37242
3117.72318 1.37235
3115.67474 1.37170
3113.62630 1.37100
3111.57787 1.37043
3109.52943 1.37007
3107.48099 1.36979
3105.43255 1.36923
3103.38411 1.36875
3101.33567 1.36893
3099.28724 1.36915
3097.23880 1.36903
3095.19036 1.36909
3093.14192 1.36891
3091.09348 1.36847
3089.04504 1.36832
3086.99661 1.36821
3084.94817 1.36788
3082.89973 1.36753
3080.85129 1.36732
3078.80285 1.36734
3076.75441 1.36752
3074.70598 1.36776
3072.65754 1.36791
3070.60910 1.36766
3068.56066 1.36742
3066.51222 1.36769
3064.46378 1.36802
3062.41535 1.36821
3060.36691 1.36821
3058.31847 1.36796
3056.27003 1.36784
3054.22159 1.36808
3052.17315 1.36859
3050.12471 1.36926
3048.07628 1.36957
3046.02784 1.36925
3043.97940 1.36887
3041.93096 1.36887
3039.88252 1.36930
3037.83408 1.36986
3035.78565 1.37037
3033.73721 1.37110
3031.68877 1.37203
3029.64033 1.37281
3027.59189 1.37320
3025.54345 1.37303
3023.49502 1.37295
3021.44658 1.37381
3019.39814 1.37528
3017.34970 1.37671
3015.30126 1.37795
3013.25282 1.37877
3011.20439 1.37921
3009.15595 1.37980
3007.10751 1.38038
3005.05907 1.38071
3003.01063 1.38103
3000.96219 1.38128
2998.91376 1.38145
2996.86532 1.38184
2994.81688 1.38245
2992.76844 1.38282
2990.72000 1.38261
2988.67156 1.38256
2986.62313 1.38368
2984.57469 1.38577
2982.52625 1.38786
2980.47781 1.38974
2978.42937 1.39192
2976.38093 1.39453
2974.33250 1.39708
2972.28406 1.39972
2970.23562 1.40310
2968.18718 1.40712
2966.13874 1.41125
2964.09030 1.41510
2962.04187 1.41862
2959.99343 1.42207
2957.94499 1.42497
2955.89655 1.42706
2953.84811 1.42844
2951.79967 1.42876
2949.75124 1.42877
2947.70280 1.42948
2945.65436 1.43109
2943.60592 1.43365
2941.55748 1.43704
2939.50904 1.44135
2937.46061 1.44662
2935.41217 1.45255
2933.36373 1.45885
2931.31529 1.46487
2929.26685 1.46991
2927.21841 1.47377
2925.16998 1.47592
2923.12154 1.47644
2921.07310 1.47555
2919.02466 1.47247
2916.97622 1.46705
2914.92778 1.45981
2912.87934 1.45168
2910.83091 1.44408
2908.78247 1.43786
2906.73403 1.43333
2904.68559 1.43014
2902.63715 1.42733
2900.58871 1.42459
2898.54028 1.42174
2896.49184 1.41857
2894.44340 1.41553
2892.39496 1.41287
2890.34652 1.41074
2888.29808 1.40920
2886.24965 1.40786
2884.20121 1.40671
2882.15277 1.40606
2880.10433 1.40568
2878.05589 1.40509
2876.00745 1.40479
2873.95902 1.40532
2871.91058 1.40634
2869.86214 1.40751
2867.81370 1.40855
2865.76526 1.40977
2863.71682 1.41241
2861.66839 1.41687
2859.61995 1.42217
2857.57151 1.42720
2855.52307 1.43154
2853.47463 1.43486
2851.42619 1.43556
2849.37776 1.43204
2847.32932 1.42439
2845.28088 1.41465
2843.23244 1.40550
2841.18400 1.39814
2839.13556 1.39235
2837.08713 1.38747
2835.03869 1.38364
2832.99025 1.38129
2830.94181 1.37937
2828.89337 1.37710
2826.84493 1.37456
2824.79650 1.37198
2822.74806 1.37026
2820.69962 1.36931
2818.65118 1.36818
2816.60274 1.36721
2814.55430 1.36696
2812.50587 1.36729
2810.45743 1.36787
2808.40899 1.36795
2806.36055 1.36675
2804.31211 1.36503
2802.26367 1.36410
2800.21524 1.36372
2798.16680 1.36363
2796.11836 1.36372
2794.06992 1.36339
2792.02148 1.36275
2789.97304 1.36227
2787.92461 1.36198
2785.87617 1.36158
2783.82773 1.36099
2781.77929 1.36048
2779.73085 1.36042
2777.68241 1.36081
2775.63397 1.36100
2773.58554 1.36084
2771.53710 1.36094
2769.48866 1.36108
2767.44022 1.36093
2765.39178 1.36067
2763.34334 1.36027
2761.29491 1.36004
2759.24647 1.36027
2757.19803 1.36059
2755.14959 1.36079
2753.10115 1.36083
2751.05271 1.36051
2749.00428 1.36034
2746.95584 1.36089
2744.90740 1.36145
2742.85896 1.36159
2740.81052 1.36177
2738.76208 1.36193
2736.71365 1.36188
2734.66521 1.36179
2732.61677 1.36165
2730.56833 1.36140
2728.51989 1.36096
2726.47145 1.36035
2724.42302 1.35975
2722.37458 1.35926
2720.32614 1.35873
2718.27770 1.35827
2716.22926 1.35833
2714.18082 1.35843
2712.13239 1.35781
2710.08395 1.35702
2708.03551 1.35677
2705.98707 1.35682
2703.93863 1.35700
2701.89019 1.35705
2699.84176 1.35662
2697.79332 1.35665
2695.74488 1.35726
2693.69644 1.35751
2691.64800 1.35730
2689.59956 1.35697
2687.55113 1.35669
2685.50269 1.35639
2683.45425 1.35599
2681.40581 1.35569
2679.35737 1.35573
2677.30893 1.35600
2675.26050 1.35574
2673.21206 1.35451
2671.16362 1.35320
2669.11518 1.35269
2667.06674 1.35262
2665.01830 1.35238
2662.96987 1.35212
2660.92143 1.35249
2658.87299 1.35353
2656.82455 1.35440
2654.77611 1.35447
2652.72767 1.35404
2650.67924 1.35407
2648.63080 1.35486
2646.58236 1.35545
2644.53392 1.35516
2642.48548 1.35446
2640.43704 1.35386
2638.38860 1.35318
2636.34017 1.35218
2634.29173 1.35121
2632.24329 1.35076
2630.19485 1.35066
2628.14641 1.35068
2626.09797 1.35114
2624.04954 1.35196
2622.00110 1.35236
2619.95266 1.35222
2617.90422 1.35217
2615.85578 1.35237
2613.80734 1.35258
2611.75891 1.35272
2609.71047 1.35280
2607.66203 1.35260
2605.61359 1.35200
2603.56515 1.35135
2601.51671 1.35126
2599.46828 1.35176
2597.41984 1.35200
2595.37140 1.35185
2593.32296 1.35196
2591.27452 1.35204
2589.22608 1.35157
2587.17765 1.35107
2585.12921 1.35083
2583.08077 1.35064
2581.03233 1.35039
2578.98389 1.35008
2576.93545 1.35002
2574.88702 1.35023
2572.83858 1.34979
2570.79014 1.34857
2568.74170 1.34773
2566.69326 1.34755
2564.64482 1.34741
2562.59639 1.34739
2560.54795 1.34792
2558.49951 1.34855
2556.45107 1.34891
2554.40263 1.34909
2552.35419 1.34897
2550.30576 1.34875
2548.25732 1.34856
2546.20888 1.34818
2544.16044 1.34781
2542.11200 1.34766
2540.06356 1.34786
2538.01513 1.34855
2535.96669 1.34924
2533.91825 1.34983
2531.86981 1.35086
2529.82137 1.35198
2527.77293 1.35274
2525.72450 1.35347
2523.67606 1.35434
2521.62762 1.35501
2519.57918 1.35498
2517.53074 1.35453
2515.48230 1.35467
2513.43387 1.35528
2511.38543 1.35565
2509.33699 1.35576
2507.28855 1.35577
2505.24011 1.35565
2503.19167 1.35530
2501.14324 1.35455
2499.09480 1.35377
2497.04636 1.35381
2494.99792 1.35466
2492.94948 1.35572
2490.90104 1.35691
2488.85260 1.35839
2486.80417 1.35960
2484.75573 1.36002
2482.70729 1.35980
2480.65885 1.35903
2478.61041 1.35821
2476.56197 1.35804
2474.51354 1.35829
2472.46510 1.35805
2470.41666 1.35728
2468.36822 1.35713
2466.31978 1.35772
2464.27134 1.35808
2462.22291 1.35833
2460.17447 1.35901
2458.12603 1.36001
2456.07759 1.36070
2454.02915 1.36016
2451.98071 1.35845
2449.93228 1.35701
2447.88384 1.35699
2445.83540 1.35820
2443.78696 1.35980
2441.73852 1.36169
2439.69008 1.36471
2437.64165 1.36891
2435.59321 1.37353
2433.54477 1.37804
2431.49633 1.38239
2429.44789 1.38612
2427.39945 1.38730
2425.35102 1.38475
2423.30258 1.37977
2421.25414 1.37418
2419.20570 1.36911
2417.15726 1.36519
2415.10882 1.36259
2413.06039 1.36106
2411.01195 1.36003
2408.96351 1.35887
2406.91507 1.35737
2404.86663 1.35619
2402.81819 1.35570
2400.76976 1.35560
2398.72132 1.35581
2396.67288 1.35630
2394.62444 1.35674
2392.57600 1.35679
2390.52756 1.35658
2388.47913 1.35628
2386.43069 1.35559
2384.38225 1.35414
2382.33381 1.35206
2380.28537 1.35004
2378.23693 1.34827
2376.18850 1.34628
2374.14006 1.34413
2372.09162 1.34188
2370.04318 1.33972
2367.99474 1.33860
2365.94630 1.33817
2363.89787 1.33649
2361.84943 1.33409
2359.80099 1.33297
2357.75255 1.33306
2355.70411 1.33571
2353.65567 1.34148
2351.60723 1.34648
2349.55880 1.34795
2347.51036 1.34657
2345.46192 1.34392
2343.41348 1.34198
2341.36504 1.34223
2339.31660 1.34355
2337.26817 1.34379
2335.21973 1.34379
2333.17129 1.34395
2331.12285 1.34285
2329.07441 1.34197
2327.02597 1.34296
2324.97754 1.34364
2322.92910 1.34336
2320.88066 1.34454
2318.83222 1.34681
2316.78378 1.34768
2314.73534 1.34703
2312.68691 1.34624
2310.63847 1.34580
2308.59003 1.34553
2306.54159 1.34546
2304.49315 1.34551
2302.44471 1.34566
2300.39628 1.34612
2298.34784 1.34687
2296.29940 1.34781
2294.25096 1.34873
2292.20252 1.34946
2290.15408 1.35009
2288.10565 1.35067
2286.05721 1.35130
2284.00877 1.35165
2281.96033 1.35142
2279.91189 1.35112
2277.86345 1.35082
2275.81502 1.35028
2273.76658 1.35004
2271.71814 1.35025
2269.66970 1.35041
2267.62126 1.35025
2265.57282 1.34972
2263.52439 1.34902
2261.47595 1.34848
2259.42751 1.34847
2257.37907 1.34927
2255.33063 1.35062
2253.28219 1.35193
2251.23376 1.35273
2249.18532 1.35288
2247.13688 1.35240
2245.08844 1.35193
2243.04000 1.35219
2240.99156 1.35263
2238.94313 1.35251
2236.89469 1.35242
2234.84625 1.35276
2232.79781 1.35260
2230.74937 1.35140
2228.70093 1.34995
2226.65250 1.34935
2224.60406 1.35011
2222.55562 1.35140
2220.50718 1.35224
2218.45874 1.35304
2216.41030 1.35412
2214.36186 1.35466
2212.31343 1.35467
2210.26499 1.35509
2208.21655 1.35556
2206.16811 1.35511
2204.11967 1.35407
2202.07123 1.35342
2200.02280 1.35330
2197.97436 1.35312
2195.92592 1.35300
2193.87748 1.35340
2191.82904 1.35379
2189.78060 1.35370
2187.73217 1.35377
2185.68373 1.35432
2183.63529 1.35478
2181.58685 1.35495
2179.53841 1.35507
2177.48997 1.35508
2175.44154 1.35491
2173.39310 1.35470
2171.34466 1.35441
2169.29622 1.35400
2167.24778 1.35349
2165.19934 1.35303
2163.15091 1.35266
2161.10247 1.35246
2159.05403 1.35280
2157.00559 1.35338
2154.95715 1.35333
2152.90871 1.35253
2150.86028 1.35143
2148.81184 1.35037
2146.76340 1.34943
2144.71496 1.34860
2142.66652 1.34827
2140.61808 1.34901
2138.56965 1.35048
2136.52121 1.35169
2134.47277 1.35185
2132.42433 1.35107
2130.37589 1.35065
2128.32745 1.35068
2126.27902 1.35011
2124.23058 1.34926
2122.18214 1.34868
2120.13370 1.34842
2118.08526 1.34869
2116.03682 1.34937
2113.98839 1.34996
2111.93995 1.34997
2109.89151 1.34929
2107.84307 1.34877
2105.79463 1.34888
2103.74619 1.34887
2101.69776 1.34881
2099.64932 1.34895
2097.60088 1.34888
2095.55244 1.34877
2093.50400 1.34893
2091.45556 1.34902
2089.40713 1.34890
2087.35869 1.34884
2085.31025 1.34888
2083.26181 1.34875
2081.21337 1.34854
2079.16493 1.34836
2077.11649 1.34788
2075.06806 1.34756
2073.01962 1.34817
2070.97118 1.34933
2068.92274 1.35047
2066.87430 1.35136
2064.82586 1.35223
2062.77743 1.35336
2060.72899 1.35425
2058.68055 1.35469
2056.63211 1.35445
2054.58367 1.35361
2052.53523 1.35268
2050.48680 1.35155
2048.43836 1.35051
2046.38992 1.35055
2044.34148 1.35170
2042.29304 1.35278
2040.24460 1.35300
2038.19617 1.35278
2036.14773 1.35301
2034.09929 1.35378
2032.05085 1.35459
2030.00241 1.35526
2027.95397 1.35544
2025.90554 1.35495
2023.85710 1.35447
2021.80866 1.35422
2019.76022 1.35322
2017.71178 1.35150
2015.66334 1.35042
2013.61491 1.34982
2011.56647 1.34915
2009.51803 1.34899
2007.46959 1.34952
2005.42115 1.35004
2003.37271 1.35016
2001.32428 1.35040
1999.27584 1.35091
1997.22740 1.35076
1995.17896 1.34941
1993.13052 1.34796
1991.08208 1.34781
1989.03365 1.34824
1986.98521 1.34879
1984.93677 1.34996
1982.88833 1.35128
1980.83989 1.35210
1978.79145 1.35240
1976.74302 1.35253
1974.69458 1.35278
1972.64614 1.35329
1970.59770 1.35362
1968.54926 1.35360
1966.50082 1.35437
1964.45239 1.35606
1962.40395 1.35759
1960.35551 1.35861
1958.30707 1.35922
1956.25863 1.35954
1954.21019 1.35963
1952.16176 1.35936
1950.11332 1.35846
1948.06488 1.35723
1946.01644 1.35615
1943.96800 1.35560
1941.91956 1.35661
1939.87112 1.35824
1937.82269 1.35879
1935.77425 1.35868
1933.72581 1.35854
1931.67737 1.35843
1929.62893 1.35831
1927.58049 1.35805
1925.53206 1.35701
1923.48362 1.35595
1921.43518 1.35586
1919.38674 1.35577
1917.33830 1.35627
1915.28986 1.35753
1913.24143 1.35786
1911.19299 1.35712
1909.14455 1.35650
1907.09611 1.35683
1905.04767 1.35749
1902.99923 1.35748
1900.95080 1.35697
1898.90236 1.35681
1896.85392 1.35685
1894.80548 1.35668
1892.75704 1.35601
1890.70860 1.35526
1888.66017 1.35630
1886.61173 1.35860
1884.56329 1.36085
1882.51485 1.36337
1880.46641 1.36540
1878.41797 1.36564
1876.36954 1.36446
1874.32110 1.36300
1872.27266 1.36048
1870.22422 1.35636
1868.17578 1.35433
1866.12734 1.35631
1864.07891 1.35811
1862.03047 1.35845
1859.98203 1.35850
1857.93359 1.35878
1855.88515 1.35929
1853.83671 1.36005
1851.78828 1.36063
1849.73984 1.36036
1847.69140 1.35892
1845.64296 1.35767
1843.59452 1.36007
1841.54608 1.36380
1839.49765 1.36489
1837.44921 1.36476
1835.40077 1.36464
1833.35233 1.36325
1831.30389 1.36038
1829.25545 1.35903
1827.20702 1.35959
1825.15858 1.36030
1823.11014 1.36161
1821.06170 1.36246
1819.01326 1.36258
1816.96482 1.36287
1814.91639 1.36326
1812.86795 1.36293
1810.81951 1.36290
1808.77107 1.36463
1806.72263 1.36625
1804.67419 1.36582
1802.62575 1.36447
1800.57732 1.36447
1798.52888 1.36476
1796.48044 1.36274
1794.43200 1.35918
1792.38356 1.35863
1790.33512 1.36334
1788.28669 1.36708
1786.23825 1.36840
1784.18981 1.36931
1782.14137 1.36981
1780.09293 1.36982
1778.04449 1.36946
1775.99606 1.36770
1773.94762 1.36509
1771.89918 1.36610
1769.85074 1.37093
1767.80230 1.37442
1765.75386 1.37586
1763.70543 1.37547
1761.65699 1.37576
1759.60855 1.37751
1757.56011 1.37930
1755.51167 1.38194
1753.46323 1.38355
1751.41480 1.38491
1749.36636 1.39061
1747.31792 1.39914
1745.26948 1.40621
1743.22104 1.41150
1741.17260 1.41582
1739.12417 1.41949
1737.07573 1.42015
1735.02729 1.41800
1732.97885 1.41778
1730.93041 1.41902
1728.88197 1.41978
1726.83354 1.42001
1724.78510 1.41907
1722.73666 1.41771
1720.68822 1.41529
1718.63978 1.41128
1716.59134 1.41044
1714.54291 1.41456
1712.49447 1.41768
1710.44603 1.41813
1708.39759 1.41603
1706.34915 1.41356
1704.30071 1.41240
1702.25228 1.40995
1700.20384 1.40640
1698.15540 1.40558
1696.10696 1.40830
1694.05852 1.41252
1692.01008 1.41403
1689.96165 1.41408
1687.91321 1.41304
1685.86477 1.40954
1683.81633 1.41043
1681.76789 1.41744
1679.71945 1.42034
1677.67102 1.41885
1675.62258 1.41547
1673.57414 1.41347
1671.52570 1.41260
1669.47726 1.41503
1667.42882 1.42027
1665.38038 1.42207
1663.33195 1.42297
1661.28351 1.42699
1659.23507 1.43032
1657.18663 1.42947
1655.13819 1.42509
1653.08975 1.42514
1651.04132 1.43085
1648.99288 1.43056
1646.94444 1.43097
1644.89600 1.43569
1642.84756 1.43811
1640.79912 1.43818
1638.75069 1.43617
1636.70225 1.43357
1634.65381 1.43598
1632.60537 1.43847
1630.55693 1.43765
1628.50849 1.43618
1626.46006 1.43538
1624.41162 1.43481
1622.36318 1.43516
1620.31474 1.43468
1618.26630 1.43224
1616.21786 1.43174
1614.16943 1.43338
1612.12099 1.43298
1610.07255 1.43130
1608.02411 1.43027
1605.97567 1.43032
1603.92723 1.43082
1601.87880 1.43167
1599.83036 1.43239
1597.78192 1.43188
1595.73348 1.43066
1593.68504 1.43035
1591.63660 1.43181
1589.58817 1.43518
1587.53973 1.43897
1585.49129 1.44083
1583.44285 1.44068
1581.39441 1.43953
1579.34597 1.43663
1577.29754 1.43213
1575.24910 1.43039
1573.20066 1.43018
1571.15222 1.42860
1569.10378 1.42863
1567.05534 1.42947
1565.00691 1.42837
1562.95847 1.42559
1560.91003 1.42045
1558.86159 1.41820
1556.81315 1.42448
1554.76471 1.42685
1552.71628 1.42765
1550.66784 1.42852
1548.61940 1.42848
1546.57096 1.42583
1544.52252 1.42088
1542.47408 1.41537
1540.42565 1.41353
1538.37721 1.41722
1536.32877 1.41724
1534.28033 1.41480
1532.23189 1.41374
1530.18345 1.41243
1528.13501 1.40867
1526.08658 1.40344
1524.03814 1.39809
1521.98970 1.39509
1519.94126 1.39658
1517.89282 1.39796
1515.84438 1.39910
1513.79595 1.39940
1511.74751 1.39674
1509.69907 1.39169
1507.65063 1.38969
1505.60219 1.39855
1503.55375 1.40363
1501.50532 1.40395
1499.45688 1.40298
1497.40844 1.40335
1495.36000 1.40580
1493.31156 1.40568
1491.26312 1.40254
1489.21469 1.40139
1487.16625 1.40489
1485.11781 1.40833
1483.06937 1.41042
1481.02093 1.41218
1478.97249 1.41373
1476.92406 1.41495
1474.87562 1.41718
1472.82718 1.42371
1470.77874 1.43242
1468.73030 1.43672
1466.68186 1.43845
1464.63343 1.44155
1462.58499 1.44461
1460.53655 1.44375
1458.48811 1.43904
1456.43967 1.43472
1454.39123 1.43346
1452.34280 1.43153
1450.29436 1.42918
1448.24592 1.42881
1446.19748 1.43141
1444.14904 1.43424
1442.10060 1.43541
1440.05217 1.43456
1438.00373 1.43262
1435.95529 1.43194
1433.90685 1.43165
1431.85841 1.43032
1429.80997 1.43025
1427.76154 1.43188
1425.71310 1.43316
1423.66466 1.43427
1421.61622 1.43480
1419.56778 1.43500
1417.51934 1.43750
1415.47091 1.43982
1413.42247 1.44022
1411.37403 1.44026
1409.32559 1.44083
1407.27715 1.44075
1405.22871 1.43920
1403.18028 1.43646
1401.13184 1.43259
1399.08340 1.42869
1397.03496 1.42781
1394.98652 1.43137
1392.93808 1.43590
1390.88965 1.43705
1388.84121 1.43601
1386.79277 1.43627
1384.74433 1.43822
1382.69589 1.43928
1380.64745 1.43805
1378.59901 1.43511
1376.55058 1.43250
1374.50214 1.43208
1372.45370 1.43345
1370.40526 1.43397
1368.35682 1.43399
1366.30838 1.43387
1364.25995 1.43199
1362.21151 1.42981
1360.16307 1.42921
1358.11463 1.42808
1356.06619 1.42584
1354.01775 1.42374
1351.96932 1.42285
1349.92088 1.42368
1347.87244 1.42593
1345.82400 1.42795
1343.77556 1.42778
1341.72712 1.42525
1339.67869 1.42296
1337.63025 1.42341
1335.58181 1.42485
1333.53337 1.42548
1331.48493 1.42558
1329.43649 1.42523
1327.38806 1.42471
1325.33962 1.42507
1323.29118 1.42619
1321.24274 1.42700
1319.19430 1.42773
1317.14586 1.42833
1315.09743 1.42777
1313.04899 1.42646
1311.00055 1.42559
1308.95211 1.42571
1306.90367 1.42623
1304.85523 1.42589
1302.80680 1.42437
1300.75836 1.42238
1298.70992 1.42138
1296.66148 1.42217
1294.61304 1.42375
1292.56460 1.42535
1290.51617 1.42703
1288.46773 1.42871
1286.41929 1.42997
1284.37085 1.42979
1282.32241 1.42807
1280.27397 1.42633
1278.22554 1.42555
1276.17710 1.42480
1274.12866 1.42340
1272.08022 1.42269
1270.03178 1.42451
1267.98334 1.42938
1265.93491 1.43619
1263.88647 1.44236
1261.83803 1.44580
1259.78959 1.44690
1257.74115 1.44686
1255.69271 1.44558
1253.64428 1.44306
1251.59584 1.44013
1249.54740 1.43680
1247.49896 1.43308
1245.45052 1.43019
1243.40208 1.42887
1241.35364 1.42934
1239.30521 1.43179
1237.25677 1.43519
1235.20833 1.43752
1233.15989 1.43789
1231.11145 1.43737
1229.06301 1.43680
1227.01458 1.43630
1224.96614 1.43639
1222.91770 1.43719
1220.86926 1.43823
1218.82082 1.43948
1216.77238 1.44094
1214.72395 1.44222
1212.67551 1.44306
1210.62707 1.44275
1208.57863 1.44065
1206.53019 1.43838
1204.48175 1.43812
1202.43332 1.43994
1200.38488 1.44291
1198.33644 1.44633
1196.28800 1.44951
1194.23956 1.45172
1192.19112 1.45271
1190.14269 1.45300
1188.09425 1.45294
1186.04581 1.45269
1183.99737 1.45292
1181.94893 1.45380
1179.90049 1.45476
1177.85206 1.45656
1175.80362 1.45994
1173.75518 1.46308
1171.70674 1.46434
1169.65830 1.46382
1167.60986 1.46202
1165.56143 1.46036
1163.51299 1.45997
1161.46455 1.46020
1159.41611 1.46056
1157.36767 1.46134
1155.31923 1.46179
1153.27080 1.46059
1151.22236 1.45833
1149.17392 1.45667
1147.12548 1.45514
1145.07704 1.45355
1143.02860 1.45421
1140.98017 1.45811
1138.93173 1.46334
1136.88329 1.46728
1134.83485 1.46842
1132.78641 1.46692
1130.73797 1.46392
1128.68954 1.46059
1126.64110 1.45850
1124.59266 1.45862
1122.54422 1.45981
1120.49578 1.46083
1118.44734 1.46186
1116.39891 1.46357
1114.35047 1.46523
1112.30203 1.46479
1110.25359 1.46204
1108.20515 1.45951
1106.15671 1.45914
1104.10827 1.46116
1102.05984 1.46397
1100.01140 1.46415
1097.96296 1.46079
1095.91452 1.45604
1093.86608 1.45059
1091.81764 1.44352
1089.76921 1.43665
1087.72077 1.43319
1085.67233 1.43372
1083.62389 1.43654
1081.57545 1.43893
1079.52701 1.43908
1077.47858 1.43754
1075.43014 1.43528
1073.38170 1.43187
1071.33326 1.42783
1069.28482 1.42552
1067.23638 1.42579
1065.18795 1.42726
1063.13951 1.42853
1061.09107 1.42888
1059.04263 1.42753
1056.99419 1.42570
1054.94575 1.42490
1052.89732 1.42432
1050.84888 1.42392
1048.80044 1.42492
1046.75200 1.42705
1044.70356 1.42922
1042.65512 1.43018
1040.60669 1.42917
1038.55825 1.42733
1036.50981 1.42561
1034.46137 1.42402
1032.41293 1.42347
1030.36449 1.42422
1028.31606 1.42520
1026.26762 1.42536
1024.21918 1.42482
1022.17074 1.42461
1020.12230 1.42475
1018.07386 1.42435
1016.02543 1.42385
1013.97699 1.42465
1011.92855 1.42679
1009.88011 1.42864
1007.83167 1.42920
1005.78323 1.42834
1003.73480 1.42627
1001.68636 1.42286
999.63792 1.41737
997.58948 1.41165
995.54104 1.40984
993.49260 1.41309
991.44417 1.41743
989.39573 1.41866
987.34729 1.41650
985.29885 1.41194
983.25041 1.40665
981.20197 1.40299
979.15354 1.40137
977.10510 1.40182
975.05666 1.40490
973.00822 1.40799
970.95978 1.40763
968.91134 1.40507
966.86290 1.40265
964.81447 1.39949
962.76603 1.39440
960.71759 1.38892
958.66915 1.38651
956.62071 1.38861
954.57227 1.39265
952.52384 1.39549
950.47540 1.39674
948.42696 1.39822
946.37852 1.40031
944.33008 1.40122
942.28164 1.40083
940.23321 1.40063
938.18477 1.40097
936.13633 1.40192
934.08789 1.40404
932.03945 1.40714
929.99101 1.40942
927.94258 1.40817
925.89414 1.40414
923.84570 1.40105
921.79726 1.39984
919.74882 1.39929
917.70038 1.39940
915.65195 1.40033
913.60351 1.40154
911.55507 1.40379
909.50663 1.40778
907.45819 1.41104
905.40975 1.41118
903.36132 1.40994
901.31288 1.41067
899.26444 1.41527
897.21600 1.42170
895.16756 1.42493
893.11912 1.42440
891.07069 1.42449
889.02225 1.42710
886.97381 1.43141
884.92537 1.43575
882.87693 1.43796
880.82849 1.43905
878.78006 1.44097
876.73162 1.44348
874.68318 1.44549
872.63474 1.44501
870.58630 1.44151
868.53786 1.43821
866.48943 1.43769
864.44099 1.43879
862.39255 1.43948
860.34411 1.43803
858.29567 1.43357
856.24723 1.42890
854.19880 1.42699
852.15036 1.42594
850.10192 1.42315
848.05348 1.42013
846.00504 1.41927
843.95660 1.41958
841.90817 1.41935
839.85973 1.41952
837.81129 1.42077
835.76285 1.42307
833.71441 1.42684
831.66597 1.43173
829.61753 1.43577
827.56910 1.43637
825.52066 1.43267
823.47222 1.42742
821.42378 1.42486
819.37534 1.42580
817.32690 1.42881
815.27847 1.43421
813.23003 1.44284
811.18159 1.45271
809.13315 1.45804
807.08471 1.45627
805.03627 1.45311
802.98784 1.45292
800.93940 1.45470
798.89096 1.45912
796.84252 1.46766
794.79408 1.47843
792.74564 1.48683
790.69721 1.48890
788.64877 1.48390
786.60033 1.47547
784.55189 1.47157
782.50345 1.47664
780.45501 1.48789
778.40658 1.50048
776.35814 1.50953
774.30970 1.51309
772.26126 1.51341
770.21282 1.51139
768.16438 1.50728
766.11595 1.50401
764.06751 1.50486
762.01907 1.51177
759.97063 1.52484
757.92219 1.54188
755.87375 1.55904
753.82532 1.57056
751.77688 1.57200
749.72844 1.56541
747.68000 1.55772
745.63156 1.55601
743.58312 1.56372
741.53469 1.57883
739.48625 1.59646
737.43781 1.61146
735.38937 1.61983
733.34093 1.61935
731.29249 1.61217
729.24406 1.60654
727.19562 1.60989
725.14718 1.62390
723.09874 1.64235
721.05030 1.65597
719.00186 1.66313
716.95343 1.66648
714.90499 1.66851
712.85655 1.67311
710.80811 1.67928
708.75967 1.68096
706.71123 1.67739
704.66280 1.67355
702.61436 1.67285
700.56592 1.67524
698.51748 1.67832
696.46904 1.67984
694.42060 1.67839
692.37216 1.67154
690.32373 1.66095
688.27529 1.65179
686.22685 1.64049
684.17841 1.62626
682.12997 1.62023
680.08153 1.62544
678.03310 1.63286
675.98466 1.63455
673.93622 1.63162
671.88778 1.62969
669.83934 1.63019
667.79090 1.63022
665.74247 1.62848
663.69403 1.63301
661.64559 1.64850
659.59715 1.66913
657.54871 1.68398
655.50027 1.68986
653.45184 1.69495
651.40340 1.70953
649.35496 1.72250
647.30652 1.71443
645.25808 1.69544
643.20964 1.68402
641.16121 1.68298
639.11277 1.67887
637.06433 1.65863
635.01589 1.62797
632.96745 1.59831
630.91901 1.57811
628.87058 1.56887
626.82214 1.56758
624.77370 1.57409
622.72526 1.58835
620.67682 1.60005
618.62838 1.59954
616.57995 1.58448
614.53151 1.56018
612.48307 1.55131
610.43463 1.55304
608.38619 1.53856
606.33775 1.51908
604.28932 1.50678
602.24088 1.50031
600.19244 1.50370
598.14400 1.51094
