3996.50324 1.49295
3994.45480 1.49427
3992.40636 1.49555
3990.35792 1.49560
3988.30948 1.49496
3986.26104 1.49427
3984.21261 1.49405
3982.16417 1.49455
3980.11573 1.49448
3978.06729 1.49265
3976.01885 1.49059
3973.97041 1.49086
3971.92198 1.49277
3969.87354 1.49416
3967.82510 1.49429
3965.77666 1.49312
3963.72822 1.49178
3961.67978 1.49162
3959.63135 1.49169
3957.58291 1.49170
3955.53447 1.49236
3953.48603 1.49178
3951.43759 1.48989
3949.38915 1.48983
3947.34072 1.49136
3945.29228 1.49048
3943.24384 1.49004
3941.19540 1.49332
3939.14696 1.49441
3937.09852 1.49124
3935.05009 1.48654
3933.00165 1.48459
3930.95321 1.48838
3928.90477 1.49087
3926.85633 1.48845
3924.80789 1.48815
3922.75946 1.49048
3920.71102 1.48896
3918.66258 1.48694
3916.61414 1.49035
3914.56570 1.49439
3912.51726 1.49340
3910.46883 1.48961
3908.42039 1.48429
3906.37195 1.47801
3904.32351 1.47735
3902.27507 1.48337
3900.22663 1.48897
3898.17820 1.49333
3896.12976 1.49154
3894.08132 1.48388
3892.03288 1.48242
3889.98444 1.48827
3887.93600 1.48585
3885.88756 1.48207
3883.83913 1.48494
3881.79069 1.48525
3879.74225 1.48782
3877.69381 1.48842
3875.64537 1.48245
3873.59693 1.47944
3871.54850 1.48038
3869.50006 1.48566
3867.45162 1.48816
3865.40318 1.48414
3863.35474 1.48660
3861.30630 1.49168
3859.25787 1.48842
3857.20943 1.47849
3855.16099 1.47009
3853.11255 1.48605
3851.06411 1.50452
3849.01567 1.49917
3846.96724 1.48801
3844.91880 1.48030
3842.87036 1.47761
3840.82192 1.47645
3838.77348 1.48047
3836.72504 1.49159
3834.67661 1.49521
3832.62817 1.49281
3830.57973 1.49122
3828.53129 1.48888
3826.48285 1.48709
3824.43441 1.48306
3822.38598 1.47730
3820.33754 1.48563
3818.28910 1.49266
3816.24066 1.49281
3814.19222 1.49667
3812.14378 1.49375
3810.09535 1.48563
3808.04691 1.48228
3805.99847 1.48717
3803.95003 1.48616
3801.90159 1.48533
3799.85315 1.49388
3797.80472 1.49515
3795.75628 1.49518
3793.70784 1.49597
3791.65940 1.49260
3789.61096 1.48861
3787.56252 1.48554
3785.51409 1.48507
3783.46565 1.48723
3781.41721 1.48641
3779.36877 1.48757
3777.32033 1.49263
3775.27189 1.49193
3773.22346 1.48693
3771.17502 1.48450
3769.12658 1.48777
3767.07814 1.49057
3765.02970 1.49182
3762.98126 1.49085
3760.93283 1.48653
3758.88439 1.48736
3756.83595 1.48912
3754.78751 1.48089
3752.73907 1.47028
3750.69063 1.47826
3748.64219 1.49438
3746.59376 1.49320
3744.54532 1.49417
3742.49688 1.50165
3740.44844 1.49700
3738.40000 1.48611
3736.35156 1.48096
3734.30313 1.48911
3732.25469 1.49901
3730.20625 1.49887
3728.15781 1.49299
3726.10937 1.49089
3724.06093 1.49386
3722.01250 1.49520
3719.96406 1.49566
3717.91562 1.49482
3715.86718 1.49011
3713.81874 1.48309
3711.77030 1.48494
3709.72187 1.49836
3707.67343 1.50283
3705.62499 1.49862
3703.57655 1.49349
3701.52811 1.49511
3699.47967 1.49943
3697.43124 1.49873
3695.38280 1.49538
3693.33436 1.48940
3691.28592 1.48401
3689.23748 1.49216
3687.18904 1.50590
3685.14061 1.50709
3683.09217 1.50159
3681.04373 1.49617
3678.99529 1.49087
3676.94685 1.48795
3674.89841 1.49983
3672.84998 1.50585
3670.80154 1.50142
3668.75310 1.50957
3666.70466 1.51628
3664.65622 1.51353
3662.60778 1.51086
3660.55935 1.50984
3658.51091 1.50829
3656.46247 1.50988
3654.41403 1.51091
3652.36559 1.50275
3650.31715 1.49815
3648.26872 1.51665
3646.22028 1.52942
3644.17184 1.52741
3642.12340 1.52409
3640.07496 1.52357
3638.02652 1.52341
3635.97809 1.52306
3633.92965 1.52337
3631.88121 1.52079
3629.83277 1.51950
3627.78433 1.53234
3625.73589 1.53880
3623.68746 1.53342
3621.63902 1.52706
3619.59058 1.52759
3617.54214 1.53446
3615.49370 1.53672
3613.44526 1.53749
3611.39682 1.53995
3609.34839 1.54181
3607.29995 1.54549
3605.25151 1.54713
3603.20307 1.54417
3601.15463 1.54214
3599.10619 1.54321
3597.05776 1.54397
3595.00932 1.54596
3592.96088 1.54989
3590.91244 1.54957
3588.86400 1.54574
3586.81556 1.54819
3584.76713 1.55374
3582.71869 1.55454
3580.67025 1.55434
3578.62181 1.55564
3576.57337 1.55748
3574.52493 1.55926
3572.47650 1.55960
3570.42806 1.55617
3568.37962 1.55162
3566.33118 1.55543
3564.28274 1.56224
3562.23430 1.56314
3560.18587 1.56345
3558.13743 1.56573
3556.08899 1.56668
3554.04055 1.56604
3551.99211 1.56661
3549.94367 1.56610
3547.89524 1.56365
3545.84680 1.56517
3543.79836 1.56964
3541.74992 1.57108
3539.70148 1.57049
3537.65304 1.57085
3535.60461 1.57274
3533.55617 1.57423
3531.50773 1.57396
3529.45929 1.57312
3527.41085 1.57389
3525.36241 1.57622
3523.31398 1.57814
3521.26554 1.57851
3519.21710 1.57794
3517.16866 1.57807
3515.12022 1.57919
3513.07178 1.57985
3511.02335 1.57983
3508.97491 1.58038
3506.92647 1.58070
3504.87803 1.57984
3502.82959 1.57938
3500.78115 1.57954
3498.73272 1.57970
3496.68428 1.58073
3494.63584 1.58193
3492.58740 1.58178
3490.53896 1.58079
3488.49052 1.58034
3486.44209 1.58031
3484.39365 1.57969
3482.34521 1.58026
3480.29677 1.58364
3478.24833 1.58637
3476.19989 1.58620
3474.15146 1.58503
3472.10302 1.58470
3470.05458 1.58512
3468.00614 1.58581
3465.95770 1.58692
3463.90926 1.58791
3461.86082 1.58885
3459.81239 1.59005
3457.76395 1.59093
3455.71551 1.59191
3453.66707 1.59248
3451.61863 1.59165
3449.57019 1.59023
3447.52176 1.59024
3445.47332 1.59203
3443.42488 1.59313
3441.37644 1.59285
3439.32800 1.59169
3437.27956 1.59056
3435.23113 1.59066
3433.18269 1.59132
3431.13425 1.59255
3429.08581 1.59455
3427.03737 1.59571
3424.98893 1.59516
3422.94050 1.59362
3420.89206 1.59294
3418.84362 1.59384
3416.79518 1.59504
3414.74674 1.59594
3412.69830 1.59612
3410.64987 1.59574
3408.60143 1.59591
3406.55299 1.59581
3404.50455 1.59499
3402.45611 1.59540
3400.40767 1.59676
3398.35924 1.59708
3396.31080 1.59643
3394.26236 1.59633
3392.21392 1.59767
3390.16548 1.59888
3388.11704 1.59867
3386.06861 1.59847
3384.02017 1.59919
3381.97173 1.59937
3379.92329 1.59857
3377.87485 1.59791
3375.82641 1.59768
3373.77798 1.59802
3371.72954 1.59844
3369.68110 1.59785
3367.63266 1.59710
3365.58422 1.59733
3363.53578 1.59744
3361.48735 1.59682
3359.43891 1.59579
3357.39047 1.59396
3355.34203 1.59224
3353.29359 1.59217
3351.24515 1.59290
3349.19672 1.59328
3347.14828 1.59410
3345.09984 1.59458
3343.05140 1.59365
3341.00296 1.59277
3338.95452 1.59262
3336.90609 1.59288
3334.85765 1.59331
3332.80921 1.59348
3330.76077 1.59346
3328.71233 1.59339
3326.66389 1.59309
3324.61545 1.59288
3322.56702 1.59253
3320.51858 1.59165
3318.47014 1.59131
3316.42170 1.59149
3314.37326 1.59087
3312.32482 1.58960
3310.27639 1.58847
3308.22795 1.58745
3306.17951 1.58682
3304.13107 1.58694
3302.08263 1.58686
3300.03419 1.58658
3297.98576 1.58707
3295.93732 1.58694
3293.88888 1.58540
3291.84044 1.58466
3289.79200 1.58556
3287.74356 1.58617
3285.69513 1.58543
3283.64669 1.58439
3281.59825 1.58387
3279.54981 1.58380
3277.50137 1.58422
3275.45293 1.58439
3273.40450 1.58382
3271.35606 1.58359
3269.30762 1.58386
3267.25918 1.58382
3265.21074 1.58344
3263.16230 1.58330
3261.11387 1.58362
3259.06543 1.58346
3257.01699 1.58253
3254.96855 1.58209
3252.92011 1.58181
3250.87167 1.58100
3248.82324 1.58045
3246.77480 1.57994
3244.72636 1.57910
3242.67792 1.57839
3240.62948 1.57761
3238.58104 1.57690
3236.53261 1.57712
3234.48417 1.57756
3232.43573 1.57749
3230.38729 1.57729
3228.33885 1.57622
3226.29041 1.57491
3224.24198 1.57508
3222.19354 1.57597
3220.14510 1.57637
3218.09666 1.57695
3216.04822 1.57785
3213.99978 1.57833
3211.95135 1.57879
3209.90291 1.57941
3207.85447 1.57946
3205.80603 1.57916
3203.75759 1.57963
3201.70915 1.57988
3199.66072 1.57847
3197.61228 1.57694
3195.56384 1.57677
3193.51540 1.57749
3191.46696 1.57817
3189.41852 1.57806
3187.37008 1.57684
3185.32165 1.57488
3183.27321 1.57322
3181.22477 1.57253
3179.17633 1.57287
3177.12789 1.57365
3175.07945 1.57336
3173.03102 1.57177
3170.98258 1.57039
3168.93414 1.57017
3166.88570 1.57037
3164.83726 1.56998
3162.78882 1.56937
3160.74039 1.56920
3158.69195 1.56897
3156.64351 1.56794
3154.59507 1.56656
3152.54663 1.56591
3150.49819 1.56610
3148.44976 1.56607
3146.40132 1.56517
3144.35288 1.56385
3142.30444 1.56267
3140.25600 1.56182
3138.20756 1.56103
3136.15913 1.56046
3134.11069 1.56026
3132.06225 1.56011
3130.01381 1.55965
3127.96537 1.55920
3125.91693 1.55866
3123.86850 1.55738
3121.82006 1.55618
3119.77162 1.55581
3117.72318 1.55576
3115.67474 1.55545
3113.62630 1.55458
3111.57787 1.55318
3109.52943 1.55220
3107.48099 1.55249
3105.43255 1.55285
3103.38411 1.55228
3101.33567 1.55172
3099.28724 1.55180
3097.23880 1.55158
3095.19036 1.55125
3093.14192 1.55179
3091.09348 1.55203
3089.04504 1.55072
3086.99661 1.54858
3084.94817 1.54750
3082.89973 1.54795
3080.85129 1.54809
3078.80285 1.54691
3076.75441 1.54550
3074.70598 1.54500
3072.65754 1.54572
3070.60910 1.54705
3068.56066 1.54775
3066.51222 1.54754
3064.46378 1.54718
3062.41535 1.54662
3060.36691 1.54609
3058.31847 1.54644
3056.27003 1.54690
3054.22159 1.54641
3052.17315 1.54537
3050.12471 1.54487
3048.07628 1.54508
3046.02784 1.54472
3043.97940 1.54332
3041.93096 1.54196
3039.88252 1.54137
3037.83408 1.54112
3035.78565 1.54101
3033.73721 1.54148
3031.68877 1.54237
3029.64033 1.54266
3027.59189 1.54232
3025.54345 1.54232
3023.49502 1.54232
3021.44658 1.54249
3019.39814 1.54367
3017.34970 1.54511
3015.30126 1.54627
3013.25282 1.54717
3011.20439 1.54751
3009.15595 1.54753
3007.10751 1.54742
3005.05907 1.54695
3003.01063 1.54670
3000.96219 1.54702
2998.91376 1.54753
2996.86532 1.54829
2994.81688 1.54936
2992.76844 1.55047
2990.72000 1.55158
2988.67156 1.55278
2986.62313 1.55377
2984.57469 1.55447
2982.52625 1.55582
2980.47781 1.55842
2978.42937 1.56153
2976.38093 1.56451
2974.33250 1.56792
2972.28406 1.57189
2970.23562 1.57565
2968.18718 1.57915
2966.13874 1.58288
2964.09030 1.58664
2962.04187 1.58987
2959.99343 1.59261
2957.94499 1.59461
2955.89655 1.59553
2953.84811 1.59550
2951.79967 1.59481
2949.75124 1.59447
2947.70280 1.59514
2945.65436 1.59653
2943.60592 1.59845
2941.55748 1.60061
2939.50904 1.60320
2937.46061 1.60674
2935.41217 1.61133
2933.36373 1.61573
2931.31529 1.61874
2929.26685 1.62091
2927.21841 1.62295
2925.16998 1.62489
2923.12154 1.62645
2921.07310 1.62650
2919.02466 1.62395
2916.97622 1.62032
2914.92778 1.61709
2912.87934 1.61337
2910.83091 1.60946
2908.78247 1.60659
2906.73403 1.60415
2904.68559 1.60166
2902.63715 1.59982
2900.58871 1.59843
2898.54028 1.59689
2896.49184 1.59540
2894.44340 1.59364
2892.39496 1.59135
2890.34652 1.58946
2888.29808 1.58856
2886.24965 1.58771
2884.20121 1.58619
2882.15277 1.58455
2880.10433 1.58386
2878.05589 1.58475
2876.00745 1.58591
2873.95902 1.58639
2871.91058 1.58678
2869.86214 1.58724
2867.81370 1.58838
2865.76526 1.59043
2863.71682 1.59298
2861.66839 1.59584
2859.61995 1.59869
2857.57151 1.60144
2855.52307 1.60426
2853.47463 1.60691
2851.42619 1.60772
2849.37776 1.60489
2847.32932 1.59893
2845.28088 1.59159
2843.23244 1.58419
2841.18400 1.57810
2839.13556 1.57363
2837.08713 1.56944
2835.03869 1.56503
2832.99025 1.56119
2830.94181 1.55819
2828.89337 1.55602
2826.84493 1.55426
2824.79650 1.55164
2822.74806 1.54811
2820.69962 1.54482
2818.65118 1.54235
2816.60274 1.54072
2814.55430 1.53987
2812.50587 1.53925
2810.45743 1.53833
2808.40899 1.53716
2806.36055 1.53549
2804.31211 1.53358
2802.26367 1.53248
2800.21524 1.53248
2798.16680 1.53224
2796.11836 1.53111
2794.06992 1.53025
2792.02148 1.52973
2789.97304 1.52861
2787.92461 1.52740
2785.87617 1.52677
2783.82773 1.52602
2781.77929 1.52533
2779.73085 1.52551
2777.68241 1.52589
2775.63397 1.52557
2773.58554 1.52469
2771.53710 1.52379
2769.48866 1.52330
2767.44022 1.52328
2765.39178 1.52317
2763.34334 1.52262
2761.29491 1.52170
2759.24647 1.52087
2757.19803 1.52056
2755.14959 1.52060
2753.10115 1.52066
2751.05271 1.52043
2749.00428 1.51990
2746.95584 1.51943
2744.90740 1.51913
2742.85896 1.51896
2740.81052 1.51912
2738.76208 1.51945
2736.71365 1.51973
2734.66521 1.51979
2732.61677 1.51930
2730.56833 1.51860
2728.51989 1.51874
2726.47145 1.51953
2724.42302 1.51970
2722.37458 1.51909
2720.32614 1.51877
2718.27770 1.51939
2716.22926 1.51981
2714.18082 1.51911
2712.13239 1.51822
2710.08395 1.51796
2708.03551 1.51817
2705.98707 1.51831
2703.93863 1.51812
2701.89019 1.51721
2699.84176 1.51627
2697.79332 1.51664
2695.74488 1.51730
2693.69644 1.51701
2691.64800 1.51677
2689.59956 1.51711
2687.55113 1.51749
2685.50269 1.51789
2683.45425 1.51809
2681.40581 1.51771
2679.35737 1.51724
2677.30893 1.51718
2675.26050 1.51776
2673.21206 1.51874
2671.16362 1.51934
2669.11518 1.51919
2667.06674 1.51868
2665.01830 1.51827
2662.96987 1.51859
2660.92143 1.51966
2658.87299 1.52030
2656.82455 1.51995
2654.77611 1.51938
2652.72767 1.51928
2650.67924 1.51981
2648.63080 1.52037
2646.58236 1.52032
2644.53392 1.51995
2642.48548 1.51995
2640.43704 1.52067
2638.38860 1.52133
2636.34017 1.52123
2634.29173 1.52139
2632.24329 1.52224
2630.19485 1.52253
2628.14641 1.52204
2626.09797 1.52192
2624.04954 1.52239
2622.00110 1.52222
2619.95266 1.52110
2617.90422 1.52023
2615.85578 1.52018
2613.80734 1.52031
2611.75891 1.52026
2609.71047 1.52007
2607.66203 1.51987
2605.61359 1.51998
2603.56515 1.51984
2601.51671 1.51911
2599.46828 1.51880
2597.41984 1.51940
2595.37140 1.52048
2593.32296 1.52102
2591.27452 1.52041
2589.22608 1.52001
2587.17765 1.52092
2585.12921 1.52186
2583.08077 1.52175
2581.03233 1.52121
2578.98389 1.52121
2576.93545 1.52213
2574.88702 1.52344
2572.83858 1.52424
2570.79014 1.52394
2568.74170 1.52248
2566.69326 1.52099
2564.64482 1.52105
2562.59639 1.52221
2560.54795 1.52288
2558.49951 1.52264
2556.45107 1.52204
2554.40263 1.52176
2552.35419 1.52214
2550.30576 1.52268
2548.25732 1.52257
2546.20888 1.52176
2544.16044 1.52083
2542.11200 1.52029
2540.06356 1.52057
2538.01513 1.52130
2535.96669 1.52105
2533.91825 1.51958
2531.86981 1.51828
2529.82137 1.51796
2527.77293 1.51831
2525.72450 1.51852
2523.67606 1.51829
2521.62762 1.51802
2519.57918 1.51778
2517.53074 1.51799
2515.48230 1.51887
2513.43387 1.51948
2511.38543 1.51948
2509.33699 1.51938
2507.28855 1.51941
2505.24011 1.51942
2503.19167 1.51945
2501.14324 1.51961
2499.09480 1.51974
2497.04636 1.52025
2494.99792 1.52130
2492.94948 1.52235
2490.90104 1.52307
2488.85260 1.52301
2486.80417 1.52248
2484.75573 1.52216
2482.70729 1.52162
2480.65885 1.52092
2478.61041 1.52103
2476.56197 1.52184
2474.51354 1.52272
2472.46510 1.52331
2470.41666 1.52360
2468.36822 1.52392
2466.31978 1.52451
2464.27134 1.52530
2462.22291 1.52589
2460.17447 1.52611
2458.12603 1.52625
2456.07759 1.52644
2454.02915 1.52676
2451.98071 1.52731
2449.93228 1.52855
2447.88384 1.53118
2445.83540 1.53428
2443.78696 1.53659
2441.73852 1.53954
2439.69008 1.54526
2437.64165 1.55405
2435.59321 1.56490
2433.54477 1.57704
2431.49633 1.58997
2429.44789 1.60114
2427.39945 1.60552
2425.35102 1.60004
2423.30258 1.58691
2421.25414 1.57138
2419.20570 1.55767
2417.15726 1.54734
2415.10882 1.54034
2413.06039 1.53572
2411.01195 1.53205
2408.96351 1.52874
2406.91507 1.52653
2404.86663 1.52580
2402.81819 1.52575
2400.76976 1.52528
2398.72132 1.52391
2396.67288 1.52247
2394.62444 1.52191
2392.57600 1.52186
2390.52756 1.52153
2388.47913 1.52065
2386.43069 1.51939
2384.38225 1.51766
2382.33381 1.51551
2380.28537 1.51367
2378.23693 1.51245
2376.18850 1.51188
2374.14006 1.51209
2372.09162 1.51316
2370.04318 1.51472
2367.99474 1.51495
2365.94630 1.51243
2363.89787 1.50907
2361.84943 1.50690
2359.80099 1.50597
2357.75255 1.50594
2355.70411 1.50693
2353.65567 1.51313
2351.60723 1.52141
2349.55880 1.52217
2347.51036 1.51758
2345.46192 1.51615
2343.41348 1.52076
2341.36504 1.52616
2339.31660 1.53056
2337.26817 1.53266
2335.21973 1.53103
2333.17129 1.52739
2331.12285 1.52434
2329.07441 1.52177
2327.02597 1.51907
2324.97754 1.51729
2322.92910 1.51684
2320.88066 1.51705
2318.83222 1.51685
2316.78378 1.51552
2314.73534 1.51360
2312.68691 1.51271
2310.63847 1.51320
2308.59003 1.51345
2306.54159 1.51303
2304.49315 1.51278
2302.44471 1.51271
2300.39628 1.51217
2298.34784 1.51124
2296.29940 1.51061
2294.25096 1.51068
2292.20252 1.51158
2290.15408 1.51279
2288.10565 1.51316
2286.05721 1.51241
2284.00877 1.51145
2281.96033 1.51132
2279.91189 1.51183
2277.86345 1.51243
2275.81502 1.51280
2273.76658 1.51307
2271.71814 1.51354
2269.66970 1.51408
2267.62126 1.51454
2265.57282 1.51491
2263.52439 1.51554
2261.47595 1.51646
2259.42751 1.51705
2257.37907 1.51718
2255.33063 1.51730
2253.28219 1.51765
2251.23376 1.51844
2249.18532 1.51974
2247.13688 1.52120
2245.08844 1.52229
2243.04000 1.52225
2240.99156 1.52136
2238.94313 1.52122
2236.89469 1.52197
2234.84625 1.52240
2232.79781 1.52237
2230.74937 1.52235
2228.70093 1.52232
2226.65250 1.52259
2224.60406 1.52332
2222.55562 1.52367
2220.50718 1.52353
2218.45874 1.52352
2216.41030 1.52359
2214.36186 1.52373
2212.31343 1.52411
2210.26499 1.52442
2208.21655 1.52401
2206.16811 1.52316
2204.11967 1.52274
2202.07123 1.52265
2200.02280 1.52244
2197.97436 1.52241
2195.92592 1.52249
2193.87748 1.52194
2191.82904 1.52073
2189.78060 1.51977
2187.73217 1.51940
2185.68373 1.51943
2183.63529 1.51949
2181.58685 1.51910
2179.53841 1.51816
2177.48997 1.51730
2175.44154 1.51727
2173.39310 1.51739
2171.34466 1.51683
2169.29622 1.51602
2167.24778 1.51486
2165.19934 1.51339
2163.15091 1.51260
2161.10247 1.51276
2159.05403 1.51307
2157.00559 1.51264
2154.95715 1.51162
2152.90871 1.51061
2150.86028 1.50952
2148.81184 1.50843
2146.76340 1.50797
2144.71496 1.50791
2142.66652 1.50755
2140.61808 1.50681
2138.56965 1.50575
2136.52121 1.50511
2134.47277 1.50556
2132.42433 1.50609
2130.37589 1.50594
2128.32745 1.50548
2126.27902 1.50495
2124.23058 1.50479
2122.18214 1.50506
2120.13370 1.50511
2118.08526 1.50460
2116.03682 1.50396
2113.98839 1.50337
2111.93995 1.50258
2109.89151 1.50184
2107.84307 1.50125
2105.79463 1.50069
2103.74619 1.50030
2101.69776 1.49966
2099.64932 1.49866
2097.60088 1.49859
2095.55244 1.49976
2093.50400 1.50027
2091.45556 1.49900
2089.40713 1.49738
2087.35869 1.49699
2085.31025 1.49763
2083.26181 1.49869
2081.21337 1.49949
2079.16493 1.49929
2077.11649 1.49844
2075.06806 1.49755
2073.01962 1.49700
2070.97118 1.49757
2068.92274 1.49853
2066.87430 1.49823
2064.82586 1.49729
2062.77743 1.49677
2060.72899 1.49664
2058.68055 1.49690
2056.63211 1.49700
2054.58367 1.49626
2052.53523 1.49512
2050.48680 1.49420
2048.43836 1.49341
2046.38992 1.49331
2044.34148 1.49440
2042.29304 1.49563
2040.24460 1.49522
2038.19617 1.49313
2036.14773 1.49154
2034.09929 1.49135
2032.05085 1.49184
2030.00241 1.49242
2027.95397 1.49281
2025.90554 1.49276
2023.85710 1.49212
2021.80866 1.49138
2019.76022 1.49085
2017.71178 1.49088
2015.66334 1.49167
2013.61491 1.49193
2011.56647 1.49129
2009.51803 1.49078
2007.46959 1.49096
2005.42115 1.49179
2003.37271 1.49280
2001.32428 1.49328
1999.27584 1.49286
1997.22740 1.49215
1995.17896 1.49126
1993.13052 1.49071
1991.08208 1.49214
1989.03365 1.49416
1986.98521 1.49475
1984.93677 1.49429
1982.88833 1.49390
1980.83989 1.49452
1978.79145 1.49576
1976.74302 1.49678
1974.69458 1.49737
1972.64614 1.49743
1970.59770 1.49658
1968.54926 1.49585
1966.50082 1.49701
1964.45239 1.49929
1962.40395 1.50041
1960.35551 1.49968
1958.30707 1.49849
1956.25863 1.49836
1954.21019 1.49895
1952.16176 1.49949
1950.11332 1.50025
1948.06488 1.50117
1946.01644 1.50105
1943.96800 1.50031
1941.91956 1.50142
1939.87112 1.50284
1937.82269 1.50240
1935.77425 1.50165
1933.72581 1.50185
1931.67737 1.50292
1929.62893 1.50359
1927.58049 1.50319
1925.53206 1.50194
1923.48362 1.50162
1921.43518 1.50259
1919.38674 1.50275
1917.33830 1.50332
1915.28986 1.50385
1913.24143 1.50280
1911.19299 1.50230
1909.14455 1.50342
1907.09611 1.50435
1905.04767 1.50384
1902.99923 1.50281
1900.95080 1.50249
1898.90236 1.50245
1896.85392 1.50188
1894.80548 1.50151
1892.75704 1.50090
1890.70860 1.50024
1888.66017 1.50139
1886.61173 1.50222
1884.56329 1.50187
1882.51485 1.50171
1880.46641 1.50124
1878.41797 1.50048
1876.36954 1.49991
1874.32110 1.49936
1872.27266 1.49777
1870.22422 1.49591
1868.17578 1.49765
1866.12734 1.50033
1864.07891 1.49957
1862.03047 1.49845
1859.98203 1.49887
1857.93359 1.49929
1855.88515 1.49891
1853.83671 1.49816
1851.78828 1.49740
1849.73984 1.49688
1847.69140 1.49587
1845.64296 1.49426
1843.59452 1.49527
1841.54608 1.49664
1839.49765 1.49581
1837.44921 1.49600
1835.40077 1.49691
1833.35233 1.49489
1831.30389 1.49145
1829.25545 1.49174
1827.20702 1.49317
1825.15858 1.49364
1823.11014 1.49492
1821.06170 1.49488
1819.01326 1.49401
1816.96482 1.49373
1814.91639 1.49284
1812.86795 1.49139
1810.81951 1.49221
1808.77107 1.49468
1806.72263 1.49523
1804.67419 1.49369
1802.62575 1.49213
1800.57732 1.49330
1798.52888 1.49545
1796.48044 1.49504
1794.43200 1.49311
1792.38356 1.49430
1790.33512 1.49827
1788.28669 1.49842
1786.23825 1.49666
1784.18981 1.49650
1782.14137 1.49713
1780.09293 1.49820
1778.04449 1.49898
1775.99606 1.49746
1773.94762 1.49599
1771.89918 1.49998
1769.85074 1.50546
1767.80230 1.50760
1765.75386 1.50792
1763.70543 1.50742
1761.65699 1.50954
1759.60855 1.51302
1757.56011 1.51586
1755.51167 1.51908
1753.46323 1.51953
1751.41480 1.51964
1749.36636 1.52564
1747.31792 1.53406
1745.26948 1.54006
1743.22104 1.54482
1741.17260 1.54931
1739.12417 1.55241
1737.07573 1.55104
1735.02729 1.54806
1732.97885 1.55081
1730.93041 1.55263
1728.88197 1.55049
1726.83354 1.54804
1724.78510 1.54660
1722.73666 1.54566
1720.68822 1.54247
1718.63978 1.53867
1716.59134 1.54214
1714.54291 1.54877
1712.49447 1.55116
1710.44603 1.55028
1708.39759 1.54717
1706.34915 1.54516
1704.30071 1.54506
1702.25228 1.54331
1700.20384 1.54352
1698.15540 1.54600
1696.10696 1.54662
1694.05852 1.54713
1692.01008 1.54564
1689.96165 1.54434
1687.91321 1.54313
1685.86477 1.54017
1683.81633 1.54298
1681.76789 1.54878
1679.71945 1.54917
1677.67102 1.54722
1675.62258 1.54675
1673.57414 1.54850
1671.52570 1.54917
1669.47726 1.55271
1667.42882 1.55687
1665.38038 1.55640
1663.33195 1.55688
1661.28351 1.56036
1659.23507 1.56092
1657.18663 1.55724
1655.13819 1.55224
1653.08975 1.55719
1651.04132 1.56392
1648.99288 1.55984
1646.94444 1.55841
1644.89600 1.56277
1642.84756 1.56330
1640.79912 1.56118
1638.75069 1.55773
1636.70225 1.55632
1634.65381 1.56212
1632.60537 1.56392
1630.55693 1.56133
1628.50849 1.56065
1626.46006 1.56170
1624.41162 1.56200
1622.36318 1.56313
1620.31474 1.56224
1618.26630 1.55995
1616.21786 1.56217
1614.16943 1.56393
1612.12099 1.56150
1610.07255 1.55969
1608.02411 1.56015
1605.97567 1.56030
1603.92723 1.55894
1601.87880 1.55755
1599.83036 1.55643
1597.78192 1.55504
1595.73348 1.55393
1593.68504 1.55251
1591.63660 1.55033
1589.58817 1.54898
1587.53973 1.54885
1585.49129 1.54928
1583.44285 1.54969
1581.39441 1.54807
1579.34597 1.54337
1577.29754 1.53947
1575.24910 1.54169
1573.20066 1.54269
1571.15222 1.54033
1569.10378 1.53847
1567.05534 1.53624
1565.00691 1.53371
1562.95847 1.53113
1560.91003 1.52793
1558.86159 1.53323
1556.81315 1.53992
1554.76471 1.53704
1552.71628 1.53511
1550.66784 1.53515
1548.61940 1.53464
1546.57096 1.53116
1544.52252 1.52612
1542.47408 1.52345
1540.42565 1.52857
1538.37721 1.53380
1536.32877 1.53079
1534.28033 1.52779
1532.23189 1.52776
1530.18345 1.52541
1528.13501 1.52092
1526.08658 1.51800
1524.03814 1.51669
1521.98970 1.51731
1519.94126 1.51879
1517.89282 1.51795
1515.84438 1.51777
1513.79595 1.51696
1511.74751 1.51349
1509.69907 1.50834
1507.65063 1.50941
1505.60219 1.52077
1503.55375 1.52083
1501.50532 1.51615
1499.45688 1.51319
1497.40844 1.51393
1495.36000 1.51572
1493.31156 1.51404
1491.26312 1.51111
1489.21469 1.51194
1487.16625 1.51463
1485.11781 1.51479
1483.06937 1.51412
1481.02093 1.51418
1478.97249 1.51437
1476.92406 1.51468
1474.87562 1.51723
1472.82718 1.52552
1470.77874 1.53416
1468.73030 1.53631
1466.68186 1.53703
1464.63343 1.54002
1462.58499 1.54087
1460.53655 1.53692
1458.48811 1.53336
1456.43967 1.53779
1454.39123 1.54070
1452.34280 1.53905
1450.29436 1.53679
1448.24592 1.53554
1446.19748 1.53510
1444.14904 1.53345
1442.10060 1.53118
1440.05217 1.52979
1438.00373 1.53072
1435.95529 1.53466
1433.90685 1.53505
1431.85841 1.53116
1429.80997 1.52840
1427.76154 1.52828
1425.71310 1.52851
1423.66466 1.52849
1421.61622 1.52731
1419.56778 1.52694
1417.51934 1.52986
1415.47091 1.53109
1413.42247 1.53004
1411.37403 1.52862
1409.32559 1.52735
1407.27715 1.52645
1405.22871 1.52647
1403.18028 1.52660
1401.13184 1.52584
1399.08340 1.52520
1397.03496 1.52454
1394.98652 1.52433
1392.93808 1.52420
1390.88965 1.52208
1388.84121 1.52051
1386.79277 1.52326
1384.74433 1.52695
1382.69589 1.52740
1380.64745 1.52566
1378.59901 1.52358
1376.55058 1.52240
1374.50214 1.52375
1372.45370 1.52615
1370.40526 1.52504
1368.35682 1.52018
1366.30838 1.51443
1364.25995 1.51124
1362.21151 1.51358
1360.16307 1.51720
1358.11463 1.51591
1356.06619 1.51116
1354.01775 1.50778
1351.96932 1.50879
1349.92088 1.51268
1347.87244 1.51484
1345.82400 1.51218
1343.77556 1.50681
1341.72712 1.50358
1339.67869 1.50613
1337.63025 1.51178
1335.58181 1.51350
1333.53337 1.51072
1331.48493 1.50818
1329.43649 1.50927
1327.38806 1.51230
1325.33962 1.51412
1323.29118 1.51402
1321.24274 1.51380
1319.19430 1.51527
1317.14586 1.51757
1315.09743 1.51885
1313.04899 1.51893
1311.00055 1.51846
1308.95211 1.51870
1306.90367 1.52047
1304.85523 1.52194
1302.80680 1.52157
1300.75836 1.52070
1298.70992 1.52145
1296.66148 1.52409
1294.61304 1.52591
1292.56460 1.52495
1290.51617 1.52332
1288.46773 1.52428
1286.41929 1.52784
1284.37085 1.53080
1282.32241 1.53109
1280.27397 1.52974
1278.22554 1.52935
1276.17710 1.53125
1274.12866 1.53406
1272.08022 1.53597
1270.03178 1.53745
1267.98334 1.54024
1265.93491 1.54490
1263.88647 1.54966
1261.83803 1.55137
1259.78959 1.54936
1257.74115 1.54671
1255.69271 1.54551
1253.64428 1.54438
1251.59584 1.54195
1249.54740 1.53911
1247.49896 1.53730
1245.45052 1.53721
1243.40208 1.53827
1241.35364 1.53849
1239.30521 1.53656
1237.25677 1.53366
1235.20833 1.53250
1233.15989 1.53410
1231.11145 1.53657
1229.06301 1.53729
1227.01458 1.53567
1224.96614 1.53412
1222.91770 1.53521
1220.86926 1.53797
1218.82082 1.53954
1216.77238 1.53910
1214.72395 1.53818
1212.67551 1.53819
1210.62707 1.53915
1208.57863 1.54023
1206.53019 1.54040
1204.48175 1.53979
1202.43332 1.53943
1200.38488 1.53923
1198.33644 1.53929
1196.28800 1.53984
1194.23956 1.53965
1192.19112 1.53794
1190.14269 1.53601
1188.09425 1.53554
1186.04581 1.53696
1183.99737 1.53874
1181.94893 1.53898
1179.90049 1.53841
1177.85206 1.53931
1175.80362 1.54208
1173.75518 1.54440
1171.70674 1.54451
1169.65830 1.54401
1167.60986 1.54485
1165.56143 1.54594
1163.51299 1.54558
1161.46455 1.54412
1159.41611 1.54288
1157.36767 1.54272
1155.31923 1.54321
1153.27080 1.54336
1151.22236 1.54351
1149.17392 1.54387
1147.12548 1.54358
1145.07704 1.54315
1143.02860 1.54365
1140.98017 1.54446
1138.93173 1.54513
1136.88329 1.54634
1134.83485 1.54809
1132.78641 1.54980
1130.73797 1.55065
1128.68954 1.55022
1126.64110 1.55002
1124.59266 1.55155
1122.54422 1.55463
1120.49578 1.55777
1118.44734 1.55912
1116.39891 1.55889
1114.35047 1.55876
1112.30203 1.56001
1110.25359 1.56296
1108.20515 1.56591
1106.15671 1.56655
1104.10827 1.56484
1102.05984 1.56251
1100.01140 1.56165
1097.96296 1.56280
1095.91452 1.56357
1093.86608 1.56178
1091.81764 1.55791
1089.76921 1.55496
1087.72077 1.55487
1085.67233 1.55547
1083.62389 1.55434
1081.57545 1.55125
1079.52701 1.54734
1077.47858 1.54491
1075.43014 1.54505
1073.38170 1.54582
1071.33326 1.54490
1069.28482 1.54236
1067.23638 1.54095
1065.18795 1.54204
1063.13951 1.54270
1061.09107 1.54091
1059.04263 1.53890
1056.99419 1.53969
1054.94575 1.54403
1052.89732 1.54866
1050.84888 1.54915
1048.80044 1.54578
1046.75200 1.54322
1044.70356 1.54499
1042.65512 1.54940
1040.60669 1.55178
1038.55825 1.55009
1036.50981 1.54665
1034.46137 1.54565
1032.41293 1.54835
1030.36449 1.55130
1028.31606 1.55207
1026.26762 1.55169
1024.21918 1.55098
1022.17074 1.55067
1020.12230 1.55226
1018.07386 1.55477
1016.02543 1.55529
1013.97699 1.55397
1011.92855 1.55218
1009.88011 1.55108
1007.83167 1.55194
1005.78323 1.55322
1003.73480 1.55250
1001.68636 1.55002
999.63792 1.54757
997.58948 1.54680
995.54104 1.54799
993.49260 1.54823
991.44417 1.54431
989.39573 1.53824
987.34729 1.53522
985.29885 1.53646
983.25041 1.53732
981.20197 1.53318
979.15354 1.52572
977.10510 1.52092
975.05666 1.52029
973.00822 1.51953
970.95978 1.51569
968.91134 1.51029
966.86290 1.50600
964.81447 1.50347
962.76603 1.50227
960.71759 1.50166
958.66915 1.50043
956.62071 1.49807
954.57227 1.49587
952.52384 1.49638
950.47540 1.49951
948.42696 1.50100
946.37852 1.49837
944.33008 1.49413
942.28164 1.49243
940.23321 1.49492
938.18477 1.49834
936.13633 1.49803
934.08789 1.49458
932.03945 1.49373
929.99101 1.49839
927.94258 1.50422
925.89414 1.50519
923.84570 1.50174
921.79726 1.49988
919.74882 1.50361
917.70038 1.51080
915.65195 1.51549
913.60351 1.51489
911.55507 1.51317
909.50663 1.51572
907.45819 1.52188
905.40975 1.52540
903.36132 1.52245
901.31288 1.51742
899.26444 1.51752
897.21600 1.52381
895.16756 1.52980
893.11912 1.52944
891.07069 1.52516
889.02225 1.52331
886.97381 1.52621
884.92537 1.52995
882.87693 1.52922
880.82849 1.52461
878.78006 1.52122
876.73162 1.52124
874.68318 1.52160
872.63474 1.51894
870.58630 1.51403
868.53786 1.51101
866.48943 1.51214
864.44099 1.51488
862.39255 1.51611
860.34411 1.51562
858.29567 1.51493
856.24723 1.51554
854.19880 1.51716
852.15036 1.51891
850.10192 1.52085
848.05348 1.52193
846.00504 1.52148
843.95660 1.52099
841.90817 1.52157
839.85973 1.52272
837.81129 1.52320
835.76285 1.52215
833.71441 1.52103
831.66597 1.52343
829.61753 1.52918
827.56910 1.53315
825.52066 1.53244
823.47222 1.52906
821.42378 1.52672
819.37534 1.52773
817.32690 1.53039
815.27847 1.53064
813.23003 1.52738
811.18159 1.52471
809.13315 1.52654
807.08471 1.53142
805.03627 1.53458
802.98784 1.53416
800.93940 1.53445
798.89096 1.54074
796.84252 1.55294
794.79408 1.56561
792.74564 1.57309
790.69721 1.57701
788.64877 1.58407
786.60033 1.59581
784.55189 1.60821
782.50345 1.61902
780.45501 1.62829
778.40658 1.63563
776.35814 1.64239
774.30970 1.64983
772.26126 1.65662
770.21282 1.66313
768.16438 1.67066
766.11595 1.67984
764.06751 1.69259
762.01907 1.70871
759.97063 1.72566
757.92219 1.74296
755.87375 1.76153
753.82532 1.77988
751.77688 1.79149
749.72844 1.79192
747.68000 1.78705
745.63156 1.78530
743.58312 1.78978
741.53469 1.79913
739.48625 1.81024
737.43781 1.82076
735.38937 1.82923
733.34093 1.83242
731.29249 1.82855
729.24406 1.82762
727.19562 1.84193
725.14718 1.86759
723.09874 1.88978
721.05030 1.89895
719.00186 1.89660
716.95343 1.89410
714.90499 1.90409
712.85655 1.92846
710.80811 1.95244
708.75967 1.96385
706.71123 1.96883
704.66280 1.97548
702.61436 1.98775
700.56592 2.00361
698.51748 2.01008
696.46904 2.00551
694.42060 2.00038
692.37216 1.99662
690.32373 1.99256
688.27529 1.98187
686.22685 1.96653
684.17841 1.95949
682.12997 1.96046
680.08153 1.95985
678.03310 1.95349
675.98466 1.94567
673.93622 1.93344
671.88778 1.91741
669.83934 1.91252
667.79090 1.93294
665.74247 1.95408
663.69403 1.96246
661.64559 1.97073
659.59715 1.98657
657.54871 2.01230
655.50027 2.04055
653.45184 2.05734
651.40340 2.05192
649.35496 2.03613
647.30652 2.03673
645.25808 2.05641
643.20964 2.06433
641.16121 2.04502
639.11277 2.01562
637.06433 1.97888
635.01589 1.93807
632.96745 1.90152
630.91901 1.86708
628.87058 1.83273
626.82214 1.80111
624.77370 1.79161
622.72526 1.81158
620.67682 1.83106
618.62838 1.82219
616.57995 1.79529
614.53151 1.78266
612.48307 1.80053
610.43463 1.82984
608.38619 1.82756
606.33775 1.77722
604.28932 1.72229
602.24088 1.70841
600.19244 1.72369
598.14400 1.73615
