3996.50324 1.05237
3994.45480 1.05218
3992.40636 1.05248
3990.35792 1.05275
3988.30948 1.05289
3986.26104 1.05311
3984.21261 1.05315
3982.16417 1.05288
3980.11573 1.05259
3978.06729 1.05199
3976.01885 1.05118
3973.97041 1.05108
3971.92198 1.05147
3969.87354 1.05152
3967.82510 1.05113
3965.77666 1.05076
3963.72822 1.05100
3961.67978 1.05171
3959.63135 1.05171
3957.58291 1.05103
3955.53447 1.05083
3953.48603 1.05094
3951.43759 1.05076
3949.38915 1.05100
3947.34072 1.05194
3945.29228 1.05221
3943.24384 1.05234
3941.19540 1.05352
3939.14696 1.05422
3937.09852 1.05382
3935.05009 1.05264
3933.00165 1.05179
3930.95321 1.05268
3928.90477 1.05341
3926.85633 1.05249
3924.80789 1.05185
3922.75946 1.05187
3920.71102 1.05091
3918.66258 1.04987
3916.61414 1.05048
3914.56570 1.05153
3912.51726 1.05149
3910.46883 1.05086
3908.42039 1.04937
3906.37195 1.04688
3904.32351 1.04596
3902.27507 1.04767
3900.22663 1.05005
3898.17820 1.05232
3896.12976 1.05239
3894.08132 1.05018
3892.03288 1.04946
3889.98444 1.05096
3887.93600 1.05014
3885.88756 1.04930
3883.83913 1.05052
3881.79069 1.05081
3879.74225 1.05225
3877.69381 1.05289
3875.64537 1.05105
3873.59693 1.04989
3871.54850 1.04981
3869.50006 1.05100
3867.45162 1.05142
3865.40318 1.05019
3863.35474 1.05121
3861.30630 1.05278
3859.25787 1.05154
3857.20943 1.04777
3855.16099 1.04319
3853.11255 1.04617
3851.06411 1.05363
3849.01567 1.05484
3846.96724 1.05306
3844.91880 1.05067
3842.87036 1.04876
3840.82192 1.04727
3838.77348 1.04760
3836.72504 1.05066
3834.67661 1.05229
3832.62817 1.05275
3830.57973 1.05353
3828.53129 1.05328
3826.48285 1.05262
3824.43441 1.05105
3822.38598 1.04822
3820.33754 1.04902
3818.28910 1.05056
3816.24066 1.05136
3814.19222 1.05352
3812.14378 1.05356
3810.09535 1.05153
3808.04691 1.04979
3805.99847 1.04975
3803.95003 1.04862
3801.90159 1.04893
3799.85315 1.05212
3797.80472 1.05291
3795.75628 1.05429
3793.70784 1.05597
3791.65940 1.05604
3789.61096 1.05599
3787.56252 1.05582
3785.51409 1.05534
3783.46565 1.05491
3781.41721 1.05413
3779.36877 1.05472
3777.32033 1.05616
3775.27189 1.05529
3773.22346 1.05264
3771.17502 1.05047
3769.12658 1.05091
3767.07814 1.05204
3765.02970 1.05241
3762.98126 1.05196
3760.93283 1.05034
3758.88439 1.05003
3756.83595 1.05089
3754.78751 1.04959
3752.73907 1.04681
3750.69063 1.04780
3748.64219 1.05106
3746.59376 1.05037
3744.54532 1.05162
3742.49688 1.05508
3740.44844 1.05369
3738.40000 1.04986
3736.35156 1.04845
3734.30313 1.05183
3732.25469 1.05529
3730.20625 1.05564
3728.15781 1.05400
3726.10937 1.05305
3724.06093 1.05387
3722.01250 1.05517
3719.96406 1.05657
3717.91562 1.05690
3715.86718 1.05505
3713.81874 1.05178
3711.77030 1.05154
3709.72187 1.05636
3707.67343 1.05891
3705.62499 1.05818
3703.57655 1.05694
3701.52811 1.05818
3699.47967 1.06015
3697.43124 1.06007
3695.38280 1.05893
3693.33436 1.05680
3691.28592 1.05473
3689.23748 1.05735
3687.18904 1.06271
3685.14061 1.06452
3683.09217 1.06395
3681.04373 1.06289
3678.99529 1.06150
3676.94685 1.06100
3674.89841 1.06598
3672.84998 1.06880
3670.80154 1.06764
3668.75310 1.06999
3666.70466 1.07213
3664.65622 1.07154
3662.60778 1.07083
3660.55935 1.07056
3658.51091 1.06975
3656.46247 1.06979
3654.41403 1.07017
3652.36559 1.06714
3650.31715 1.06350
3648.26872 1.06869
3646.22028 1.07576
3644.17184 1.07732
3642.12340 1.07691
3640.07496 1.07691
3638.02652 1.07736
3635.97809 1.07812
3633.92965 1.07879
3631.88121 1.07786
3629.83277 1.07708
3627.78433 1.08132
3625.73589 1.08469
3623.68746 1.08477
3621.63902 1.08393
3619.59058 1.08459
3617.54214 1.08741
3615.49370 1.08846
3613.44526 1.08849
3611.39682 1.08940
3609.34839 1.09091
3607.29995 1.09381
3605.25151 1.09620
3603.20307 1.09654
3601.15463 1.09665
3599.10619 1.09742
3597.05776 1.09783
3595.00932 1.09875
3592.96088 1.10092
3590.91244 1.10154
3588.86400 1.10069
3586.81556 1.10288
3584.76713 1.10622
3582.71869 1.10683
3580.67025 1.10639
3578.62181 1.10657
3576.57337 1.10727
3574.52493 1.10788
3572.47650 1.10797
3570.42806 1.10684
3568.37962 1.10554
3566.33118 1.10818
3564.28274 1.11239
3562.23430 1.11387
3560.18587 1.11439
3558.13743 1.11565
3556.08899 1.11673
3554.04055 1.11699
3551.99211 1.11762
3549.94367 1.11831
3547.89524 1.11838
3545.84680 1.11914
3543.79836 1.12096
3541.74992 1.12242
3539.70148 1.12290
3537.65304 1.12298
3535.60461 1.12353
3533.55617 1.12403
3531.50773 1.12361
3529.45929 1.12290
3527.41085 1.12295
3525.36241 1.12348
3523.31398 1.12417
3521.26554 1.12508
3519.21710 1.12596
3517.16866 1.12678
3515.12022 1.12744
3513.07178 1.12803
3511.02335 1.12877
3508.97491 1.12976
3506.92647 1.13059
3504.87803 1.13090
3502.82959 1.13170
3500.78115 1.13320
3498.73272 1.13418
3496.68428 1.13459
3494.63584 1.13508
3492.58740 1.13562
3490.53896 1.13586
3488.49052 1.13592
3486.44209 1.13602
3484.39365 1.13585
3482.34521 1.13557
3480.29677 1.13592
3478.24833 1.13651
3476.19989 1.13647
3474.15146 1.13591
3472.10302 1.13585
3470.05458 1.13659
3468.00614 1.13768
3465.95770 1.13885
3463.90926 1.13999
3461.86082 1.14112
3459.81239 1.14212
3457.76395 1.14267
3455.71551 1.14307
3453.66707 1.14374
3451.61863 1.14426
3449.57019 1.14385
3447.52176 1.14322
3445.47332 1.14375
3443.42488 1.14463
3441.37644 1.14499
3439.32800 1.14525
3437.27956 1.14581
3435.23113 1.14622
3433.18269 1.14585
3431.13425 1.14503
3429.08581 1.14450
3427.03737 1.14456
3424.98893 1.14485
3422.94050 1.14489
3420.89206 1.14493
3418.84362 1.14568
3416.79518 1.14687
3414.74674 1.14750
3412.69830 1.14748
3410.64987 1.14743
3408.60143 1.14738
3406.55299 1.14744
3404.50455 1.14783
3402.45611 1.14863
3400.40767 1.14965
3398.35924 1.15021
3396.31080 1.15037
3394.26236 1.15064
3392.21392 1.15106
3390.16548 1.15124
3388.11704 1.15099
3386.06861 1.15027
3384.02017 1.14912
3381.97173 1.14822
3379.92329 1.14794
3377.87485 1.14780
3375.82641 1.14752
3373.77798 1.14718
3371.72954 1.14667
3369.68110 1.14580
3367.63266 1.14479
3365.58422 1.14414
3363.53578 1.14403
3361.48735 1.14434
3359.43891 1.14490
3357.39047 1.14554
3355.34203 1.14657
3353.29359 1.14805
3351.24515 1.14904
3349.19672 1.14915
3347.14828 1.14887
3345.09984 1.14849
3343.05140 1.14808
3341.00296 1.14753
3338.95452 1.14706
3336.90609 1.14705
3334.85765 1.14697
3332.80921 1.14629
3330.76077 1.14524
3328.71233 1.14419
3326.66389 1.14327
3324.61545 1.14237
3322.56702 1.14171
3320.51858 1.14175
3318.47014 1.14211
3316.42170 1.14222
3314.37326 1.14244
3312.32482 1.14299
3310.27639 1.14361
3308.22795 1.14420
3306.17951 1.14503
3304.13107 1.14636
3302.08263 1.14753
3300.03419 1.14758
3297.98576 1.14690
3295.93732 1.14623
3293.88888 1.14547
3291.84044 1.14452
3289.79200 1.14409
3287.74356 1.14423
3285.69513 1.14423
3283.64669 1.14406
3281.59825 1.14392
3279.54981 1.14378
3277.50137 1.14326
3275.45293 1.14231
3273.40450 1.14176
3271.35606 1.14194
3269.30762 1.14208
3267.25918 1.14170
3265.21074 1.14145
3263.16230 1.14168
3261.11387 1.14163
3259.06543 1.14100
3257.01699 1.14038
3254.96855 1.14049
3252.92011 1.14119
3250.87167 1.14152
3248.82324 1.14133
3246.77480 1.14133
3244.72636 1.14167
3242.67792 1.14165
3240.62948 1.14114
3238.58104 1.14107
3236.53261 1.14171
3234.48417 1.14213
3232.43573 1.14167
3230.38729 1.14053
3228.33885 1.13944
3226.29041 1.13878
3224.24198 1.13805
3222.19354 1.13695
3220.14510 1.13617
3218.09666 1.13602
3216.04822 1.13601
3213.99978 1.13608
3211.95135 1.13654
3209.90291 1.13743
3207.85447 1.13804
3205.80603 1.13742
3203.75759 1.13599
3201.70915 1.13481
3199.66072 1.13383
3197.61228 1.13259
3195.56384 1.13165
3193.51540 1.13170
3191.46696 1.13194
3189.41852 1.13153
3187.37008 1.13107
3185.32165 1.13114
3183.27321 1.13150
3181.22477 1.13146
3179.17633 1.13076
3177.12789 1.12986
3175.07945 1.12904
3173.03102 1.12833
3170.98258 1.12799
3168.93414 1.12806
3166.88570 1.12826
3164.83726 1.12820
3162.78882 1.12774
3160.74039 1.12724
3158.69195 1.12702
3156.64351 1.12681
3154.59507 1.12641
3152.54663 1.12586
3150.49819 1.12517
3148.44976 1.12427
3146.40132 1.12334
3144.35288 1.12279
3142.30444 1.12252
3140.25600 1.12223
3138.20756 1.12210
3136.15913 1.12199
3134.11069 1.12135
3132.06225 1.12046
3130.01381 1.11983
3127.96537 1.11918
3125.91693 1.11845
3123.86850 1.11812
3121.82006 1.11819
3119.77162 1.11831
3117.72318 1.11841
3115.67474 1.11821
3113.62630 1.11762
3111.57787 1.11708
3109.52943 1.11674
3107.48099 1.11646
3105.43255 1.11623
3103.38411 1.11594
3101.33567 1.11565
3099.28724 1.11535
3097.23880 1.11502
3095.19036 1.11495
3093.14192 1.11503
3091.09348 1.11500
3089.04504 1.11472
3086.99661 1.11423
3084.94817 1.11372
3082.89973 1.11335
3080.85129 1.11330
3078.80285 1.11361
3076.75441 1.11396
3074.70598 1.11406
3072.65754 1.11393
3070.60910 1.11356
3068.56066 1.11323
3066.51222 1.11332
3064.46378 1.11351
3062.41535 1.11299
3060.36691 1.11192
3058.31847 1.11102
3056.27003 1.11026
3054.22159 1.10939
3052.17315 1.10848
3050.12471 1.10798
3048.07628 1.10801
3046.02784 1.10799
3043.97940 1.10806
3041.93096 1.10837
3039.88252 1.10827
3037.83408 1.10799
3035.78565 1.10805
3033.73721 1.10824
3031.68877 1.10841
3029.64033 1.10853
3027.59189 1.10846
3025.54345 1.10823
3023.49502 1.10810
3021.44658 1.10808
3019.39814 1.10797
3017.34970 1.10811
3015.30126 1.10872
3013.25282 1.10922
3011.20439 1.10893
3009.15595 1.10805
3007.10751 1.10731
3005.05907 1.10700
3003.01063 1.10676
3000.96219 1.10635
2998.91376 1.10583
2996.86532 1.10543
2994.81688 1.10571
2992.76844 1.10678
2990.72000 1.10800
2988.67156 1.10896
2986.62313 1.10946
2984.57469 1.10937
2982.52625 1.10919
2980.47781 1.10974
2978.42937 1.11130
2976.38093 1.11333
2974.33250 1.11533
2972.28406 1.11770
2970.23562 1.12086
2968.18718 1.12425
2966.13874 1.12729
2964.09030 1.12961
2962.04187 1.13095
2959.99343 1.13158
2957.94499 1.13174
2955.89655 1.13136
2953.84811 1.13070
2951.79967 1.13038
2949.75124 1.13043
2947.70280 1.13035
2945.65436 1.12997
2943.60592 1.12982
2941.55748 1.13035
2939.50904 1.13171
2937.46061 1.13412
2935.41217 1.13723
2933.36373 1.14046
2931.31529 1.14362
2929.26685 1.14637
2927.21841 1.14836
2925.16998 1.14978
2923.12154 1.15097
2921.07310 1.15156
2919.02466 1.15071
2916.97622 1.14844
2914.92778 1.14540
2912.87934 1.14168
2910.83091 1.13751
2908.78247 1.13407
2906.73403 1.13177
2904.68559 1.12954
2902.63715 1.12691
2900.58871 1.12471
2898.54028 1.12317
2896.49184 1.12165
2894.44340 1.11999
2892.39496 1.11850
2890.34652 1.11718
2888.29808 1.11555
2886.24965 1.11358
2884.20121 1.11207
2882.15277 1.11169
2880.10433 1.11197
2878.05589 1.11220
2876.00745 1.11230
2873.95902 1.11245
2871.91058 1.11286
2869.86214 1.11351
2867.81370 1.11452
2865.76526 1.11593
2863.71682 1.11760
2861.66839 1.11945
2859.61995 1.12128
2857.57151 1.12336
2855.52307 1.12571
2853.47463 1.12743
2851.42619 1.12754
2849.37776 1.12530
2847.32932 1.12121
2845.28088 1.11664
2843.23244 1.11221
2841.18400 1.10844
2839.13556 1.10586
2837.08713 1.10398
2835.03869 1.10239
2832.99025 1.10121
2830.94181 1.10029
2828.89337 1.09953
2826.84493 1.09923
2824.79650 1.09944
2822.74806 1.09947
2820.69962 1.09871
2818.65118 1.09761
2816.60274 1.09693
2814.55430 1.09669
2812.50587 1.09649
2810.45743 1.09598
2808.40899 1.09528
2806.36055 1.09491
2804.31211 1.09497
2802.26367 1.09526
2800.21524 1.09567
2798.16680 1.09599
2796.11836 1.09577
2794.06992 1.09466
2792.02148 1.09318
2789.97304 1.09218
2787.92461 1.09185
2785.87617 1.09181
2783.82773 1.09189
2781.77929 1.09219
2779.73085 1.09262
2777.68241 1.09283
2775.63397 1.09271
2773.58554 1.09229
2771.53710 1.09170
2769.48866 1.09102
2767.44022 1.09026
2765.39178 1.08972
2763.34334 1.08933
2761.29491 1.08878
2759.24647 1.08843
2757.19803 1.08868
2755.14959 1.08934
2753.10115 1.08992
2751.05271 1.09007
2749.00428 1.08983
2746.95584 1.08971
2744.90740 1.09018
2742.85896 1.09090
2740.81052 1.09121
2738.76208 1.09132
2736.71365 1.09145
2734.66521 1.09092
2732.61677 1.08971
2730.56833 1.08879
2728.51989 1.08870
2726.47145 1.08930
2724.42302 1.08962
2722.37458 1.08936
2720.32614 1.08919
2718.27770 1.08915
2716.22926 1.08926
2714.18082 1.08963
2712.13239 1.08975
2710.08395 1.08922
2708.03551 1.08820
2705.98707 1.08731
2703.93863 1.08705
2701.89019 1.08710
2699.84176 1.08705
2697.79332 1.08692
2695.74488 1.08688
2693.69644 1.08682
2691.64800 1.08649
2689.59956 1.08613
2687.55113 1.08606
2685.50269 1.08601
2683.45425 1.08574
2681.40581 1.08548
2679.35737 1.08513
2677.30893 1.08446
2675.26050 1.08363
2673.21206 1.08267
2671.16362 1.08166
2669.11518 1.08117
2667.06674 1.08143
2665.01830 1.08202
2662.96987 1.08257
2660.92143 1.08303
2658.87299 1.08348
2656.82455 1.08406
2654.77611 1.08443
2652.72767 1.08448
2650.67924 1.08447
2648.63080 1.08427
2646.58236 1.08369
2644.53392 1.08313
2642.48548 1.08297
2640.43704 1.08318
2638.38860 1.08350
2636.34017 1.08377
2634.29173 1.08392
2632.24329 1.08403
2630.19485 1.08379
2628.14641 1.08283
2626.09797 1.08177
2624.04954 1.08114
2622.00110 1.08083
2619.95266 1.08056
2617.90422 1.07997
2615.85578 1.07913
2613.80734 1.07850
2611.75891 1.07814
2609.71047 1.07781
2607.66203 1.07741
2605.61359 1.07682
2603.56515 1.07609
2601.51671 1.07563
2599.46828 1.07575
2597.41984 1.07615
2595.37140 1.07631
2593.32296 1.07649
2591.27452 1.07697
2589.22608 1.07735
2587.17765 1.07757
2585.12921 1.07787
2583.08077 1.07823
2581.03233 1.07858
2578.98389 1.07911
2576.93545 1.07972
2574.88702 1.07990
2572.83858 1.07958
2570.79014 1.07930
2568.74170 1.07935
2566.69326 1.07926
2564.64482 1.07865
2562.59639 1.07793
2560.54795 1.07739
2558.49951 1.07685
2556.45107 1.07643
2554.40263 1.07614
2552.35419 1.07582
2550.30576 1.07592
2548.25732 1.07662
2546.20888 1.07735
2544.16044 1.07765
2542.11200 1.07783
2540.06356 1.07848
2538.01513 1.07941
2535.96669 1.08012
2533.91825 1.08063
2531.86981 1.08106
2529.82137 1.08106
2527.77293 1.08030
2525.72450 1.07942
2523.67606 1.07910
2521.62762 1.07896
2519.57918 1.07857
2517.53074 1.07829
2515.48230 1.07861
2513.43387 1.07952
2511.38543 1.08058
2509.33699 1.08129
2507.28855 1.08188
2505.24011 1.08269
2503.19167 1.08320
2501.14324 1.08296
2499.09480 1.08235
2497.04636 1.08206
2494.99792 1.08229
2492.94948 1.08267
2490.90104 1.08331
2488.85260 1.08447
2486.80417 1.08570
2484.75573 1.08654
2482.70729 1.08718
2480.65885 1.08765
2478.61041 1.08752
2476.56197 1.08687
2474.51354 1.08648
2472.46510 1.08631
2470.41666 1.08605
2468.36822 1.08602
2466.31978 1.08637
2464.27134 1.08699
2462.22291 1.08778
2460.17447 1.08846
2458.12603 1.08882
2456.07759 1.08913
2454.02915 1.08986
2451.98071 1.09112
2449.93228 1.09251
2447.88384 1.09375
2445.83540 1.09506
2443.78696 1.09663
2441.73852 1.09875
2439.69008 1.10159
2437.64165 1.10498
2435.59321 1.10886
2433.54477 1.11326
2431.49633 1.11812
2429.44789 1.12266
2427.39945 1.12460
2425.35102 1.12202
2423.30258 1.11590
2421.25414 1.10896
2419.20570 1.10307
2417.15726 1.09880
2415.10882 1.09590
2413.06039 1.09405
2411.01195 1.09321
2408.96351 1.09305
2406.91507 1.09320
2404.86663 1.09364
2402.81819 1.09423
2400.76976 1.09472
2398.72132 1.09475
2396.67288 1.09418
2394.62444 1.09356
2392.57600 1.09342
2390.52756 1.09359
2388.47913 1.09337
2386.43069 1.09199
2384.38225 1.08951
2382.33381 1.08673
2380.28537 1.08422
2378.23693 1.08205
2376.18850 1.08023
2374.14006 1.07867
2372.09162 1.07700
2370.04318 1.07532
2367.99474 1.07393
2365.94630 1.07234
2363.89787 1.07061
2361.84943 1.06982
2359.80099 1.06956
2357.75255 1.07069
2355.70411 1.07468
2353.65567 1.07976
2351.60723 1.08349
2349.55880 1.08377
2347.51036 1.08105
2345.46192 1.07766
2343.41348 1.07579
2341.36504 1.07555
2339.31660 1.07673
2337.26817 1.07851
2335.21973 1.07890
2333.17129 1.07752
2331.12285 1.07634
2329.07441 1.07614
2327.02597 1.07588
2324.97754 1.07604
2322.92910 1.07722
2320.88066 1.07889
2318.83222 1.08071
2316.78378 1.08208
2314.73534 1.08256
2312.68691 1.08260
2310.63847 1.08278
2308.59003 1.08357
2306.54159 1.08467
2304.49315 1.08546
2302.44471 1.08597
2300.39628 1.08626
2298.34784 1.08633
2296.29940 1.08623
2294.25096 1.08605
2292.20252 1.08578
2290.15408 1.08509
2288.10565 1.08419
2286.05721 1.08356
2284.00877 1.08297
2281.96033 1.08218
2279.91189 1.08129
2277.86345 1.08068
2275.81502 1.08063
2273.76658 1.08097
2271.71814 1.08133
2269.66970 1.08166
2267.62126 1.08209
2265.57282 1.08257
2263.52439 1.08308
2261.47595 1.08363
2259.42751 1.08414
2257.37907 1.08452
2255.33063 1.08498
2253.28219 1.08564
2251.23376 1.08630
2249.18532 1.08666
2247.13688 1.08621
2245.08844 1.08501
2243.04000 1.08388
2240.99156 1.08325
2238.94313 1.08308
2236.89469 1.08326
2234.84625 1.08359
2232.79781 1.08368
2230.74937 1.08323
2228.70093 1.08248
2226.65250 1.08204
2224.60406 1.08193
2222.55562 1.08192
2220.50718 1.08204
2218.45874 1.08201
2216.41030 1.08144
2214.36186 1.08073
2212.31343 1.08070
2210.26499 1.08160
2208.21655 1.08269
2206.16811 1.08329
2204.11967 1.08359
2202.07123 1.08404
2200.02280 1.08476
2197.97436 1.08550
2195.92592 1.08578
2193.87748 1.08551
2191.82904 1.08511
2189.78060 1.08450
2187.73217 1.08348
2185.68373 1.08272
2183.63529 1.08270
2181.58685 1.08271
2179.53841 1.08183
2177.48997 1.08040
2175.44154 1.07924
2173.39310 1.07838
2171.34466 1.07789
2169.29622 1.07812
2167.24778 1.07874
2165.19934 1.07921
2163.15091 1.07969
2161.10247 1.08050
2159.05403 1.08137
2157.00559 1.08210
2154.95715 1.08291
2152.90871 1.08396
2150.86028 1.08486
2148.81184 1.08514
2146.76340 1.08483
2144.71496 1.08411
2142.66652 1.08305
2140.61808 1.08222
2138.56965 1.08202
2136.52121 1.08204
2134.47277 1.08193
2132.42433 1.08176
2130.37589 1.08161
2128.32745 1.08149
2126.27902 1.08145
2124.23058 1.08137
2122.18214 1.08083
2120.13370 1.08013
2118.08526 1.07988
2116.03682 1.07998
2113.98839 1.08011
2111.93995 1.07994
2109.89151 1.07951
2107.84307 1.07946
2105.79463 1.08009
2103.74619 1.08061
2101.69776 1.08027
2099.64932 1.07980
2097.60088 1.08008
2095.55244 1.08048
2093.50400 1.08035
2091.45556 1.08027
2089.40713 1.08073
2087.35869 1.08109
2085.31025 1.08084
2083.26181 1.08048
2081.21337 1.08031
2079.16493 1.08014
2077.11649 1.08024
2075.06806 1.08069
2073.01962 1.08088
2070.97118 1.08063
2068.92274 1.08043
2066.87430 1.08072
2064.82586 1.08135
2062.77743 1.08147
2060.72899 1.08116
2058.68055 1.08122
2056.63211 1.08157
2054.58367 1.08166
2052.53523 1.08180
2050.48680 1.08237
2048.43836 1.08303
2046.38992 1.08333
2044.34148 1.08322
2042.29304 1.08317
2040.24460 1.08355
2038.19617 1.08417
2036.14773 1.08434
2034.09929 1.08364
2032.05085 1.08271
2030.00241 1.08193
2027.95397 1.08078
2025.90554 1.07951
2023.85710 1.07872
2021.80866 1.07836
2019.76022 1.07806
2017.71178 1.07779
2015.66334 1.07786
2013.61491 1.07816
2011.56647 1.07844
2009.51803 1.07882
2007.46959 1.07962
2005.42115 1.08080
2003.37271 1.08196
2001.32428 1.08256
1999.27584 1.08217
1997.22740 1.08133
1995.17896 1.08043
1993.13052 1.07987
1991.08208 1.08057
1989.03365 1.08185
1986.98521 1.08249
1984.93677 1.08217
1982.88833 1.08116
1980.83989 1.08030
1978.79145 1.08020
1976.74302 1.08061
1974.69458 1.08059
1972.64614 1.07989
1970.59770 1.07885
1968.54926 1.07784
1966.50082 1.07817
1964.45239 1.07971
1962.40395 1.08106
1960.35551 1.08223
1958.30707 1.08322
1956.25863 1.08364
1954.21019 1.08400
1952.16176 1.08463
1950.11332 1.08472
1948.06488 1.08416
1946.01644 1.08355
1943.96800 1.08311
1941.91956 1.08307
1939.87112 1.08345
1937.82269 1.08383
1935.77425 1.08391
1933.72581 1.08392
1931.67737 1.08430
1929.62893 1.08480
1927.58049 1.08476
1925.53206 1.08389
1923.48362 1.08316
1921.43518 1.08298
1919.38674 1.08212
1917.33830 1.08107
1915.28986 1.08052
1913.24143 1.08006
1911.19299 1.08005
1909.14455 1.08085
1907.09611 1.08175
1905.04767 1.08231
1902.99923 1.08321
1900.95080 1.08419
1898.90236 1.08449
1896.85392 1.08438
1894.80548 1.08454
1892.75704 1.08461
1890.70860 1.08438
1888.66017 1.08477
1886.61173 1.08551
1884.56329 1.08648
1882.51485 1.08813
1880.46641 1.08961
1878.41797 1.09023
1876.36954 1.09019
1874.32110 1.08953
1872.27266 1.08770
1870.22422 1.08558
1868.17578 1.08629
1866.12734 1.08934
1864.07891 1.09071
1862.03047 1.09011
1859.98203 1.08936
1857.93359 1.08930
1855.88515 1.08936
1853.83671 1.08950
1851.78828 1.08971
1849.73984 1.08906
1847.69140 1.08741
1845.64296 1.08613
1843.59452 1.08745
1841.54608 1.08945
1839.49765 1.08949
1837.44921 1.08879
1835.40077 1.08826
1833.35233 1.08678
1831.30389 1.08412
1829.25545 1.08291
1827.20702 1.08365
1825.15858 1.08488
1823.11014 1.08668
1821.06170 1.08743
1819.01326 1.08675
1816.96482 1.08638
1814.91639 1.08702
1812.86795 1.08814
1810.81951 1.09050
1808.77107 1.09391
1806.72263 1.09632
1804.67419 1.09673
1802.62575 1.09578
1800.57732 1.09537
1798.52888 1.09572
1796.48044 1.09521
1794.43200 1.09368
1792.38356 1.09312
1790.33512 1.09475
1788.28669 1.09570
1786.23825 1.09566
1784.18981 1.09629
1782.14137 1.09756
1780.09293 1.09892
1778.04449 1.09933
1775.99606 1.09750
1773.94762 1.09433
1771.89918 1.09339
1769.85074 1.09571
1767.80230 1.09820
1765.75386 1.09928
1763.70543 1.09881
1761.65699 1.09939
1759.60855 1.10151
1757.56011 1.10349
1755.51167 1.10520
1753.46323 1.10520
1751.41480 1.10427
1749.36636 1.10484
1747.31792 1.10617
1745.26948 1.10685
1743.22104 1.10736
1741.17260 1.10873
1739.12417 1.11121
1737.07573 1.11215
1735.02729 1.11155
1732.97885 1.11368
1730.93041 1.11650
1728.88197 1.11780
1726.83354 1.11779
1724.78510 1.11641
1722.73666 1.11465
1720.68822 1.11211
1718.63978 1.10848
1716.59134 1.10853
1714.54291 1.11282
1712.49447 1.11559
1710.44603 1.11674
1708.39759 1.11683
1706.34915 1.11739
1704.30071 1.11866
1702.25228 1.11757
1700.20384 1.11557
1698.15540 1.11652
1696.10696 1.12038
1694.05852 1.12467
1692.01008 1.12519
1689.96165 1.12326
1687.91321 1.12050
1685.86477 1.11718
1683.81633 1.11818
1681.76789 1.12288
1679.71945 1.12425
1677.67102 1.12352
1675.62258 1.12306
1673.57414 1.12305
1671.52570 1.12140
1669.47726 1.12165
1667.42882 1.12528
1665.38038 1.12699
1663.33195 1.12797
1661.28351 1.13073
1659.23507 1.13329
1657.18663 1.13371
1655.13819 1.13189
1653.08975 1.13404
1651.04132 1.13907
1648.99288 1.13783
1646.94444 1.13697
1644.89600 1.13967
1642.84756 1.14019
1640.79912 1.13878
1638.75069 1.13632
1636.70225 1.13502
1634.65381 1.13891
1632.60537 1.14105
1630.55693 1.13963
1628.50849 1.13762
1626.46006 1.13623
1624.41162 1.13507
1622.36318 1.13444
1620.31474 1.13342
1618.26630 1.13200
1616.21786 1.13319
1614.16943 1.13487
1612.12099 1.13372
1610.07255 1.13184
1608.02411 1.13131
1605.97567 1.13166
1603.92723 1.13159
1601.87880 1.13128
1599.83036 1.13090
1597.78192 1.13001
1595.73348 1.12902
1593.68504 1.12840
1591.63660 1.12753
1589.58817 1.12637
1587.53973 1.12547
1585.49129 1.12434
1583.44285 1.12251
1581.39441 1.12050
1579.34597 1.11805
1577.29754 1.11550
1575.24910 1.11532
1573.20066 1.11462
1571.15222 1.11153
1569.10378 1.10922
1567.05534 1.10900
1565.00691 1.10914
1562.95847 1.10855
1560.91003 1.10543
1558.86159 1.10369
1556.81315 1.10929
1554.76471 1.11394
1552.71628 1.11765
1550.66784 1.11952
1548.61940 1.11944
1546.57096 1.11764
1544.52252 1.11475
1542.47408 1.11197
1540.42565 1.11316
1538.37721 1.11857
1536.32877 1.11895
1534.28033 1.11592
1532.23189 1.11242
1530.18345 1.10862
1528.13501 1.10433
1526.08658 1.10135
1524.03814 1.09957
1521.98970 1.09942
1519.94126 1.10166
1517.89282 1.10290
1515.84438 1.10426
1513.79595 1.10552
1511.74751 1.10497
1509.69907 1.10216
1507.65063 1.10144
1505.60219 1.11007
1503.55375 1.11374
1501.50532 1.11247
1499.45688 1.11018
1497.40844 1.10973
1495.36000 1.11159
1493.31156 1.11171
1491.26312 1.11025
1489.21469 1.11088
1487.16625 1.11361
1485.11781 1.11484
1483.06937 1.11468
1481.02093 1.11418
1478.97249 1.11310
1476.92406 1.11077
1474.87562 1.10845
1472.82718 1.11003
1470.77874 1.11542
1468.73030 1.11933
1466.68186 1.12248
1464.63343 1.12676
1462.58499 1.12920
1460.53655 1.12761
1458.48811 1.12495
1456.43967 1.12771
1454.39123 1.13145
1452.34280 1.13178
1450.29436 1.13107
1448.24592 1.13150
1446.19748 1.13363
1444.14904 1.13539
1442.10060 1.13562
1440.05217 1.13390
1438.00373 1.13070
1435.95529 1.12805
1433.90685 1.12638
1431.85841 1.12450
1429.80997 1.12305
1427.76154 1.12211
1425.71310 1.12103
1423.66466 1.12002
1421.61622 1.11889
1419.56778 1.11844
1417.51934 1.12044
1415.47091 1.12237
1413.42247 1.12335
1411.37403 1.12408
1409.32559 1.12408
1407.27715 1.12266
1405.22871 1.12037
1403.18028 1.11816
1401.13184 1.11633
1399.08340 1.11558
1397.03496 1.11549
1394.98652 1.11507
1392.93808 1.11481
1390.88965 1.11454
1388.84121 1.11478
1386.79277 1.11702
1384.74433 1.12011
1382.69589 1.12163
1380.64745 1.12121
1378.59901 1.11983
1376.55058 1.11828
1374.50214 1.11650
1372.45370 1.11483
1370.40526 1.11443
1368.35682 1.11633
1366.30838 1.11872
1364.25995 1.11923
1362.21151 1.11897
1360.16307 1.11892
1358.11463 1.11819
1356.06619 1.11686
1354.01775 1.11556
1351.96932 1.11439
1349.92088 1.11313
1347.87244 1.11162
1345.82400 1.11035
1343.77556 1.10944
1341.72712 1.10796
1339.67869 1.10655
1337.63025 1.10751
1335.58181 1.11120
1333.53337 1.11653
1331.48493 1.12190
1329.43649 1.12563
1327.38806 1.12696
1325.33962 1.12644
1323.29118 1.12555
1321.24274 1.12513
1319.19430 1.12496
1317.14586 1.12442
1315.09743 1.12270
1313.04899 1.11974
1311.00055 1.11685
1308.95211 1.11511
1306.90367 1.11407
1304.85523 1.11355
1302.80680 1.11428
1300.75836 1.11634
1298.70992 1.11858
1296.66148 1.12005
1294.61304 1.12178
1292.56460 1.12455
1290.51617 1.12654
1288.46773 1.12721
1286.41929 1.12878
1284.37085 1.13158
1282.32241 1.13390
1280.27397 1.13522
1278.22554 1.13604
1276.17710 1.13644
1274.12866 1.13643
1272.08022 1.13705
1270.03178 1.13981
1267.98334 1.14406
1265.93491 1.14716
1263.88647 1.14723
1261.83803 1.14458
1259.78959 1.14090
1257.74115 1.13732
1255.69271 1.13399
1253.64428 1.13188
1251.59584 1.13188
1249.54740 1.13224
1247.49896 1.13100
1245.45052 1.12936
1243.40208 1.12908
1241.35364 1.13011
1239.30521 1.13150
1237.25677 1.13297
1235.20833 1.13479
1233.15989 1.13730
1231.11145 1.14024
1229.06301 1.14176
1227.01458 1.14093
1224.96614 1.13856
1222.91770 1.13582
1220.86926 1.13448
1218.82082 1.13483
1216.77238 1.13502
1214.72395 1.13474
1212.67551 1.13475
1210.62707 1.13478
1208.57863 1.13511
1206.53019 1.13597
1204.48175 1.13643
1202.43332 1.13645
1200.38488 1.13689
1198.33644 1.13781
1196.28800 1.13889
1194.23956 1.13975
1192.19112 1.14082
1190.14269 1.14327
1188.09425 1.14741
1186.04581 1.15292
1183.99737 1.15800
1181.94893 1.16046
1179.90049 1.16074
1177.85206 1.15988
1175.80362 1.15825
1173.75518 1.15649
1171.70674 1.15428
1169.65830 1.15211
1167.60986 1.15192
1165.56143 1.15388
1163.51299 1.15576
1161.46455 1.15529
1159.41611 1.15303
1157.36767 1.15225
1155.31923 1.15417
1153.27080 1.15651
1151.22236 1.15791
1149.17392 1.15946
1147.12548 1.16237
1145.07704 1.16651
1143.02860 1.17009
1140.98017 1.17119
1138.93173 1.17002
1136.88329 1.16894
1134.83485 1.16991
1132.78641 1.17215
1130.73797 1.17371
1128.68954 1.17471
1126.64110 1.17612
1124.59266 1.17807
1122.54422 1.18063
1120.49578 1.18284
1118.44734 1.18223
1116.39891 1.17848
1114.35047 1.17471
1112.30203 1.17369
1110.25359 1.17572
1108.20515 1.17975
1106.15671 1.18377
1104.10827 1.18612
1102.05984 1.18708
1100.01140 1.18855
1097.96296 1.19120
1095.91452 1.19303
1093.86608 1.19329
1091.81764 1.19341
1089.76921 1.19385
1087.72077 1.19401
1085.67233 1.19292
1083.62389 1.19030
1081.57545 1.18691
1079.52701 1.18327
1077.47858 1.17938
1075.43014 1.17493
1073.38170 1.17115
1071.33326 1.16945
1069.28482 1.16906
1067.23638 1.16948
1065.18795 1.17106
1063.13951 1.17335
1061.09107 1.17556
1059.04263 1.17774
1056.99419 1.18081
1054.94575 1.18408
1052.89732 1.18537
1050.84888 1.18545
1048.80044 1.18593
1046.75200 1.18497
1044.70356 1.18155
1042.65512 1.17810
1040.60669 1.17681
1038.55825 1.17649
1036.50981 1.17468
1034.46137 1.17192
1032.41293 1.17004
1030.36449 1.16962
1028.31606 1.17129
1026.26762 1.17506
1024.21918 1.17879
1022.17074 1.18129
1020.12230 1.18352
1018.07386 1.18490
1016.02543 1.18427
1013.97699 1.18282
1011.92855 1.18135
1009.88011 1.17902
1007.83167 1.17573
1005.78323 1.17139
1003.73480 1.16539
1001.68636 1.15895
999.63792 1.15484
997.58948 1.15368
995.54104 1.15375
993.49260 1.15468
991.44417 1.15688
989.39573 1.15892
987.34729 1.15890
985.29885 1.15697
983.25041 1.15380
981.20197 1.15002
979.15354 1.14709
977.10510 1.14527
975.05666 1.14392
973.00822 1.14346
970.95978 1.14464
968.91134 1.14708
966.86290 1.14861
964.81447 1.14745
962.76603 1.14497
960.71759 1.14328
958.66915 1.14321
956.62071 1.14590
954.57227 1.15115
952.52384 1.15665
950.47540 1.16096
948.42696 1.16451
946.37852 1.16758
944.33008 1.16967
942.28164 1.17003
940.23321 1.16835
938.18477 1.16629
936.13633 1.16590
934.08789 1.16717
932.03945 1.17036
929.99101 1.17483
927.94258 1.17759
925.89414 1.17835
923.84570 1.17895
921.79726 1.17863
919.74882 1.17670
917.70038 1.17556
915.65195 1.17749
913.60351 1.18258
911.55507 1.18996
909.50663 1.19806
907.45819 1.20427
905.40975 1.20668
903.36132 1.20716
901.31288 1.20855
899.26444 1.21083
897.21600 1.21259
895.16756 1.21258
893.11912 1.21147
891.07069 1.21166
889.02225 1.21286
886.97381 1.21310
884.92537 1.21386
882.87693 1.21710
880.82849 1.22157
878.78006 1.22560
876.73162 1.22851
874.68318 1.22989
872.63474 1.22985
870.58630 1.22953
868.53786 1.23036
866.48943 1.23317
864.44099 1.23737
862.39255 1.24199
860.34411 1.24715
858.29567 1.25245
856.24723 1.25649
854.19880 1.25927
852.15036 1.26289
850.10192 1.26885
848.05348 1.27565
846.00504 1.27968
843.95660 1.28085
841.90817 1.28335
839.85973 1.28814
837.81129 1.29145
835.76285 1.29170
833.71441 1.29184
831.66597 1.29285
829.61753 1.29373
827.56910 1.29469
825.52066 1.29548
823.47222 1.29651
821.42378 1.29681
819.37534 1.29416
817.32690 1.28923
815.27847 1.28441
813.23003 1.28094
811.18159 1.27795
809.13315 1.27625
807.08471 1.27852
805.03627 1.28456
802.98784 1.29085
800.93940 1.29335
798.89096 1.29188
796.84252 1.29085
794.79408 1.29446
792.74564 1.30362
790.69721 1.31508
788.64877 1.32310
786.60033 1.32676
784.55189 1.33105
782.50345 1.33890
780.45501 1.34805
778.40658 1.35494
776.35814 1.35939
774.30970 1.36278
772.26126 1.36426
770.21282 1.36339
768.16438 1.36276
766.11595 1.36360
764.06751 1.36369
762.01907 1.36325
759.97063 1.36507
757.92219 1.37066
755.87375 1.38091
753.82532 1.39515
751.77688 1.40891
749.72844 1.41781
747.68000 1.42344
745.63156 1.43025
743.58312 1.43964
741.53469 1.44914
739.48625 1.45673
737.43781 1.46305
735.38937 1.46541
733.34093 1.45948
731.29249 1.44815
729.24406 1.43818
727.19562 1.43279
725.14718 1.43174
723.09874 1.43308
721.05030 1.43294
719.00186 1.42786
716.95343 1.41951
714.90499 1.41540
712.85655 1.42320
710.80811 1.44212
708.75967 1.46073
706.71123 1.46953
704.66280 1.47486
702.61436 1.48659
700.56592 1.50105
698.51748 1.50829
696.46904 1.50487
694.42060 1.49370
692.37216 1.47850
690.32373 1.46168
688.27529 1.44623
686.22685 1.43610
684.17841 1.43150
682.12997 1.42943
680.08153 1.42778
678.03310 1.42788
675.98466 1.43177
673.93622 1.43595
671.88778 1.43597
669.83934 1.43169
667.79090 1.42729
665.74247 1.42305
663.69403 1.41570
661.64559 1.41157
659.59715 1.41977
657.54871 1.43960
655.50027 1.45710
653.45184 1.46379
651.40340 1.47104
649.35496 1.48528
647.30652 1.49526
645.25808 1.49547
643.20964 1.48840
641.16121 1.46803
639.11277 1.43714
637.06433 1.41260
635.01589 1.39726
632.96745 1.38215
630.91901 1.37144
628.87058 1.37526
626.82214 1.38976
624.77370 1.39954
622.72526 1.39327
620.67682 1.37646
618.62838 1.36032
616.57995 1.34511
614.53151 1.32943
612.48307 1.32172
610.43463 1.32298
608.38619 1.32164
606.33775 1.31168
604.28932 1.29527
602.24088 1.28105
600.19244 1.27597
598.14400 1.27703
