3996.50324 0.01639
3994.45480 0.01644
3992.40636 0.01652
3990.35792 0.01658
3988.30948 0.01655
3986.26104 0.01646
3984.21261 0.01642
3982.16417 0.01647
3980.11573 0.01651
3978.06729 0.01649
3976.01885 0.01649
3973.97041 0.01652
3971.92198 0.01655
3969.87354 0.01653
3967.82510 0.01646
3965.77666 0.01643
3963.72822 0.01648
3961.67978 0.01653
3959.63135 0.01655
3957.58291 0.01656
3955.53447 0.01658
3953.48603 0.01659
3951.43759 0.01659
3949.38915 0.01652
3947.34072 0.01641
3945.29228 0.01644
3943.24384 0.01652
3941.19540 0.01655
3939.14696 0.01665
3937.09852 0.01675
3935.05009 0.01682
3933.00165 0.01679
3930.95321 0.01664
3928.90477 0.01666
3926.85633 0.01687
3924.80789 0.01699
3922.75946 0.01700
3920.71102 0.01709
3918.66258 0.01710
3916.61414 0.01696
3914.56570 0.01697
3912.51726 0.01714
3910.46883 0.01729
3908.42039 0.01745
3906.37195 0.01757
3904.32351 0.01733
3902.27507 0.01703
3900.22663 0.01699
3898.17820 0.01701
3896.12976 0.01719
3894.08132 0.01751
3892.03288 0.01755
3889.98444 0.01738
3887.93600 0.01756
3885.88756 0.01767
3883.83913 0.01747
3881.79069 0.01753
3879.74225 0.01752
3877.69381 0.01752
3875.64537 0.01773
3873.59693 0.01779
3871.54850 0.01770
3869.50006 0.01746
3867.45162 0.01743
3865.40318 0.01758
3863.35474 0.01741
3861.30630 0.01739
3859.25787 0.01770
3857.20943 0.01805
3855.16099 0.01823
3853.11255 0.01736
3851.06411 0.01668
3849.01567 0.01713
3846.96724 0.01771
3844.91880 0.01797
3842.87036 0.01791
3840.82192 0.01770
3838.77348 0.01726
3836.72504 0.01682
3834.67661 0.01684
3832.62817 0.01700
3830.57973 0.01712
3828.53129 0.01729
3826.48285 0.01737
3824.43441 0.01741
3822.38598 0.01738
3820.33754 0.01683
3818.28910 0.01656
3816.24066 0.01654
3814.19222 0.01650
3812.14378 0.01680
3810.09535 0.01722
3808.04691 0.01730
3805.99847 0.01694
3803.95003 0.01681
3801.90159 0.01666
3799.85315 0.01629
3797.80472 0.01640
3795.75628 0.01658
3793.70784 0.01670
3791.65940 0.01684
3789.61096 0.01686
3787.56252 0.01680
3785.51409 0.01667
3783.46565 0.01661
3781.41721 0.01671
3779.36877 0.01662
3777.32033 0.01641
3775.27189 0.01647
3773.22346 0.01665
3771.17502 0.01670
3769.12658 0.01650
3767.07814 0.01637
3765.02970 0.01637
3762.98126 0.01653
3760.93283 0.01680
3758.88439 0.01669
3756.83595 0.01642
3754.78751 0.01656
3752.73907 0.01670
3750.69063 0.01597
3748.64219 0.01528
3746.59376 0.01547
3744.54532 0.01552
3742.49688 0.01537
3740.44844 0.01567
3738.40000 0.01611
3736.35156 0.01617
3734.30313 0.01575
3732.25469 0.01557
3730.20625 0.01582
3728.15781 0.01614
3726.10937 0.01616
3724.06093 0.01589
3722.01250 0.01576
3719.96406 0.01578
3717.91562 0.01594
3715.86718 0.01623
3713.81874 0.01650
3711.77030 0.01626
3709.72187 0.01573
3707.67343 0.01576
3705.62499 0.01608
3703.57655 0.01631
3701.52811 0.01614
3699.47967 0.01593
3697.43124 0.01601
3695.38280 0.01615
3693.33436 0.01627
3691.28592 0.01626
3689.23748 0.01585
3687.18904 0.01562
3685.14061 0.01586
3683.09217 0.01613
3681.04373 0.01627
3678.99529 0.01637
3676.94685 0.01638
3674.89841 0.01581
3672.84998 0.01553
3670.80154 0.01563
3668.75310 0.01550
3666.70466 0.01566
3664.65622 0.01600
3662.60778 0.01610
3660.55935 0.01610
3658.51091 0.01617
3656.46247 0.01602
3654.41403 0.01581
3652.36559 0.01594
3650.31715 0.01587
3648.26872 0.01513
3646.22028 0.01497
3644.17184 0.01531
3642.12340 0.01556
3640.07496 0.01553
3638.02652 0.01540
3635.97809 0.01532
3633.92965 0.01530
3631.88121 0.01540
3629.83277 0.01528
3627.78433 0.01467
3625.73589 0.01463
3623.68746 0.01496
3621.63902 0.01516
3619.59058 0.01503
3617.54214 0.01478
3615.49370 0.01472
3613.44526 0.01463
3611.39682 0.01447
3609.34839 0.01438
3607.29995 0.01432
3605.25151 0.01435
3603.20307 0.01443
3601.15463 0.01437
3599.10619 0.01423
3597.05776 0.01415
3595.00932 0.01408
3592.96088 0.01408
3590.91244 0.01416
3588.86400 0.01408
3586.81556 0.01373
3584.76713 0.01364
3582.71869 0.01381
3580.67025 0.01390
3578.62181 0.01390
3576.57337 0.01390
3574.52493 0.01391
3572.47650 0.01392
3570.42806 0.01397
3568.37962 0.01387
3566.33118 0.01346
3564.28274 0.01329
3562.23430 0.01340
3560.18587 0.01347
3558.13743 0.01348
3556.08899 0.01350
3554.04055 0.01342
3551.99211 0.01322
3549.94367 0.01310
3547.89524 0.01308
3545.84680 0.01301
3543.79836 0.01291
3541.74992 0.01289
3539.70148 0.01293
3537.65304 0.01292
3535.60461 0.01283
3533.55617 0.01277
3531.50773 0.01276
3529.45929 0.01279
3527.41085 0.01280
3525.36241 0.01275
3523.31398 0.01265
3521.26554 0.01261
3519.21710 0.01263
3517.16866 0.01266
3515.12022 0.01267
3513.07178 0.01261
3511.02335 0.01252
3508.97491 0.01249
3506.92647 0.01251
3504.87803 0.01249
3502.82959 0.01242
3500.78115 0.01241
3498.73272 0.01243
3496.68428 0.01240
3494.63584 0.01232
3492.58740 0.01228
3490.53896 0.01226
3488.49052 0.01221
3486.44209 0.01217
3484.39365 0.01219
3482.34521 0.01220
3480.29677 0.01217
3478.24833 0.01216
3476.19989 0.01219
3474.15146 0.01223
3472.10302 0.01230
3470.05458 0.01236
3468.00614 0.01236
3465.95770 0.01235
3463.90926 0.01231
3461.86082 0.01226
3459.81239 0.01227
3457.76395 0.01233
3455.71551 0.01238
3453.66707 0.01242
3451.61863 0.01244
3449.57019 0.01243
3447.52176 0.01242
3445.47332 0.01246
3443.42488 0.01252
3441.37644 0.01254
3439.32800 0.01256
3437.27956 0.01258
3435.23113 0.01259
3433.18269 0.01259
3431.13425 0.01259
3429.08581 0.01255
3427.03737 0.01251
3424.98893 0.01251
3422.94050 0.01252
3420.89206 0.01252
3418.84362 0.01250
3416.79518 0.01247
3414.74674 0.01248
3412.69830 0.01252
3410.64987 0.01255
3408.60143 0.01257
3406.55299 0.01257
3404.50455 0.01256
3402.45611 0.01259
3400.40767 0.01264
3398.35924 0.01266
3396.31080 0.01264
3394.26236 0.01260
3392.21392 0.01258
3390.16548 0.01260
3388.11704 0.01262
3386.06861 0.01261
3384.02017 0.01261
3381.97173 0.01263
3379.92329 0.01263
3377.87485 0.01261
3375.82641 0.01259
3373.77798 0.01262
3371.72954 0.01264
3369.68110 0.01260
3367.63266 0.01258
3365.58422 0.01263
3363.53578 0.01267
3361.48735 0.01264
3359.43891 0.01258
3357.39047 0.01251
3355.34203 0.01249
3353.29359 0.01257
3351.24515 0.01265
3349.19672 0.01261
3347.14828 0.01253
3345.09984 0.01250
3343.05140 0.01245
3341.00296 0.01240
3338.95452 0.01244
3336.90609 0.01250
3334.85765 0.01246
3332.80921 0.01239
3330.76077 0.01241
3328.71233 0.01244
3326.66389 0.01243
3324.61545 0.01239
3322.56702 0.01234
3320.51858 0.01228
3318.47014 0.01223
3316.42170 0.01224
3314.37326 0.01226
3312.32482 0.01226
3310.27639 0.01227
3308.22795 0.01229
3306.17951 0.01227
3304.13107 0.01220
3302.08263 0.01213
3300.03419 0.01211
3297.98576 0.01212
3295.93732 0.01213
3293.88888 0.01211
3291.84044 0.01210
3289.79200 0.01210
3287.74356 0.01206
3285.69513 0.01198
3283.64669 0.01197
3281.59825 0.01203
3279.54981 0.01210
3277.50137 0.01212
3275.45293 0.01208
3273.40450 0.01206
3271.35606 0.01206
3269.30762 0.01208
3267.25918 0.01213
3265.21074 0.01216
3263.16230 0.01216
3261.11387 0.01212
3259.06543 0.01205
3257.01699 0.01204
3254.96855 0.01207
3252.92011 0.01210
3250.87167 0.01213
3248.82324 0.01215
3246.77480 0.01214
3244.72636 0.01215
3242.67792 0.01217
3240.62948 0.01217
3238.58104 0.01215
3236.53261 0.01214
3234.48417 0.01215
3232.43573 0.01218
3230.38729 0.01220
3228.33885 0.01219
3226.29041 0.01226
3224.24198 0.01236
3222.19354 0.01236
3220.14510 0.01229
3218.09666 0.01224
3216.04822 0.01227
3213.99978 0.01233
3211.95135 0.01237
3209.90291 0.01240
3207.85447 0.01241
3205.80603 0.01239
3203.75759 0.01241
3201.70915 0.01247
3199.66072 0.01252
3197.61228 0.01260
3195.56384 0.01267
3193.51540 0.01268
3191.46696 0.01269
3189.41852 0.01276
3187.37008 0.01285
3185.32165 0.01290
3183.27321 0.01288
3181.22477 0.01284
3179.17633 0.01281
3177.12789 0.01282
3175.07945 0.01290
3173.03102 0.01302
3170.98258 0.01312
3168.93414 0.01315
3166.88570 0.01313
3164.83726 0.01310
3162.78882 0.01309
3160.74039 0.01312
3158.69195 0.01318
3156.64351 0.01325
3154.59507 0.01329
3152.54663 0.01329
3150.49819 0.01328
3148.44976 0.01331
3146.40132 0.01334
3144.35288 0.01337
3142.30444 0.01342
3140.25600 0.01347
3138.20756 0.01351
3136.15913 0.01356
3134.11069 0.01360
3132.06225 0.01366
3130.01381 0.01373
3127.96537 0.01372
3125.91693 0.01367
3123.86850 0.01369
3121.82006 0.01377
3119.77162 0.01383
3117.72318 0.01387
3115.67474 0.01391
3113.62630 0.01393
3111.57787 0.01393
3109.52943 0.01392
3107.48099 0.01391
3105.43255 0.01390
3103.38411 0.01387
3101.33567 0.01384
3099.28724 0.01386
3097.23880 0.01385
3095.19036 0.01381
3093.14192 0.01384
3091.09348 0.01392
3089.04504 0.01392
3086.99661 0.01384
3084.94817 0.01379
3082.89973 0.01380
3080.85129 0.01377
3078.80285 0.01372
3076.75441 0.01369
3074.70598 0.01369
3072.65754 0.01371
3070.60910 0.01371
3068.56066 0.01370
3066.51222 0.01368
3064.46378 0.01367
3062.41535 0.01367
3060.36691 0.01368
3058.31847 0.01365
3056.27003 0.01364
3054.22159 0.01366
3052.17315 0.01369
3050.12471 0.01369
3048.07628 0.01366
3046.02784 0.01363
3043.97940 0.01360
3041.93096 0.01360
3039.88252 0.01362
3037.83408 0.01364
3035.78565 0.01361
3033.73721 0.01356
3031.68877 0.01354
3029.64033 0.01355
3027.59189 0.01359
3025.54345 0.01361
3023.49502 0.01361
3021.44658 0.01358
3019.39814 0.01356
3017.34970 0.01356
3015.30126 0.01358
3013.25282 0.01358
3011.20439 0.01350
3009.15595 0.01337
3007.10751 0.01333
3005.05907 0.01336
3003.01063 0.01337
3000.96219 0.01335
2998.91376 0.01333
2996.86532 0.01332
2994.81688 0.01332
2992.76844 0.01333
2990.72000 0.01327
2988.67156 0.01320
2986.62313 0.01316
2984.57469 0.01316
2982.52625 0.01311
2980.47781 0.01296
2978.42937 0.01278
2976.38093 0.01267
2974.33250 0.01258
2972.28406 0.01245
2970.23562 0.01229
2968.18718 0.01214
2966.13874 0.01201
2964.09030 0.01189
2962.04187 0.01183
2959.99343 0.01181
2957.94499 0.01176
2955.89655 0.01171
2953.84811 0.01171
2951.79967 0.01174
2949.75124 0.01177
2947.70280 0.01178
2945.65436 0.01178
2943.60592 0.01174
2941.55748 0.01164
2939.50904 0.01154
2937.46061 0.01144
2935.41217 0.01130
2933.36373 0.01114
2931.31529 0.01103
2929.26685 0.01099
2927.21841 0.01097
2925.16998 0.01095
2923.12154 0.01097
2921.07310 0.01102
2919.02466 0.01109
2916.97622 0.01113
2914.92778 0.01118
2912.87934 0.01131
2910.83091 0.01150
2908.78247 0.01162
2906.73403 0.01171
2904.68559 0.01182
2902.63715 0.01193
2900.58871 0.01198
2898.54028 0.01202
2896.49184 0.01212
2894.44340 0.01226
2892.39496 0.01236
2890.34652 0.01240
2888.29808 0.01245
2886.24965 0.01253
2884.20121 0.01259
2882.15277 0.01259
2880.10433 0.01257
2878.05589 0.01254
2876.00745 0.01251
2873.95902 0.01247
2871.91058 0.01241
2869.86214 0.01237
2867.81370 0.01233
2865.76526 0.01231
2863.71682 0.01225
2861.66839 0.01212
2859.61995 0.01200
2857.57151 0.01190
2855.52307 0.01177
2853.47463 0.01167
2851.42619 0.01169
2849.37776 0.01180
2847.32932 0.01197
2845.28088 0.01218
2843.23244 0.01242
2841.18400 0.01269
2839.13556 0.01291
2837.08713 0.01309
2835.03869 0.01326
2832.99025 0.01340
2830.94181 0.01348
2828.89337 0.01352
2826.84493 0.01359
2824.79650 0.01366
2822.74806 0.01374
2820.69962 0.01385
2818.65118 0.01393
2816.60274 0.01397
2814.55430 0.01401
2812.50587 0.01406
2810.45743 0.01408
2808.40899 0.01411
2806.36055 0.01415
2804.31211 0.01421
2802.26367 0.01429
2800.21524 0.01436
2798.16680 0.01442
2796.11836 0.01450
2794.06992 0.01458
2792.02148 0.01464
2789.97304 0.01467
2787.92461 0.01468
2785.87617 0.01468
2783.82773 0.01471
2781.77929 0.01475
2779.73085 0.01477
2777.68241 0.01477
2775.63397 0.01476
2773.58554 0.01477
2771.53710 0.01479
2769.48866 0.01479
2767.44022 0.01478
2765.39178 0.01477
2763.34334 0.01475
2761.29491 0.01474
2759.24647 0.01473
2757.19803 0.01474
2755.14959 0.01475
2753.10115 0.01475
2751.05271 0.01476
2749.00428 0.01479
2746.95584 0.01481
2744.90740 0.01480
2742.85896 0.01480
2740.81052 0.01479
2738.76208 0.01478
2736.71365 0.01479
2734.66521 0.01479
2732.61677 0.01481
2730.56833 0.01485
2728.51989 0.01488
2726.47145 0.01492
2724.42302 0.01495
2722.37458 0.01497
2720.32614 0.01497
2718.27770 0.01495
2716.22926 0.01499
2714.18082 0.01509
2712.13239 0.01523
2710.08395 0.01532
2708.03551 0.01531
2705.98707 0.01528
2703.93863 0.01531
2701.89019 0.01531
2699.84176 0.01524
2697.79332 0.01516
2695.74488 0.01516
2693.69644 0.01519
2691.64800 0.01521
2689.59956 0.01523
2687.55113 0.01524
2685.50269 0.01524
2683.45425 0.01523
2681.40581 0.01521
2679.35737 0.01521
2677.30893 0.01522
2675.26050 0.01522
2673.21206 0.01519
2671.16362 0.01516
2669.11518 0.01514
2667.06674 0.01510
2665.01830 0.01506
2662.96987 0.01505
2660.92143 0.01508
2658.87299 0.01510
2656.82455 0.01508
2654.77611 0.01508
2652.72767 0.01513
2650.67924 0.01522
2648.63080 0.01525
2646.58236 0.01523
2644.53392 0.01520
2642.48548 0.01520
2640.43704 0.01520
2638.38860 0.01526
2636.34017 0.01535
2634.29173 0.01541
2632.24329 0.01546
2630.19485 0.01550
2628.14641 0.01552
2626.09797 0.01553
2624.04954 0.01555
2622.00110 0.01556
2619.95266 0.01552
2617.90422 0.01548
2615.85578 0.01547
2613.80734 0.01546
2611.75891 0.01545
2609.71047 0.01543
2607.66203 0.01538
2605.61359 0.01529
2603.56515 0.01523
2601.51671 0.01523
2599.46828 0.01525
2597.41984 0.01523
2595.37140 0.01518
2593.32296 0.01513
2591.27452 0.01507
2589.22608 0.01501
2587.17765 0.01496
2585.12921 0.01498
2583.08077 0.01503
2581.03233 0.01506
2578.98389 0.01508
2576.93545 0.01509
2574.88702 0.01507
2572.83858 0.01504
2570.79014 0.01502
2568.74170 0.01501
2566.69326 0.01498
2564.64482 0.01495
2562.59639 0.01495
2560.54795 0.01497
2558.49951 0.01502
2556.45107 0.01505
2554.40263 0.01505
2552.35419 0.01502
2550.30576 0.01500
2548.25732 0.01505
2546.20888 0.01510
2544.16044 0.01511
2542.11200 0.01512
2540.06356 0.01514
2538.01513 0.01515
2535.96669 0.01513
2533.91825 0.01507
2531.86981 0.01505
2529.82137 0.01510
2527.77293 0.01513
2525.72450 0.01513
2523.67606 0.01509
2521.62762 0.01502
2519.57918 0.01497
2517.53074 0.01492
2515.48230 0.01486
2513.43387 0.01483
2511.38543 0.01484
2509.33699 0.01485
2507.28855 0.01485
2505.24011 0.01480
2503.19167 0.01472
2501.14324 0.01466
2499.09480 0.01465
2497.04636 0.01465
2494.99792 0.01465
2492.94948 0.01468
2490.90104 0.01471
2488.85260 0.01475
2486.80417 0.01479
2484.75573 0.01482
2482.70729 0.01482
2480.65885 0.01483
2478.61041 0.01483
2476.56197 0.01484
2474.51354 0.01485
2472.46510 0.01487
2470.41666 0.01487
2468.36822 0.01486
2466.31978 0.01484
2464.27134 0.01482
2462.22291 0.01482
2460.17447 0.01481
2458.12603 0.01479
2456.07759 0.01475
2454.02915 0.01470
2451.98071 0.01469
2449.93228 0.01466
2447.88384 0.01460
2445.83540 0.01446
2443.78696 0.01427
2441.73852 0.01409
2439.69008 0.01392
2437.64165 0.01369
2435.59321 0.01334
2433.54477 0.01290
2431.49633 0.01247
2429.44789 0.01215
2427.39945 0.01206
2425.35102 0.01226
2423.30258 0.01269
2421.25414 0.01318
2419.20570 0.01359
2417.15726 0.01392
2415.10882 0.01422
2413.06039 0.01447
2411.01195 0.01462
2408.96351 0.01472
2406.91507 0.01479
2404.86663 0.01485
2402.81819 0.01491
2400.76976 0.01496
2398.72132 0.01500
2396.67288 0.01501
2394.62444 0.01505
2392.57600 0.01510
2390.52756 0.01513
2388.47913 0.01516
2386.43069 0.01521
2384.38225 0.01523
2382.33381 0.01521
2380.28537 0.01520
2378.23693 0.01521
2376.18850 0.01518
2374.14006 0.01505
2372.09162 0.01484
2370.04318 0.01459
2367.99474 0.01434
2365.94630 0.01409
2363.89787 0.01388
2361.84943 0.01376
2359.80099 0.01379
2357.75255 0.01393
2355.70411 0.01402
2353.65567 0.01414
2351.60723 0.01436
2349.55880 0.01462
2347.51036 0.01485
2345.46192 0.01493
2343.41348 0.01470
2341.36504 0.01437
2339.31660 0.01424
2337.26817 0.01436
2335.21973 0.01447
2333.17129 0.01443
2331.12285 0.01445
2329.07441 0.01461
2327.02597 0.01471
2324.97754 0.01474
2322.92910 0.01482
2320.88066 0.01494
2318.83222 0.01505
2316.78378 0.01515
2314.73534 0.01523
2312.68691 0.01528
2310.63847 0.01530
2308.59003 0.01530
2306.54159 0.01531
2304.49315 0.01538
2302.44471 0.01544
2300.39628 0.01542
2298.34784 0.01539
2296.29940 0.01540
2294.25096 0.01540
2292.20252 0.01539
2290.15408 0.01536
2288.10565 0.01530
2286.05721 0.01524
2284.00877 0.01518
2281.96033 0.01518
2279.91189 0.01523
2277.86345 0.01523
2275.81502 0.01520
2273.76658 0.01518
2271.71814 0.01518
2269.66970 0.01518
2267.62126 0.01516
2265.57282 0.01510
2263.52439 0.01507
2261.47595 0.01513
2259.42751 0.01521
2257.37907 0.01523
2255.33063 0.01519
2253.28219 0.01514
2251.23376 0.01514
2249.18532 0.01517
2247.13688 0.01516
2245.08844 0.01511
2243.04000 0.01509
2240.99156 0.01514
2238.94313 0.01517
2236.89469 0.01516
2234.84625 0.01516
2232.79781 0.01517
2230.74937 0.01517
2228.70093 0.01516
2226.65250 0.01515
2224.60406 0.01514
2222.55562 0.01515
2220.50718 0.01516
2218.45874 0.01518
2216.41030 0.01518
2214.36186 0.01519
2212.31343 0.01519
2210.26499 0.01519
2208.21655 0.01519
2206.16811 0.01521
2204.11967 0.01522
2202.07123 0.01523
2200.02280 0.01524
2197.97436 0.01527
2195.92592 0.01531
2193.87748 0.01536
2191.82904 0.01536
2189.78060 0.01533
2187.73217 0.01535
2185.68373 0.01541
2183.63529 0.01542
2181.58685 0.01542
2179.53841 0.01545
2177.48997 0.01552
2175.44154 0.01557
2173.39310 0.01559
2171.34466 0.01560
2169.29622 0.01563
2167.24778 0.01570
2165.19934 0.01575
2163.15091 0.01579
2161.10247 0.01582
2159.05403 0.01586
2157.00559 0.01590
2154.95715 0.01595
2152.90871 0.01601
2150.86028 0.01605
2148.81184 0.01607
2146.76340 0.01607
2144.71496 0.01608
2142.66652 0.01611
2140.61808 0.01616
2138.56965 0.01619
2136.52121 0.01622
2134.47277 0.01628
2132.42433 0.01634
2130.37589 0.01637
2128.32745 0.01642
2126.27902 0.01648
2124.23058 0.01649
2122.18214 0.01649
2120.13370 0.01651
2118.08526 0.01649
2116.03682 0.01648
2113.98839 0.01652
2111.93995 0.01660
2109.89151 0.01664
2107.84307 0.01667
2105.79463 0.01669
2103.74619 0.01667
2101.69776 0.01663
2099.64932 0.01662
2097.60088 0.01666
2095.55244 0.01673
2093.50400 0.01679
2091.45556 0.01680
2089.40713 0.01676
2087.35869 0.01669
2085.31025 0.01665
2083.26181 0.01662
2081.21337 0.01657
2079.16493 0.01651
2077.11649 0.01647
2075.06806 0.01645
2073.01962 0.01639
2070.97118 0.01633
2068.92274 0.01628
2066.87430 0.01625
2064.82586 0.01619
2062.77743 0.01607
2060.72899 0.01594
2058.68055 0.01585
2056.63211 0.01579
2054.58367 0.01571
2052.53523 0.01561
2050.48680 0.01554
2048.43836 0.01551
2046.38992 0.01547
2044.34148 0.01541
2042.29304 0.01536
2040.24460 0.01531
2038.19617 0.01525
2036.14773 0.01522
2034.09929 0.01523
2032.05085 0.01523
2030.00241 0.01521
2027.95397 0.01521
2025.90554 0.01524
2023.85710 0.01527
2021.80866 0.01528
2019.76022 0.01522
2017.71178 0.01514
2015.66334 0.01510
2013.61491 0.01515
2011.56647 0.01520
2009.51803 0.01521
2007.46959 0.01522
2005.42115 0.01526
2003.37271 0.01528
2001.32428 0.01530
1999.27584 0.01535
1997.22740 0.01537
1995.17896 0.01537
1993.13052 0.01538
1991.08208 0.01537
1989.03365 0.01541
1986.98521 0.01545
1984.93677 0.01544
1982.88833 0.01544
1980.83989 0.01543
1978.79145 0.01542
1976.74302 0.01543
1974.69458 0.01544
1972.64614 0.01545
1970.59770 0.01541
1968.54926 0.01529
1966.50082 0.01514
1964.45239 0.01510
1962.40395 0.01519
1960.35551 0.01531
1958.30707 0.01536
1956.25863 0.01535
1954.21019 0.01533
1952.16176 0.01538
1950.11332 0.01542
1948.06488 0.01544
1946.01644 0.01547
1943.96800 0.01551
1941.91956 0.01548
1939.87112 0.01550
1937.82269 0.01563
1935.77425 0.01571
1933.72581 0.01574
1931.67737 0.01579
1929.62893 0.01586
1927.58049 0.01593
1925.53206 0.01598
1923.48362 0.01599
1921.43518 0.01600
1919.38674 0.01609
1917.33830 0.01609
1915.28986 0.01605
1913.24143 0.01612
1911.19299 0.01619
1909.14455 0.01616
1907.09611 0.01615
1905.04767 0.01621
1902.99923 0.01628
1900.95080 0.01630
1898.90236 0.01627
1896.85392 0.01624
1894.80548 0.01621
1892.75704 0.01624
1890.70860 0.01628
1888.66017 0.01621
1886.61173 0.01616
1884.56329 0.01618
1882.51485 0.01620
1880.46641 0.01622
1878.41797 0.01621
1876.36954 0.01618
1874.32110 0.01620
1872.27266 0.01628
1870.22422 0.01632
1868.17578 0.01619
1866.12734 0.01615
1864.07891 0.01630
1862.03047 0.01644
1859.98203 0.01651
1857.93359 0.01656
1855.88515 0.01660
1853.83671 0.01664
1851.78828 0.01668
1849.73984 0.01670
1847.69140 0.01669
1845.64296 0.01666
1843.59452 0.01650
1841.54608 0.01641
1839.49765 0.01646
1837.44921 0.01650
1835.40077 0.01651
1833.35233 0.01655
1831.30389 0.01652
1829.25545 0.01633
1827.20702 0.01621
1825.15858 0.01614
1823.11014 0.01606
1821.06170 0.01611
1819.01326 0.01616
1816.96482 0.01611
1814.91639 0.01606
1812.86795 0.01601
1810.81951 0.01592
1808.77107 0.01583
1806.72263 0.01582
1804.67419 0.01582
1802.62575 0.01576
1800.57732 0.01561
1798.52888 0.01551
1796.48044 0.01554
1794.43200 0.01563
1792.38356 0.01551
1790.33512 0.01527
1788.28669 0.01529
1786.23825 0.01538
1784.18981 0.01534
1782.14137 0.01525
1780.09293 0.01513
1778.04449 0.01506
1775.99606 0.01507
1773.94762 0.01502
1771.89918 0.01482
1769.85074 0.01473
1767.80230 0.01473
1765.75386 0.01473
1763.70543 0.01469
1761.65699 0.01447
1759.60855 0.01428
1757.56011 0.01419
1755.51167 0.01410
1753.46323 0.01408
1751.41480 0.01394
1749.36636 0.01346
1747.31792 0.01305
1745.26948 0.01282
1743.22104 0.01264
1741.17260 0.01249
1739.12417 0.01244
1737.07573 0.01260
1735.02729 0.01279
1732.97885 0.01270
1730.93041 0.01273
1728.88197 0.01296
1726.83354 0.01320
1724.78510 0.01336
1722.73666 0.01343
1720.68822 0.01353
1718.63978 0.01359
1716.59134 0.01331
1714.54291 0.01315
1712.49447 0.01327
1710.44603 0.01339
1708.39759 0.01342
1706.34915 0.01333
1704.30071 0.01327
1702.25228 0.01336
1700.20384 0.01327
1698.15540 0.01300
1696.10696 0.01298
1694.05852 0.01311
1692.01008 0.01331
1689.96165 0.01344
1687.91321 0.01351
1685.86477 0.01354
1683.81633 0.01325
1681.76789 0.01310
1679.71945 0.01325
1677.67102 0.01340
1675.62258 0.01343
1673.57414 0.01338
1671.52570 0.01336
1669.47726 0.01324
1667.42882 0.01326
1665.38038 0.01344
1663.33195 0.01350
1661.28351 0.01349
1659.23507 0.01363
1657.18663 0.01384
1655.13819 0.01397
1653.08975 0.01359
1651.04132 0.01332
1648.99288 0.01350
1646.94444 0.01356
1644.89600 0.01360
1642.84756 0.01382
1640.79912 0.01404
1638.75069 0.01416
1636.70225 0.01407
1634.65381 0.01387
1632.60537 0.01394
1630.55693 0.01408
1628.50849 0.01415
1626.46006 0.01420
1624.41162 0.01417
1622.36318 0.01405
1620.31474 0.01410
1618.26630 0.01417
1616.21786 0.01401
1614.16943 0.01396
1612.12099 0.01412
1610.07255 0.01421
1608.02411 0.01420
1605.97567 0.01420
1603.92723 0.01421
1601.87880 0.01419
1599.83036 0.01420
1597.78192 0.01423
1595.73348 0.01422
1593.68504 0.01419
1591.63660 0.01419
1589.58817 0.01418
1587.53973 0.01417
1585.49129 0.01418
1583.44285 0.01419
1581.39441 0.01423
1579.34597 0.01429
1577.29754 0.01418
1575.24910 0.01400
1573.20066 0.01414
1571.15222 0.01431
1569.10378 0.01433
1567.05534 0.01441
1565.00691 0.01453
1562.95847 0.01465
1560.91003 0.01478
1558.86159 0.01439
1556.81315 0.01390
1554.76471 0.01409
1552.71628 0.01433
1550.66784 0.01440
1548.61940 0.01437
1546.57096 0.01439
1544.52252 0.01431
1542.47408 0.01400
1540.42565 0.01356
1538.37721 0.01360
1536.32877 0.01392
1534.28033 0.01405
1532.23189 0.01394
1530.18345 0.01395
1528.13501 0.01401
1526.08658 0.01398
1524.03814 0.01387
1521.98970 0.01359
1519.94126 0.01342
1517.89282 0.01352
1515.84438 0.01359
1513.79595 0.01367
1511.74751 0.01377
1509.69907 0.01374
1507.65063 0.01339
1505.60219 0.01316
1503.55375 0.01353
1501.50532 0.01388
1499.45688 0.01401
1497.40844 0.01393
1495.36000 0.01397
1493.31156 0.01417
1491.26312 0.01424
1489.21469 0.01405
1487.16625 0.01406
1485.11781 0.01433
1483.06937 0.01452
1481.02093 0.01451
1478.97249 0.01443
1476.92406 0.01434
1474.87562 0.01412
1472.82718 0.01366
1470.77874 0.01338
1468.73030 0.01343
1466.68186 0.01347
1464.63343 0.01338
1462.58499 0.01339
1460.53655 0.01349
1458.48811 0.01345
1456.43967 0.01323
1454.39123 0.01334
1452.34280 0.01359
1450.29436 0.01376
1448.24592 0.01380
1446.19748 0.01378
1444.14904 0.01381
1442.10060 0.01384
1440.05217 0.01388
1438.00373 0.01383
1435.95529 0.01367
1433.90685 0.01369
1431.85841 0.01383
1429.80997 0.01392
1427.76154 0.01402
1425.71310 0.01410
1423.66466 0.01410
1421.61622 0.01408
1419.56778 0.01399
1417.51934 0.01390
1415.47091 0.01407
1413.42247 0.01426
1411.37403 0.01436
1409.32559 0.01445
1407.27715 0.01453
1405.22871 0.01456
1403.18028 0.01458
1401.13184 0.01461
1399.08340 0.01461
1397.03496 0.01462
1394.98652 0.01465
1392.93808 0.01472
1390.88965 0.01482
1388.84121 0.01483
1386.79277 0.01475
1384.74433 0.01473
1382.69589 0.01477
1380.64745 0.01477
1378.59901 0.01473
1376.55058 0.01469
1374.50214 0.01468
1372.45370 0.01474
1370.40526 0.01484
1368.35682 0.01488
1366.30838 0.01488
1364.25995 0.01486
1362.21151 0.01478
1360.16307 0.01481
1358.11463 0.01491
1356.06619 0.01495
1354.01775 0.01495
1351.96932 0.01496
1349.92088 0.01499
1347.87244 0.01500
1345.82400 0.01502
1343.77556 0.01505
1341.72712 0.01505
1339.67869 0.01500
1337.63025 0.01498
1335.58181 0.01504
1333.53337 0.01512
1331.48493 0.01515
1329.43649 0.01513
1327.38806 0.01511
1325.33962 0.01514
1323.29118 0.01518
1321.24274 0.01514
1319.19430 0.01501
1317.14586 0.01496
1315.09743 0.01504
1313.04899 0.01507
1311.00055 0.01501
1308.95211 0.01497
1306.90367 0.01501
1304.85523 0.01504
1302.80680 0.01499
1300.75836 0.01492
1298.70992 0.01490
1296.66148 0.01495
1294.61304 0.01497
1292.56460 0.01493
1290.51617 0.01490
1288.46773 0.01490
1286.41929 0.01491
1284.37085 0.01493
1282.32241 0.01496
1280.27397 0.01498
1278.22554 0.01499
1276.17710 0.01499
1274.12866 0.01500
1272.08022 0.01497
1270.03178 0.01485
1267.98334 0.01469
1265.93491 0.01458
1263.88647 0.01455
1261.83803 0.01456
1259.78959 0.01460
1257.74115 0.01465
1255.69271 0.01469
1253.64428 0.01478
1251.59584 0.01488
1249.54740 0.01488
1247.49896 0.01480
1245.45052 0.01477
1243.40208 0.01478
1241.35364 0.01474
1239.30521 0.01469
1237.25677 0.01466
1235.20833 0.01463
1233.15989 0.01459
1231.11145 0.01461
1229.06301 0.01468
1227.01458 0.01471
1224.96614 0.01472
1222.91770 0.01471
1220.86926 0.01470
1218.82082 0.01471
1216.77238 0.01472
1214.72395 0.01472
1212.67551 0.01477
1210.62707 0.01484
1208.57863 0.01488
1206.53019 0.01487
1204.48175 0.01486
1202.43332 0.01485
1200.38488 0.01486
1198.33644 0.01490
1196.28800 0.01492
1194.23956 0.01491
1192.19112 0.01493
1190.14269 0.01502
1188.09425 0.01508
1186.04581 0.01506
1183.99737 0.01503
1181.94893 0.01502
1179.90049 0.01498
1177.85206 0.01489
1175.80362 0.01480
1173.75518 0.01476
1171.70674 0.01474
1169.65830 0.01467
1167.60986 0.01465
1165.56143 0.01467
1163.51299 0.01472
1161.46455 0.01483
1159.41611 0.01492
1157.36767 0.01494
1155.31923 0.01496
1153.27080 0.01505
1151.22236 0.01519
1149.17392 0.01531
1147.12548 0.01540
1145.07704 0.01550
1143.02860 0.01556
1140.98017 0.01554
1138.93173 0.01553
1136.88329 0.01558
1134.83485 0.01563
1132.78641 0.01563
1130.73797 0.01563
1128.68954 0.01564
1126.64110 0.01569
1124.59266 0.01580
1122.54422 0.01591
1120.49578 0.01589
1118.44734 0.01581
1116.39891 0.01582
1114.35047 0.01591
1112.30203 0.01596
1110.25359 0.01599
1108.20515 0.01601
1106.15671 0.01602
1104.10827 0.01605
1102.05984 0.01614
1100.01140 0.01623
1097.96296 0.01622
1095.91452 0.01622
1093.86608 0.01629
1091.81764 0.01639
1089.76921 0.01642
1087.72077 0.01643
1085.67233 0.01646
1083.62389 0.01648
1081.57545 0.01645
1079.52701 0.01641
1077.47858 0.01640
1075.43014 0.01644
1073.38170 0.01644
1071.33326 0.01641
1069.28482 0.01636
1067.23638 0.01631
1065.18795 0.01624
1063.13951 0.01611
1061.09107 0.01595
1059.04263 0.01580
1056.99419 0.01565
1054.94575 0.01552
1052.89732 0.01540
1050.84888 0.01522
1048.80044 0.01499
1046.75200 0.01477
1044.70356 0.01467
1042.65512 0.01469
1040.60669 0.01469
1038.55825 0.01464
1036.50981 0.01458
1034.46137 0.01459
1032.41293 0.01465
1030.36449 0.01465
1028.31606 0.01458
1026.26762 0.01460
1024.21918 0.01469
1022.17074 0.01470
1020.12230 0.01467
1018.07386 0.01470
1016.02543 0.01483
1013.97699 0.01493
1011.92855 0.01490
1009.88011 0.01485
1007.83167 0.01492
1005.78323 0.01505
1003.73480 0.01511
1001.68636 0.01509
999.63792 0.01513
997.58948 0.01522
995.54104 0.01526
993.49260 0.01522
991.44417 0.01522
989.39573 0.01531
987.34729 0.01542
985.29885 0.01548
983.25041 0.01550
981.20197 0.01555
979.15354 0.01561
977.10510 0.01563
975.05666 0.01560
973.00822 0.01564
970.95978 0.01572
968.91134 0.01575
966.86290 0.01575
964.81447 0.01579
962.76603 0.01584
960.71759 0.01591
958.66915 0.01596
956.62071 0.01599
954.57227 0.01607
952.52384 0.01618
950.47540 0.01620
948.42696 0.01618
946.37852 0.01621
944.33008 0.01630
942.28164 0.01642
940.23321 0.01656
938.18477 0.01670
936.13633 0.01683
934.08789 0.01690
932.03945 0.01690
929.99101 0.01699
927.94258 0.01717
925.89414 0.01726
923.84570 0.01723
921.79726 0.01719
919.74882 0.01711
917.70038 0.01705
915.65195 0.01705
913.60351 0.01701
911.55507 0.01695
909.50663 0.01697
907.45819 0.01694
905.40975 0.01682
903.36132 0.01671
901.31288 0.01665
899.26444 0.01658
897.21600 0.01644
895.16756 0.01629
893.11912 0.01614
891.07069 0.01597
889.02225 0.01581
886.97381 0.01569
884.92537 0.01558
882.87693 0.01545
880.82849 0.01535
878.78006 0.01540
876.73162 0.01560
874.68318 0.01575
872.63474 0.01576
870.58630 0.01574
868.53786 0.01578
866.48943 0.01582
864.44099 0.01584
862.39255 0.01586
860.34411 0.01590
858.29567 0.01593
856.24723 0.01595
854.19880 0.01597
852.15036 0.01601
850.10192 0.01602
848.05348 0.01594
846.00504 0.01589
843.95660 0.01586
841.90817 0.01574
839.85973 0.01557
837.81129 0.01549
835.76285 0.01549
833.71441 0.01545
831.66597 0.01536
829.61753 0.01528
827.56910 0.01514
825.52066 0.01486
823.47222 0.01463
821.42378 0.01463
819.37534 0.01465
817.32690 0.01449
815.27847 0.01433
813.23003 0.01432
811.18159 0.01433
809.13315 0.01425
807.08471 0.01413
805.03627 0.01396
802.98784 0.01384
800.93940 0.01379
798.89096 0.01354
796.84252 0.01296
794.79408 0.01236
792.74564 0.01196
790.69721 0.01174
788.64877 0.01155
786.60033 0.01121
784.55189 0.01068
782.50345 0.01009
780.45501 0.00955
778.40658 0.00915
776.35814 0.00896
774.30970 0.00895
772.26126 0.00891
770.21282 0.00860
768.16438 0.00813
766.11595 0.00778
764.06751 0.00760
762.01907 0.00736
759.97063 0.00696
757.92219 0.00649
755.87375 0.00620
753.82532 0.00612
751.77688 0.00609
749.72844 0.00606
747.68000 0.00606
745.63156 0.00610
743.58312 0.00614
741.53469 0.00600
739.48625 0.00565
737.43781 0.00525
735.38937 0.00501
733.34093 0.00500
731.29249 0.00512
729.24406 0.00516
727.19562 0.00495
725.14718 0.00450
723.09874 0.00418
721.05030 0.00423
719.00186 0.00437
716.95343 0.00430
714.90499 0.00408
712.85655 0.00383
710.80811 0.00363
708.75967 0.00362
706.71123 0.00369
704.66280 0.00370
702.61436 0.00374
700.56592 0.00369
698.51748 0.00344
696.46904 0.00327
694.42060 0.00345
692.37216 0.00381
690.32373 0.00416
688.27529 0.00461
686.22685 0.00514
684.17841 0.00554
682.12997 0.00572
680.08153 0.00588
678.03310 0.00595
675.98466 0.00580
673.93622 0.00565
671.88778 0.00555
669.83934 0.00543
667.79090 0.00540
665.74247 0.00553
663.69403 0.00562
661.64559 0.00557
659.59715 0.00527
657.54871 0.00470
655.50027 0.00411
653.45184 0.00358
651.40340 0.00294
649.35496 0.00271
647.30652 0.00328
645.25808 0.00369
643.20964 0.00367
641.16121 0.00421
639.11277 0.00529
637.06433 0.00605
635.01589 0.00648
632.96745 0.00695
630.91901 0.00734
628.87058 0.00734
626.82214 0.00669
624.77370 0.00588
622.72526 0.00602
620.67682 0.00680
618.62838 0.00723
616.57995 0.00764
614.53151 0.00817
612.48307 0.00806
610.43463 0.00774
608.38619 0.00790
606.33775 0.00789
604.28932 0.00755
602.24088 0.00782
600.19244 0.00868
598.14400 0.00900
