3996.50324 1.39064
3994.45480 1.39161
3992.40636 1.39215
3990.35792 1.39234
3988.30948 1.39230
3986.26104 1.39194
3984.21261 1.39176
3982.16417 1.39145
3980.11573 1.39027
3978.06729 1.38885
3976.01885 1.38878
3973.97041 1.38997
3971.92198 1.39048
3969.87354 1.39065
3967.82510 1.39142
3965.77666 1.39125
3963.72822 1.38976
3961.67978 1.38974
3959.63135 1.39065
3957.58291 1.39005
3955.53447 1.38933
3953.48603 1.38860
3951.43759 1.38722
3949.38915 1.38794
3947.34072 1.39078
3945.29228 1.39018
3943.24384 1.38953
3941.19540 1.39286
3939.14696 1.39349
3937.09852 1.39061
3935.05009 1.38727
3933.00165 1.38711
3930.95321 1.39262
3928.90477 1.39468
3926.85633 1.38926
3924.80789 1.38646
3922.75946 1.38847
3920.71102 1.38741
3918.66258 1.38711
3916.61414 1.39242
3914.56570 1.39545
3912.51726 1.39262
3910.46883 1.38921
3908.42039 1.38452
3906.37195 1.37736
3904.32351 1.37753
3902.27507 1.38792
3900.22663 1.39727
3898.17820 1.40123
3896.12976 1.39568
3894.08132 1.38437
3892.03288 1.38312
3889.98444 1.39166
3887.93600 1.38843
3885.88756 1.38415
3883.83913 1.38894
3881.79069 1.38953
3879.74225 1.39463
3877.69381 1.39605
3875.64537 1.38685
3873.59693 1.38186
3871.54850 1.38235
3869.50006 1.38966
3867.45162 1.39358
3865.40318 1.38819
3863.35474 1.39166
3861.30630 1.39705
3859.25787 1.39023
3857.20943 1.37486
3855.16099 1.36174
3853.11255 1.38432
3851.06411 1.41330
3849.01567 1.40763
3846.96724 1.39282
3844.91880 1.38172
3842.87036 1.37747
3840.82192 1.37623
3838.77348 1.38080
3836.72504 1.39304
3834.67661 1.39661
3832.62817 1.39412
3830.57973 1.39308
3828.53129 1.39010
3826.48285 1.38696
3824.43441 1.38110
3822.38598 1.37387
3820.33754 1.38509
3818.28910 1.39389
3816.24066 1.39511
3814.19222 1.40209
3812.14378 1.39768
3810.09535 1.38466
3808.04691 1.37875
3805.99847 1.38606
3803.95003 1.38509
3801.90159 1.38396
3799.85315 1.39661
3797.80472 1.39857
3795.75628 1.39783
3793.70784 1.39764
3791.65940 1.39254
3789.61096 1.38844
3787.56252 1.38624
3785.51409 1.38695
3783.46565 1.38956
3781.41721 1.38790
3779.36877 1.39029
3777.32033 1.39713
3775.27189 1.39524
3773.22346 1.38739
3771.17502 1.38326
3769.12658 1.38898
3767.07814 1.39457
3765.02970 1.39625
3762.98126 1.39404
3760.93283 1.38790
3758.88439 1.39055
3756.83595 1.39607
3754.78751 1.38815
3752.73907 1.37630
3750.69063 1.38633
3748.64219 1.40341
3746.59376 1.39884
3744.54532 1.40184
3742.49688 1.41409
3740.44844 1.40578
3738.40000 1.38848
3736.35156 1.38391
3734.30313 1.40124
3732.25469 1.41504
3730.20625 1.41230
3728.15781 1.40232
3726.10937 1.39726
3724.06093 1.40058
3722.01250 1.40427
3719.96406 1.40628
3717.91562 1.40488
3715.86718 1.39717
3713.81874 1.38617
3711.77030 1.38850
3709.72187 1.40701
3707.67343 1.41201
3705.62499 1.40475
3703.57655 1.39832
3701.52811 1.40347
3699.47967 1.41075
3697.43124 1.40904
3695.38280 1.40392
3693.33436 1.39683
3691.28592 1.39229
3689.23748 1.40602
3687.18904 1.42375
3685.14061 1.42299
3683.09217 1.41479
3681.04373 1.40817
3678.99529 1.40238
3676.94685 1.40043
3674.89841 1.41870
3672.84998 1.42762
3670.80154 1.42323
3668.75310 1.43506
3666.70466 1.44093
3664.65622 1.43397
3662.60778 1.42903
3660.55935 1.42758
3658.51091 1.42636
3656.46247 1.43164
3654.41403 1.43679
3652.36559 1.42693
3650.31715 1.42043
3648.26872 1.44602
3646.22028 1.46396
3644.17184 1.46000
3642.12340 1.45441
3640.07496 1.45452
3638.02652 1.45606
3635.97809 1.45626
3633.92965 1.45628
3631.88121 1.45180
3629.83277 1.45097
3627.78433 1.47316
3625.73589 1.48366
3623.68746 1.47530
3621.63902 1.46619
3619.59058 1.46884
3617.54214 1.48102
3615.49370 1.48381
3613.44526 1.48364
3611.39682 1.48624
3609.34839 1.48795
3607.29995 1.49427
3605.25151 1.49920
3603.20307 1.49691
3601.15463 1.49547
3599.10619 1.49715
3597.05776 1.49735
3595.00932 1.49975
3592.96088 1.50451
3590.91244 1.50299
3588.86400 1.50047
3586.81556 1.51024
3584.76713 1.51898
3582.71869 1.51741
3580.67025 1.51500
3578.62181 1.51565
3576.57337 1.51770
3574.52493 1.51984
3572.47650 1.51954
3570.42806 1.51467
3568.37962 1.51255
3566.33118 1.52405
3564.28274 1.53370
3562.23430 1.53225
3560.18587 1.53042
3558.13743 1.53212
3556.08899 1.53321
3554.04055 1.53242
3551.99211 1.53338
3549.94367 1.53468
3547.89524 1.53458
3545.84680 1.53815
3543.79836 1.54356
3541.74992 1.54452
3539.70148 1.54283
3537.65304 1.54245
3535.60461 1.54410
3533.55617 1.54466
3531.50773 1.54379
3529.45929 1.54537
3527.41085 1.54885
3525.36241 1.55057
3523.31398 1.55249
3521.26554 1.55498
3519.21710 1.55569
3517.16866 1.55562
3515.12022 1.55521
3513.07178 1.55407
3511.02335 1.55386
3508.97491 1.55584
3506.92647 1.55758
3504.87803 1.55810
3502.82959 1.56077
3500.78115 1.56397
3498.73272 1.56475
3496.68428 1.56531
3494.63584 1.56558
3492.58740 1.56477
3490.53896 1.56410
3488.49052 1.56442
3486.44209 1.56595
3484.39365 1.56741
3482.34521 1.56821
3480.29677 1.56934
3478.24833 1.57001
3476.19989 1.57014
3474.15146 1.57095
3472.10302 1.57160
3470.05458 1.57156
3468.00614 1.57196
3465.95770 1.57325
3463.90926 1.57509
3461.86082 1.57722
3459.81239 1.57914
3457.76395 1.58031
3455.71551 1.58085
3453.66707 1.58148
3451.61863 1.58255
3449.57019 1.58293
3447.52176 1.58300
3445.47332 1.58413
3443.42488 1.58514
3441.37644 1.58539
3439.32800 1.58516
3437.27956 1.58509
3435.23113 1.58624
3433.18269 1.58816
3431.13425 1.58957
3429.08581 1.58952
3427.03737 1.58875
3424.98893 1.58846
3422.94050 1.58805
3420.89206 1.58832
3418.84362 1.59049
3416.79518 1.59175
3414.74674 1.59081
3412.69830 1.59020
3410.64987 1.59053
3408.60143 1.59084
3406.55299 1.59075
3404.50455 1.59025
3402.45611 1.59040
3400.40767 1.59170
3398.35924 1.59293
3396.31080 1.59320
3394.26236 1.59318
3392.21392 1.59408
3390.16548 1.59488
3388.11704 1.59445
3386.06861 1.59405
3384.02017 1.59438
3381.97173 1.59443
3379.92329 1.59398
3377.87485 1.59403
3375.82641 1.59380
3373.77798 1.59277
3371.72954 1.59234
3369.68110 1.59244
3367.63266 1.59213
3365.58422 1.59192
3363.53578 1.59201
3361.48735 1.59158
3359.43891 1.59096
3357.39047 1.59081
3355.34203 1.59112
3353.29359 1.59123
3351.24515 1.59081
3349.19672 1.59081
3347.14828 1.59096
3345.09984 1.59017
3343.05140 1.58893
3341.00296 1.58810
3338.95452 1.58815
3336.90609 1.58845
3334.85765 1.58827
3332.80921 1.58798
3330.76077 1.58769
3328.71233 1.58765
3326.66389 1.58770
3324.61545 1.58764
3322.56702 1.58801
3320.51858 1.58810
3318.47014 1.58740
3316.42170 1.58658
3314.37326 1.58567
3312.32482 1.58508
3310.27639 1.58530
3308.22795 1.58567
3306.17951 1.58541
3304.13107 1.58445
3302.08263 1.58381
3300.03419 1.58379
3297.98576 1.58342
3295.93732 1.58290
3293.88888 1.58306
3291.84044 1.58317
3289.79200 1.58266
3287.74356 1.58265
3285.69513 1.58258
3283.64669 1.58220
3281.59825 1.58256
3279.54981 1.58264
3277.50137 1.58215
3275.45293 1.58177
3273.40450 1.58140
3271.35606 1.58106
3269.30762 1.58058
3267.25918 1.58035
3265.21074 1.58053
3263.16230 1.58059
3261.11387 1.57980
3259.06543 1.57863
3257.01699 1.57815
3254.96855 1.57833
3252.92011 1.57820
3250.87167 1.57685
3248.82324 1.57536
3246.77480 1.57468
3244.72636 1.57452
3242.67792 1.57402
3240.62948 1.57232
3238.58104 1.57043
3236.53261 1.56951
3234.48417 1.56943
3232.43573 1.56964
3230.38729 1.56941
3228.33885 1.56803
3226.29041 1.56641
3224.24198 1.56609
3222.19354 1.56629
3220.14510 1.56578
3218.09666 1.56483
3216.04822 1.56387
3213.99978 1.56345
3211.95135 1.56339
3209.90291 1.56329
3207.85447 1.56249
3205.80603 1.56049
3203.75759 1.55875
3201.70915 1.55773
3199.66072 1.55684
3197.61228 1.55637
3195.56384 1.55573
3193.51540 1.55411
3191.46696 1.55252
3189.41852 1.55192
3187.37008 1.55157
3185.32165 1.55099
3183.27321 1.55015
3181.22477 1.54866
3179.17633 1.54740
3177.12789 1.54721
3175.07945 1.54694
3173.03102 1.54608
3170.98258 1.54467
3168.93414 1.54294
3166.88570 1.54233
3164.83726 1.54226
3162.78882 1.54094
3160.74039 1.53914
3158.69195 1.53820
3156.64351 1.53787
3154.59507 1.53757
3152.54663 1.53717
3150.49819 1.53620
3148.44976 1.53417
3146.40132 1.53241
3144.35288 1.53195
3142.30444 1.53146
3140.25600 1.53010
3138.20756 1.52860
3136.15913 1.52769
3134.11069 1.52786
3132.06225 1.52831
3130.01381 1.52744
3127.96537 1.52595
3125.91693 1.52492
3123.86850 1.52406
3121.82006 1.52322
3119.77162 1.52258
3117.72318 1.52234
3115.67474 1.52254
3113.62630 1.52205
3111.57787 1.52002
3109.52943 1.51776
3107.48099 1.51637
3105.43255 1.51560
3103.38411 1.51491
3101.33567 1.51451
3099.28724 1.51444
3097.23880 1.51384
3095.19036 1.51309
3093.14192 1.51248
3091.09348 1.51166
3089.04504 1.51071
3086.99661 1.50998
3084.94817 1.50983
3082.89973 1.50984
3080.85129 1.50913
3078.80285 1.50788
3076.75441 1.50715
3074.70598 1.50666
3072.65754 1.50585
3070.60910 1.50498
3068.56066 1.50405
3066.51222 1.50336
3064.46378 1.50315
3062.41535 1.50257
3060.36691 1.50138
3058.31847 1.50026
3056.27003 1.49917
3054.22159 1.49783
3052.17315 1.49665
3050.12471 1.49622
3048.07628 1.49632
3046.02784 1.49630
3043.97940 1.49601
3041.93096 1.49550
3039.88252 1.49449
3037.83408 1.49299
3035.78565 1.49215
3033.73721 1.49239
3031.68877 1.49266
3029.64033 1.49225
3027.59189 1.49118
3025.54345 1.49003
3023.49502 1.48913
3021.44658 1.48866
3019.39814 1.48869
3017.34970 1.48865
3015.30126 1.48813
3013.25282 1.48725
3011.20439 1.48676
3009.15595 1.48696
3007.10751 1.48734
3005.05907 1.48751
3003.01063 1.48706
3000.96219 1.48640
2998.91376 1.48633
2996.86532 1.48635
2994.81688 1.48597
2992.76844 1.48613
2990.72000 1.48687
2988.67156 1.48745
2986.62313 1.48849
2984.57469 1.49054
2982.52625 1.49297
2980.47781 1.49512
2978.42937 1.49718
2976.38093 1.49941
2974.33250 1.50199
2972.28406 1.50560
2970.23562 1.51083
2968.18718 1.51652
2966.13874 1.52112
2964.09030 1.52407
2962.04187 1.52527
2959.99343 1.52580
2957.94499 1.52656
2955.89655 1.52707
2953.84811 1.52721
2951.79967 1.52702
2949.75124 1.52621
2947.70280 1.52541
2945.65436 1.52520
2943.60592 1.52555
2941.55748 1.52723
2939.50904 1.53020
2937.46061 1.53369
2935.41217 1.53774
2933.36373 1.54201
2931.31529 1.54599
2929.26685 1.54958
2927.21841 1.55278
2925.16998 1.55538
2923.12154 1.55664
2921.07310 1.55596
2919.02466 1.55330
2916.97622 1.54907
2914.92778 1.54362
2912.87934 1.53762
2910.83091 1.53208
2908.78247 1.52692
2906.73403 1.52173
2904.68559 1.51710
2902.63715 1.51386
2900.58871 1.51146
2898.54028 1.50902
2896.49184 1.50695
2894.44340 1.50495
2892.39496 1.50211
2890.34652 1.49928
2888.29808 1.49750
2886.24965 1.49597
2884.20121 1.49390
2882.15277 1.49246
2880.10433 1.49247
2878.05589 1.49325
2876.00745 1.49408
2873.95902 1.49466
2871.91058 1.49478
2869.86214 1.49474
2867.81370 1.49530
2865.76526 1.49660
2863.71682 1.49818
2861.66839 1.50046
2859.61995 1.50400
2857.57151 1.50786
2855.52307 1.51101
2853.47463 1.51349
2851.42619 1.51438
2849.37776 1.51197
2847.32932 1.50604
2845.28088 1.49834
2843.23244 1.49101
2841.18400 1.48482
2839.13556 1.47977
2837.08713 1.47613
2835.03869 1.47347
2832.99025 1.47102
2830.94181 1.46888
2828.89337 1.46707
2826.84493 1.46501
2824.79650 1.46263
2822.74806 1.46059
2820.69962 1.45919
2818.65118 1.45834
2816.60274 1.45788
2814.55430 1.45707
2812.50587 1.45536
2810.45743 1.45355
2808.40899 1.45273
2806.36055 1.45278
2804.31211 1.45253
2802.26367 1.45173
2800.21524 1.45110
2798.16680 1.45071
2796.11836 1.45020
2794.06992 1.44988
2792.02148 1.44980
2789.97304 1.44943
2787.92461 1.44874
2785.87617 1.44783
2783.82773 1.44702
2781.77929 1.44659
2779.73085 1.44611
2777.68241 1.44525
2775.63397 1.44448
2773.58554 1.44441
2771.53710 1.44466
2769.48866 1.44430
2767.44022 1.44335
2765.39178 1.44253
2763.34334 1.44186
2761.29491 1.44117
2759.24647 1.44086
2757.19803 1.44107
2755.14959 1.44085
2753.10115 1.43986
2751.05271 1.43940
2749.00428 1.43972
2746.95584 1.43972
2744.90740 1.43925
2742.85896 1.43888
2740.81052 1.43862
2738.76208 1.43818
2736.71365 1.43778
2734.66521 1.43788
2732.61677 1.43788
2730.56833 1.43727
2728.51989 1.43677
2726.47145 1.43637
2724.42302 1.43580
2722.37458 1.43592
2720.32614 1.43654
2718.27770 1.43651
2716.22926 1.43606
2714.18082 1.43596
2712.13239 1.43575
2710.08395 1.43504
2708.03551 1.43455
2705.98707 1.43415
2703.93863 1.43332
2701.89019 1.43259
2699.84176 1.43200
2697.79332 1.43150
2695.74488 1.43154
2693.69644 1.43204
2691.64800 1.43245
2689.59956 1.43231
2687.55113 1.43186
2685.50269 1.43134
2683.45425 1.43087
2681.40581 1.43034
2679.35737 1.42939
2677.30893 1.42838
2675.26050 1.42793
2673.21206 1.42802
2671.16362 1.42815
2669.11518 1.42789
2667.06674 1.42729
2665.01830 1.42691
2662.96987 1.42684
2660.92143 1.42656
2658.87299 1.42614
2656.82455 1.42599
2654.77611 1.42590
2652.72767 1.42555
2650.67924 1.42492
2648.63080 1.42425
2646.58236 1.42406
2644.53392 1.42415
2642.48548 1.42372
2640.43704 1.42306
2638.38860 1.42274
2636.34017 1.42242
2634.29173 1.42185
2632.24329 1.42144
2630.19485 1.42119
2628.14641 1.42078
2626.09797 1.42039
2624.04954 1.42016
2622.00110 1.41992
2619.95266 1.42004
2617.90422 1.42026
2615.85578 1.41981
2613.80734 1.41923
2611.75891 1.41876
2609.71047 1.41816
2607.66203 1.41793
2605.61359 1.41827
2603.56515 1.41838
2601.51671 1.41795
2599.46828 1.41751
2597.41984 1.41725
2595.37140 1.41701
2593.32296 1.41688
2591.27452 1.41677
2589.22608 1.41657
2587.17765 1.41632
2585.12921 1.41623
2583.08077 1.41652
2581.03233 1.41690
2578.98389 1.41682
2576.93545 1.41636
2574.88702 1.41609
2572.83858 1.41604
2570.79014 1.41590
2568.74170 1.41576
2566.69326 1.41566
2564.64482 1.41587
2562.59639 1.41639
2560.54795 1.41686
2558.49951 1.41687
2556.45107 1.41658
2554.40263 1.41649
2552.35419 1.41653
2550.30576 1.41633
2548.25732 1.41598
2546.20888 1.41617
2544.16044 1.41678
2542.11200 1.41696
2540.06356 1.41672
2538.01513 1.41673
2535.96669 1.41702
2533.91825 1.41731
2531.86981 1.41758
2529.82137 1.41787
2527.77293 1.41838
2525.72450 1.41887
2523.67606 1.41932
2521.62762 1.42024
2519.57918 1.42108
2517.53074 1.42128
2515.48230 1.42165
2513.43387 1.42260
2511.38543 1.42348
2509.33699 1.42389
2507.28855 1.42385
2505.24011 1.42378
2503.19167 1.42423
2501.14324 1.42482
2499.09480 1.42495
2497.04636 1.42509
2494.99792 1.42547
2492.94948 1.42567
2490.90104 1.42599
2488.85260 1.42684
2486.80417 1.42773
2484.75573 1.42840
2482.70729 1.42912
2480.65885 1.42992
2478.61041 1.43079
2476.56197 1.43164
2474.51354 1.43197
2472.46510 1.43188
2470.41666 1.43228
2468.36822 1.43320
2466.31978 1.43395
2464.27134 1.43455
2462.22291 1.43537
2460.17447 1.43640
2458.12603 1.43715
2456.07759 1.43748
2454.02915 1.43790
2451.98071 1.43892
2449.93228 1.44060
2447.88384 1.44276
2445.83540 1.44561
2443.78696 1.44912
2441.73852 1.45327
2439.69008 1.45870
2437.64165 1.46637
2435.59321 1.47676
2433.54477 1.48929
2431.49633 1.50280
2429.44789 1.51453
2427.39945 1.51940
2425.35102 1.51407
2423.30258 1.50099
2421.25414 1.48599
2419.20570 1.47269
2417.15726 1.46239
2415.10882 1.45525
2413.06039 1.45036
2411.01195 1.44682
2408.96351 1.44397
2406.91507 1.44197
2404.86663 1.44090
2402.81819 1.44009
2400.76976 1.43914
2398.72132 1.43835
2396.67288 1.43806
2394.62444 1.43765
2392.57600 1.43704
2390.52756 1.43664
2388.47913 1.43579
2386.43069 1.43430
2384.38225 1.43270
2382.33381 1.43093
2380.28537 1.42880
2378.23693 1.42671
2376.18850 1.42510
2374.14006 1.42380
2372.09162 1.42247
2370.04318 1.42163
2367.99474 1.42138
2365.94630 1.42032
2363.89787 1.41861
2361.84943 1.41827
2359.80099 1.42014
2357.75255 1.42332
2355.70411 1.42744
2353.65567 1.43339
2351.60723 1.43731
2349.55880 1.43295
2347.51036 1.42360
2345.46192 1.41895
2343.41348 1.42304
2341.36504 1.42736
2339.31660 1.42974
2337.26817 1.43169
2335.21973 1.43183
2333.17129 1.43065
2331.12285 1.42976
2329.07441 1.42762
2327.02597 1.42418
2324.97754 1.42316
2322.92910 1.42482
2320.88066 1.42669
2318.83222 1.42778
2316.78378 1.42775
2314.73534 1.42700
2312.68691 1.42631
2310.63847 1.42555
2308.59003 1.42522
2306.54159 1.42568
2304.49315 1.42571
2302.44471 1.42452
2300.39628 1.42317
2298.34784 1.42253
2296.29940 1.42246
2294.25096 1.42270
2292.20252 1.42266
2290.15408 1.42225
2288.10565 1.42197
2286.05721 1.42184
2284.00877 1.42154
2281.96033 1.42093
2279.91189 1.42031
2277.86345 1.42004
2275.81502 1.41995
2273.76658 1.41970
2271.71814 1.41917
2269.66970 1.41855
2267.62126 1.41792
2265.57282 1.41736
2263.52439 1.41710
2261.47595 1.41707
2259.42751 1.41688
2257.37907 1.41661
2255.33063 1.41690
2253.28219 1.41728
2251.23376 1.41694
2249.18532 1.41656
2247.13688 1.41650
2245.08844 1.41608
2243.04000 1.41520
2240.99156 1.41452
2238.94313 1.41440
2236.89469 1.41449
2234.84625 1.41430
2232.79781 1.41366
2230.74937 1.41303
2228.70093 1.41314
2226.65250 1.41373
2224.60406 1.41397
2222.55562 1.41383
2220.50718 1.41369
2218.45874 1.41346
2216.41030 1.41301
2214.36186 1.41254
2212.31343 1.41200
2210.26499 1.41136
2208.21655 1.41085
2206.16811 1.41059
2204.11967 1.41076
2202.07123 1.41117
2200.02280 1.41130
2197.97436 1.41103
2195.92592 1.41060
2193.87748 1.40998
2191.82904 1.40933
2189.78060 1.40914
2187.73217 1.40950
2185.68373 1.40979
2183.63529 1.40977
2181.58685 1.40975
2179.53841 1.40953
2177.48997 1.40886
2175.44154 1.40824
2173.39310 1.40827
2171.34466 1.40850
2169.29622 1.40837
2167.24778 1.40825
2165.19934 1.40844
2163.15091 1.40846
2161.10247 1.40815
2159.05403 1.40801
2157.00559 1.40796
2154.95715 1.40764
2152.90871 1.40708
2150.86028 1.40673
2148.81184 1.40697
2146.76340 1.40732
2144.71496 1.40736
2142.66652 1.40740
2140.61808 1.40749
2138.56965 1.40730
2136.52121 1.40684
2134.47277 1.40660
2132.42433 1.40674
2130.37589 1.40702
2128.32745 1.40749
2126.27902 1.40783
2124.23058 1.40745
2122.18214 1.40683
2120.13370 1.40664
2118.08526 1.40636
2116.03682 1.40584
2113.98839 1.40580
2111.93995 1.40572
2109.89151 1.40502
2107.84307 1.40473
2105.79463 1.40504
2103.74619 1.40516
2101.69776 1.40521
2099.64932 1.40506
2097.60088 1.40441
2095.55244 1.40409
2093.50400 1.40421
2091.45556 1.40414
2089.40713 1.40413
2087.35869 1.40431
2085.31025 1.40448
2083.26181 1.40475
2081.21337 1.40488
2079.16493 1.40454
2077.11649 1.40394
2075.06806 1.40368
2073.01962 1.40394
2070.97118 1.40402
2068.92274 1.40350
2066.87430 1.40297
2064.82586 1.40309
2062.77743 1.40356
2060.72899 1.40367
2058.68055 1.40332
2056.63211 1.40286
2054.58367 1.40265
2052.53523 1.40259
2050.48680 1.40264
2048.43836 1.40262
2046.38992 1.40203
2044.34148 1.40136
2042.29304 1.40134
2040.24460 1.40160
2038.19617 1.40157
2036.14773 1.40169
2034.09929 1.40200
2032.05085 1.40170
2030.00241 1.40103
2027.95397 1.40118
2025.90554 1.40173
2023.85710 1.40149
2021.80866 1.40066
2019.76022 1.39978
2017.71178 1.39985
2015.66334 1.40090
2013.61491 1.40110
2011.56647 1.40042
2009.51803 1.40000
2007.46959 1.39989
2005.42115 1.39995
2003.37271 1.40010
2001.32428 1.40020
1999.27584 1.40021
1997.22740 1.40003
1995.17896 1.39923
1993.13052 1.39897
1991.08208 1.40011
1989.03365 1.40045
1986.98521 1.40018
1984.93677 1.40031
1982.88833 1.40048
1980.83989 1.40090
1978.79145 1.40142
1976.74302 1.40158
1974.69458 1.40114
1972.64614 1.40087
1970.59770 1.40085
1968.54926 1.40122
1966.50082 1.40302
1964.45239 1.40424
1962.40395 1.40320
1960.35551 1.40179
1958.30707 1.40140
1956.25863 1.40149
1954.21019 1.40162
1952.16176 1.40182
1950.11332 1.40197
1948.06488 1.40158
1946.01644 1.40053
1943.96800 1.40038
1941.91956 1.40272
1939.87112 1.40445
1937.82269 1.40372
1935.77425 1.40286
1933.72581 1.40303
1931.67737 1.40357
1929.62893 1.40360
1927.58049 1.40311
1925.53206 1.40203
1923.48362 1.40214
1921.43518 1.40343
1919.38674 1.40360
1917.33830 1.40474
1915.28986 1.40539
1913.24143 1.40357
1911.19299 1.40255
1909.14455 1.40404
1907.09611 1.40578
1905.04767 1.40623
1902.99923 1.40627
1900.95080 1.40615
1898.90236 1.40566
1896.85392 1.40554
1894.80548 1.40627
1892.75704 1.40570
1890.70860 1.40471
1888.66017 1.40659
1886.61173 1.40772
1884.56329 1.40689
1882.51485 1.40665
1880.46641 1.40681
1878.41797 1.40702
1876.36954 1.40699
1874.32110 1.40615
1872.27266 1.40383
1870.22422 1.40242
1868.17578 1.40652
1866.12734 1.41074
1864.07891 1.41010
1862.03047 1.40851
1859.98203 1.40785
1857.93359 1.40759
1855.88515 1.40735
1853.83671 1.40712
1851.78828 1.40664
1849.73984 1.40553
1847.69140 1.40347
1845.64296 1.40257
1843.59452 1.40756
1841.54608 1.41117
1839.49765 1.40924
1837.44921 1.40822
1835.40077 1.40881
1833.35233 1.40708
1831.30389 1.40511
1829.25545 1.40754
1827.20702 1.40947
1825.15858 1.41005
1823.11014 1.41190
1821.06170 1.41188
1819.01326 1.41134
1816.96482 1.41215
1814.91639 1.41210
1812.86795 1.41112
1810.81951 1.41262
1808.77107 1.41508
1806.72263 1.41485
1804.67419 1.41278
1802.62575 1.41120
1800.57732 1.41287
1798.52888 1.41569
1796.48044 1.41477
1794.43200 1.41156
1792.38356 1.41411
1790.33512 1.42122
1788.28669 1.42175
1786.23825 1.41932
1784.18981 1.41907
1782.14137 1.41982
1780.09293 1.42150
1778.04449 1.42216
1775.99606 1.41894
1773.94762 1.41627
1771.89918 1.42222
1769.85074 1.42984
1767.80230 1.43159
1765.75386 1.42993
1763.70543 1.42752
1761.65699 1.43050
1759.60855 1.43489
1757.56011 1.43658
1755.51167 1.43853
1753.46323 1.43724
1751.41480 1.43716
1749.36636 1.44542
1747.31792 1.45353
1745.26948 1.45639
1743.22104 1.45776
1741.17260 1.46059
1739.12417 1.46478
1737.07573 1.46326
1735.02729 1.46002
1732.97885 1.46761
1730.93041 1.47281
1728.88197 1.47195
1726.83354 1.47002
1724.78510 1.46824
1722.73666 1.46752
1720.68822 1.46444
1718.63978 1.46254
1716.59134 1.47198
1714.54291 1.48043
1712.49447 1.48009
1710.44603 1.47692
1708.39759 1.47382
1706.34915 1.47439
1704.30071 1.47613
1702.25228 1.47312
1700.20384 1.47405
1698.15540 1.48055
1696.10696 1.48570
1694.05852 1.49000
1692.01008 1.48834
1689.96165 1.48553
1687.91321 1.48294
1685.86477 1.48069
1683.81633 1.49093
1681.76789 1.50020
1679.71945 1.49811
1677.67102 1.49448
1675.62258 1.49554
1673.57414 1.49970
1671.52570 1.50042
1669.47726 1.50510
1667.42882 1.51059
1665.38038 1.50876
1663.33195 1.50865
1661.28351 1.51337
1659.23507 1.51331
1657.18663 1.50681
1655.13819 1.49931
1653.08975 1.50953
1651.04132 1.52180
1648.99288 1.51734
1646.94444 1.51943
1644.89600 1.52650
1642.84756 1.52441
1640.79912 1.51995
1638.75069 1.51584
1636.70225 1.51670
1634.65381 1.52598
1632.60537 1.52616
1630.55693 1.52050
1628.50849 1.51770
1626.46006 1.51715
1624.41162 1.51678
1622.36318 1.51846
1620.31474 1.51631
1618.26630 1.51217
1616.21786 1.51528
1614.16943 1.51712
1612.12099 1.51304
1610.07255 1.50969
1608.02411 1.50831
1605.97567 1.50664
1603.92723 1.50433
1601.87880 1.50229
1599.83036 1.50006
1597.78192 1.49712
1595.73348 1.49474
1593.68504 1.49349
1591.63660 1.49190
1589.58817 1.48954
1587.53973 1.48704
1585.49129 1.48473
1583.44285 1.48324
1581.39441 1.48158
1579.34597 1.47747
1577.29754 1.47543
1575.24910 1.48051
1573.20066 1.47887
1571.15222 1.47341
1569.10378 1.47519
1567.05534 1.47695
1565.00691 1.47372
1562.95847 1.46753
1560.91003 1.45922
1558.86159 1.46645
1556.81315 1.47958
1554.76471 1.47605
1552.71628 1.47257
1550.66784 1.47114
1548.61940 1.46968
1546.57096 1.46525
1544.52252 1.45977
1542.47408 1.45746
1540.42565 1.46624
1538.37721 1.47543
1536.32877 1.46979
1534.28033 1.46493
1532.23189 1.46668
1530.18345 1.46440
1528.13501 1.45964
1526.08658 1.45822
1524.03814 1.45740
1521.98970 1.45963
1519.94126 1.46378
1517.89282 1.46334
1515.84438 1.46307
1513.79595 1.46029
1511.74751 1.45409
1509.69907 1.44766
1507.65063 1.45104
1505.60219 1.46599
1503.55375 1.46351
1501.50532 1.45548
1499.45688 1.45047
1497.40844 1.45137
1495.36000 1.45419
1493.31156 1.45065
1491.26312 1.44617
1489.21469 1.45037
1487.16625 1.45569
1485.11781 1.45404
1483.06937 1.45166
1481.02093 1.45172
1478.97249 1.45176
1476.92406 1.45148
1474.87562 1.45450
1472.82718 1.46484
1470.77874 1.47431
1468.73030 1.47407
1466.68186 1.47247
1464.63343 1.47597
1462.58499 1.47683
1460.53655 1.47081
1458.48811 1.46817
1456.43967 1.47869
1454.39123 1.48142
1452.34280 1.47626
1450.29436 1.47248
1448.24592 1.47256
1446.19748 1.47369
1444.14904 1.47240
1442.10060 1.47010
1440.05217 1.46698
1438.00373 1.46513
1435.95529 1.46926
1433.90685 1.47076
1431.85841 1.46759
1429.80997 1.46718
1427.76154 1.46776
1425.71310 1.46650
1423.66466 1.46600
1421.61622 1.46501
1419.56778 1.46675
1417.51934 1.47372
1415.47091 1.47504
1413.42247 1.47223
1411.37403 1.47011
1409.32559 1.46904
1407.27715 1.46825
1405.22871 1.46865
1403.18028 1.46885
1401.13184 1.46653
1399.08340 1.46444
1397.03496 1.46415
1394.98652 1.46533
1392.93808 1.46589
1390.88965 1.46309
1388.84121 1.46081
1386.79277 1.46307
1384.74433 1.46499
1382.69589 1.46447
1380.64745 1.46474
1378.59901 1.46515
1376.55058 1.46451
1374.50214 1.46477
1372.45370 1.46493
1370.40526 1.46372
1368.35682 1.46391
1366.30838 1.46356
1364.25995 1.46159
1362.21151 1.46209
1360.16307 1.46329
1358.11463 1.46232
1356.06619 1.46136
1354.01775 1.46160
1351.96932 1.46197
1349.92088 1.46215
1347.87244 1.46202
1345.82400 1.46125
1343.77556 1.46002
1341.72712 1.45891
1339.67869 1.45970
1337.63025 1.46195
1335.58181 1.46235
1333.53337 1.46106
1331.48493 1.46010
1329.43649 1.46012
1327.38806 1.46033
1325.33962 1.46019
1323.29118 1.46016
1321.24274 1.46060
1319.19430 1.46156
1317.14586 1.46268
1315.09743 1.46340
1313.04899 1.46425
1311.00055 1.46543
1308.95211 1.46630
1306.90367 1.46662
1304.85523 1.46654
1302.80680 1.46650
1300.75836 1.46660
1298.70992 1.46702
1296.66148 1.46790
1294.61304 1.46890
1292.56460 1.46982
1290.51617 1.47049
1288.46773 1.47113
1286.41929 1.47193
1284.37085 1.47237
1282.32241 1.47262
1280.27397 1.47407
1278.22554 1.47680
1276.17710 1.47929
1274.12866 1.48152
1272.08022 1.48573
1270.03178 1.49295
1267.98334 1.50162
1265.93491 1.50939
1263.88647 1.51361
1261.83803 1.51300
1259.78959 1.50839
1257.74115 1.50198
1255.69271 1.49668
1253.64428 1.49353
1251.59584 1.49124
1249.54740 1.48953
1247.49896 1.48881
1245.45052 1.48845
1243.40208 1.48814
1241.35364 1.48788
1239.30521 1.48749
1237.25677 1.48740
1235.20833 1.48801
1233.15989 1.48916
1231.11145 1.49053
1229.06301 1.49170
1227.01458 1.49255
1224.96614 1.49364
1222.91770 1.49524
1220.86926 1.49674
1218.82082 1.49768
1216.77238 1.49910
1214.72395 1.50166
1212.67551 1.50405
1210.62707 1.50580
1208.57863 1.50797
1206.53019 1.51042
1204.48175 1.51204
1202.43332 1.51340
1200.38488 1.51477
1198.33644 1.51530
1196.28800 1.51530
1194.23956 1.51552
1192.19112 1.51572
1190.14269 1.51569
1188.09425 1.51580
1186.04581 1.51576
1183.99737 1.51594
1181.94893 1.51694
1179.90049 1.51822
1177.85206 1.51979
1175.80362 1.52203
1173.75518 1.52426
1171.70674 1.52540
1169.65830 1.52648
1167.60986 1.52848
1165.56143 1.52987
1163.51299 1.53093
1161.46455 1.53260
1159.41611 1.53354
1157.36767 1.53369
1155.31923 1.53425
1153.27080 1.53527
1151.22236 1.53578
1149.17392 1.53657
1147.12548 1.53879
1145.07704 1.54056
1143.02860 1.54118
1140.98017 1.54267
1138.93173 1.54504
1136.88329 1.54631
1134.83485 1.54658
1132.78641 1.54717
1130.73797 1.54768
1128.68954 1.54801
1126.64110 1.54934
1124.59266 1.55113
1122.54422 1.55195
1120.49578 1.55216
1118.44734 1.55224
1116.39891 1.55205
1114.35047 1.55191
1112.30203 1.55202
1110.25359 1.55210
1108.20515 1.55216
1106.15671 1.55189
1104.10827 1.55133
1102.05984 1.55114
1100.01140 1.55101
1097.96296 1.55062
1095.91452 1.55024
1093.86608 1.55005
1091.81764 1.55005
1089.76921 1.54940
1087.72077 1.54722
1085.67233 1.54408
1083.62389 1.54089
1081.57545 1.53788
1079.52701 1.53540
1077.47858 1.53357
1075.43014 1.53135
1073.38170 1.52813
1071.33326 1.52498
1069.28482 1.52289
1067.23638 1.52180
1065.18795 1.52144
1063.13951 1.52110
1061.09107 1.52058
1059.04263 1.52037
1056.99419 1.52058
1054.94575 1.52174
1052.89732 1.52362
1050.84888 1.52490
1048.80044 1.52522
1046.75200 1.52470
1044.70356 1.52367
1042.65512 1.52289
1040.60669 1.52224
1038.55825 1.52006
1036.50981 1.51630
1034.46137 1.51425
1032.41293 1.51417
1030.36449 1.51301
1028.31606 1.51209
1026.26762 1.51270
1024.21918 1.51209
1022.17074 1.51035
1020.12230 1.50941
1018.07386 1.50860
1016.02543 1.50792
1013.97699 1.50764
1011.92855 1.50611
1009.88011 1.50264
1007.83167 1.49886
1005.78323 1.49669
1003.73480 1.49510
1001.68636 1.49263
999.63792 1.49029
997.58948 1.48799
995.54104 1.48539
993.49260 1.48325
991.44417 1.48123
989.39573 1.47895
987.34729 1.47739
985.29885 1.47634
983.25041 1.47494
981.20197 1.47401
979.15354 1.47320
977.10510 1.47194
975.05666 1.47109
973.00822 1.47019
970.95978 1.46870
968.91134 1.46756
966.86290 1.46766
964.81447 1.46808
962.76603 1.46742
960.71759 1.46665
958.66915 1.46701
956.62071 1.46833
954.57227 1.47083
952.52384 1.47452
950.47540 1.47779
948.42696 1.47992
946.37852 1.48250
944.33008 1.48618
942.28164 1.48913
940.23321 1.49053
938.18477 1.49213
936.13633 1.49460
934.08789 1.49693
932.03945 1.49977
929.99101 1.50378
927.94258 1.50709
925.89414 1.50939
923.84570 1.51228
921.79726 1.51534
919.74882 1.51829
917.70038 1.52167
915.65195 1.52449
913.60351 1.52624
911.55507 1.52802
909.50663 1.52966
907.45819 1.53094
905.40975 1.53313
903.36132 1.53522
901.31288 1.53652
899.26444 1.53862
897.21600 1.54090
895.16756 1.54336
893.11912 1.54723
891.07069 1.55048
889.02225 1.55237
886.97381 1.55382
884.92537 1.55489
882.87693 1.55726
880.82849 1.56082
878.78006 1.56299
876.73162 1.56207
874.68318 1.55913
872.63474 1.55822
870.58630 1.55910
868.53786 1.55783
866.48943 1.55620
864.44099 1.55624
862.39255 1.55713
860.34411 1.55944
858.29567 1.56195
856.24723 1.56308
854.19880 1.56359
852.15036 1.56403
850.10192 1.56489
848.05348 1.56729
846.00504 1.57016
843.95660 1.57217
841.90817 1.57472
839.85973 1.57753
837.81129 1.57928
835.76285 1.58045
833.71441 1.58075
831.66597 1.58100
829.61753 1.58287
827.56910 1.58517
825.52066 1.58661
823.47222 1.58708
821.42378 1.58690
819.37534 1.58767
817.32690 1.58838
815.27847 1.58705
813.23003 1.58743
811.18159 1.59077
809.13315 1.59210
807.08471 1.59245
805.03627 1.59496
802.98784 1.59707
800.93940 1.59987
798.89096 1.60638
796.84252 1.61508
794.79408 1.62480
792.74564 1.63368
790.69721 1.64023
788.64877 1.64684
786.60033 1.65553
784.55189 1.66681
782.50345 1.67915
780.45501 1.68927
778.40658 1.69714
776.35814 1.70397
774.30970 1.70801
772.26126 1.70895
770.21282 1.71202
768.16438 1.72099
766.11595 1.73185
764.06751 1.74251
762.01907 1.75589
759.97063 1.76878
757.92219 1.77742
755.87375 1.78510
753.82532 1.79215
751.77688 1.79574
749.72844 1.79652
747.68000 1.79453
745.63156 1.79348
743.58312 1.79744
741.53469 1.80122
739.48625 1.80238
737.43781 1.80442
735.38937 1.80907
733.34093 1.81419
731.29249 1.81312
729.24406 1.80712
727.19562 1.80701
725.14718 1.81559
723.09874 1.82646
721.05030 1.83334
719.00186 1.83494
716.95343 1.83500
714.90499 1.83282
712.85655 1.82978
710.80811 1.83139
708.75967 1.83319
706.71123 1.83430
704.66280 1.84092
702.61436 1.84779
700.56592 1.84795
698.51748 1.84422
696.46904 1.84344
694.42060 1.84622
692.37216 1.84491
690.32373 1.83673
688.27529 1.82547
686.22685 1.81695
684.17841 1.81179
682.12997 1.80666
680.08153 1.80388
678.03310 1.80250
675.98466 1.80254
673.93622 1.80799
671.88778 1.81503
669.83934 1.82261
667.79090 1.82880
665.74247 1.82066
663.69403 1.81072
661.64559 1.80490
659.59715 1.79797
657.54871 1.79401
655.50027 1.80083
653.45184 1.81393
651.40340 1.82988
649.35496 1.84370
647.30652 1.83965
645.25808 1.81839
643.20964 1.79718
641.16121 1.78599
639.11277 1.77975
637.06433 1.76823
635.01589 1.75584
632.96745 1.74142
630.91901 1.72289
628.87058 1.70840
626.82214 1.69719
624.77370 1.69026
622.72526 1.69287
620.67682 1.70472
618.62838 1.72080
616.57995 1.72633
614.53151 1.70978
612.48307 1.69501
610.43463 1.69162
608.38619 1.68877
606.33775 1.69217
604.28932 1.69181
602.24088 1.68731
600.19244 1.68666
598.14400 1.67555
