3996.50324 1.18659
3994.45480 1.18727
3992.40636 1.18819
3990.35792 1.18861
3988.30948 1.18827
3986.26104 1.18769
3984.21261 1.18752
3982.16417 1.18800
3980.11573 1.18839
3978.06729 1.18800
3976.01885 1.18764
3973.97041 1.18800
3971.92198 1.18852
3969.87354 1.18900
3967.82510 1.18943
3965.77666 1.18966
3963.72822 1.19004
3961.67978 1.19062
3959.63135 1.19106
3957.58291 1.19140
3955.53447 1.19173
3953.48603 1.19174
3951.43759 1.19164
3949.38915 1.19271
3947.34072 1.19460
3945.29228 1.19478
3943.24384 1.19478
3941.19540 1.19631
3939.14696 1.19701
3937.09852 1.19648
3935.05009 1.19508
3933.00165 1.19437
3930.95321 1.19625
3928.90477 1.19761
3926.85633 1.19690
3924.80789 1.19705
3922.75946 1.19813
3920.71102 1.19767
3918.66258 1.19760
3916.61414 1.19997
3914.56570 1.20197
3912.51726 1.20163
3910.46883 1.20033
3908.42039 1.19845
3906.37195 1.19593
3904.32351 1.19568
3902.27507 1.19884
3900.22663 1.20279
3898.17820 1.20614
3896.12976 1.20563
3894.08132 1.20202
3892.03288 1.20232
3889.98444 1.20624
3887.93600 1.20534
3885.88756 1.20453
3883.83913 1.20679
3881.79069 1.20727
3879.74225 1.20952
3877.69381 1.20973
3875.64537 1.20612
3873.59693 1.20399
3871.54850 1.20419
3869.50006 1.20804
3867.45162 1.20964
3865.40318 1.20694
3863.35474 1.20859
3861.30630 1.21217
3859.25787 1.21104
3857.20943 1.20570
3855.16099 1.20012
3853.11255 1.20666
3851.06411 1.21680
3849.01567 1.21668
3846.96724 1.21324
3844.91880 1.21036
3842.87036 1.20890
3840.82192 1.20752
3838.77348 1.20828
3836.72504 1.21247
3834.67661 1.21442
3832.62817 1.21522
3830.57973 1.21650
3828.53129 1.21618
3826.48285 1.21581
3824.43441 1.21464
3822.38598 1.21248
3820.33754 1.21558
3818.28910 1.21737
3816.24066 1.21849
3814.19222 1.22249
3812.14378 1.22183
3810.09535 1.21772
3808.04691 1.21544
3805.99847 1.21622
3803.95003 1.21351
3801.90159 1.21264
3799.85315 1.21798
3797.80472 1.21975
3795.75628 1.22105
3793.70784 1.22223
3791.65940 1.22116
3789.61096 1.21984
3787.56252 1.21903
3785.51409 1.21960
3783.46565 1.22077
3781.41721 1.22041
3779.36877 1.22192
3777.32033 1.22496
3775.27189 1.22462
3773.22346 1.22208
3771.17502 1.22080
3769.12658 1.22218
3767.07814 1.22302
3765.02970 1.22348
3762.98126 1.22274
3760.93283 1.22042
3758.88439 1.22103
3756.83595 1.22172
3754.78751 1.21775
3752.73907 1.21317
3750.69063 1.21691
3748.64219 1.22206
3746.59376 1.21919
3744.54532 1.22019
3742.49688 1.22536
3740.44844 1.22357
3738.40000 1.21888
3736.35156 1.21829
3734.30313 1.22469
3732.25469 1.22936
3730.20625 1.22743
3728.15781 1.22291
3726.10937 1.22092
3724.06093 1.22233
3722.01250 1.22413
3719.96406 1.22539
3717.91562 1.22516
3715.86718 1.22235
3713.81874 1.21767
3711.77030 1.21736
3709.72187 1.22352
3707.67343 1.22564
3705.62499 1.22311
3703.57655 1.22054
3701.52811 1.22172
3699.47967 1.22332
3697.43124 1.22227
3695.38280 1.22039
3693.33436 1.21772
3691.28592 1.21567
3689.23748 1.21967
3687.18904 1.22507
3685.14061 1.22490
3683.09217 1.22209
3681.04373 1.21867
3678.99529 1.21457
3676.94685 1.21220
3674.89841 1.21764
3672.84998 1.22001
3670.80154 1.21877
3668.75310 1.22289
3666.70466 1.22455
3664.65622 1.22233
3662.60778 1.22065
3660.55935 1.21965
3658.51091 1.21820
3656.46247 1.21883
3654.41403 1.21935
3652.36559 1.21443
3650.31715 1.21029
3648.26872 1.21842
3646.22028 1.22526
3644.17184 1.22457
3642.12340 1.22305
3640.07496 1.22284
3638.02652 1.22280
3635.97809 1.22245
3633.92965 1.22161
3631.88121 1.21939
3629.83277 1.21935
3627.78433 1.22673
3625.73589 1.23017
3623.68746 1.22780
3621.63902 1.22426
3619.59058 1.22374
3617.54214 1.22615
3615.49370 1.22586
3613.44526 1.22496
3611.39682 1.22461
3609.34839 1.22446
3607.29995 1.22732
3605.25151 1.23021
3603.20307 1.23034
3601.15463 1.23042
3599.10619 1.23177
3597.05776 1.23305
3595.00932 1.23510
3592.96088 1.23753
3590.91244 1.23685
3588.86400 1.23529
3586.81556 1.23886
3584.76713 1.24246
3582.71869 1.24190
3580.67025 1.24075
3578.62181 1.24080
3576.57337 1.24127
3574.52493 1.24129
3572.47650 1.24064
3570.42806 1.23860
3568.37962 1.23673
3566.33118 1.23997
3564.28274 1.24486
3562.23430 1.24700
3560.18587 1.24856
3558.13743 1.24989
3556.08899 1.25012
3554.04055 1.25044
3551.99211 1.25211
3549.94367 1.25288
3547.89524 1.25201
3545.84680 1.25272
3543.79836 1.25513
3541.74992 1.25638
3539.70148 1.25591
3537.65304 1.25525
3535.60461 1.25593
3533.55617 1.25696
3531.50773 1.25733
3529.45929 1.25747
3527.41085 1.25760
3525.36241 1.25817
3523.31398 1.26001
3521.26554 1.26202
3519.21710 1.26278
3517.16866 1.26331
3515.12022 1.26442
3513.07178 1.26532
3511.02335 1.26618
3508.97491 1.26755
3506.92647 1.26775
3504.87803 1.26652
3502.82959 1.26633
3500.78115 1.26764
3498.73272 1.26835
3496.68428 1.26824
3494.63584 1.26856
3492.58740 1.26923
3490.53896 1.26959
3488.49052 1.27004
3486.44209 1.27071
3484.39365 1.27078
3482.34521 1.27064
3480.29677 1.27142
3478.24833 1.27252
3476.19989 1.27333
3474.15146 1.27411
3472.10302 1.27451
3470.05458 1.27422
3468.00614 1.27388
3465.95770 1.27410
3463.90926 1.27472
3461.86082 1.27520
3459.81239 1.27527
3457.76395 1.27526
3455.71551 1.27553
3453.66707 1.27565
3451.61863 1.27523
3449.57019 1.27450
3447.52176 1.27466
3445.47332 1.27586
3443.42488 1.27650
3441.37644 1.27658
3439.32800 1.27660
3437.27956 1.27618
3435.23113 1.27543
3433.18269 1.27517
3431.13425 1.27556
3429.08581 1.27586
3427.03737 1.27579
3424.98893 1.27575
3422.94050 1.27606
3420.89206 1.27661
3418.84362 1.27726
3416.79518 1.27766
3414.74674 1.27737
3412.69830 1.27688
3410.64987 1.27697
3408.60143 1.27735
3406.55299 1.27725
3404.50455 1.27677
3402.45611 1.27659
3400.40767 1.27662
3398.35924 1.27644
3396.31080 1.27596
3394.26236 1.27540
3392.21392 1.27551
3390.16548 1.27597
3388.11704 1.27548
3386.06861 1.27442
3384.02017 1.27412
3381.97173 1.27459
3379.92329 1.27497
3377.87485 1.27478
3375.82641 1.27450
3373.77798 1.27474
3371.72954 1.27522
3369.68110 1.27528
3367.63266 1.27468
3365.58422 1.27385
3363.53578 1.27334
3361.48735 1.27328
3359.43891 1.27326
3357.39047 1.27295
3355.34203 1.27239
3353.29359 1.27205
3351.24515 1.27203
3349.19672 1.27167
3347.14828 1.27094
3345.09984 1.27025
3343.05140 1.26988
3341.00296 1.26964
3338.95452 1.26899
3336.90609 1.26853
3334.85765 1.26873
3332.80921 1.26877
3330.76077 1.26842
3328.71233 1.26813
3326.66389 1.26765
3324.61545 1.26693
3322.56702 1.26648
3320.51858 1.26632
3318.47014 1.26639
3316.42170 1.26657
3314.37326 1.26622
3312.32482 1.26490
3310.27639 1.26299
3308.22795 1.26145
3306.17951 1.26092
3304.13107 1.26103
3302.08263 1.26075
3300.03419 1.25964
3297.98576 1.25887
3295.93732 1.25935
3293.88888 1.26005
3291.84044 1.25992
3289.79200 1.25941
3287.74356 1.25928
3285.69513 1.25935
3283.64669 1.25933
3281.59825 1.25907
3279.54981 1.25880
3277.50137 1.25905
3275.45293 1.25907
3273.40450 1.25819
3271.35606 1.25726
3269.30762 1.25629
3267.25918 1.25485
3265.21074 1.25355
3263.16230 1.25286
3261.11387 1.25272
3259.06543 1.25244
3257.01699 1.25151
3254.96855 1.25069
3252.92011 1.25066
3250.87167 1.25100
3248.82324 1.25120
3246.77480 1.25152
3244.72636 1.25210
3242.67792 1.25234
3240.62948 1.25241
3238.58104 1.25308
3236.53261 1.25403
3234.48417 1.25456
3232.43573 1.25464
3230.38729 1.25453
3228.33885 1.25443
3226.29041 1.25447
3224.24198 1.25449
3222.19354 1.25426
3220.14510 1.25369
3218.09666 1.25262
3216.04822 1.25159
3213.99978 1.25136
3211.95135 1.25182
3209.90291 1.25249
3207.85447 1.25304
3205.80603 1.25339
3203.75759 1.25352
3201.70915 1.25331
3199.66072 1.25317
3197.61228 1.25361
3195.56384 1.25434
3193.51540 1.25500
3191.46696 1.25591
3189.41852 1.25699
3187.37008 1.25751
3185.32165 1.25749
3183.27321 1.25762
3181.22477 1.25791
3179.17633 1.25818
3177.12789 1.25835
3175.07945 1.25836
3173.03102 1.25848
3170.98258 1.25911
3168.93414 1.26034
3166.88570 1.26139
3164.83726 1.26170
3162.78882 1.26145
3160.74039 1.26096
3158.69195 1.26066
3156.64351 1.26074
3154.59507 1.26129
3152.54663 1.26219
3150.49819 1.26270
3148.44976 1.26263
3146.40132 1.26243
3144.35288 1.26217
3142.30444 1.26195
3140.25600 1.26235
3138.20756 1.26334
3136.15913 1.26421
3134.11069 1.26513
3132.06225 1.26663
3130.01381 1.26802
3127.96537 1.26844
3125.91693 1.26804
3123.86850 1.26738
3121.82006 1.26703
3119.77162 1.26718
3117.72318 1.26733
3115.67474 1.26725
3113.62630 1.26732
3111.57787 1.26757
3109.52943 1.26766
3107.48099 1.26768
3105.43255 1.26757
3103.38411 1.26720
3101.33567 1.26746
3099.28724 1.26842
3097.23880 1.26896
3095.19036 1.26912
3093.14192 1.26963
3091.09348 1.27037
3089.04504 1.27107
3086.99661 1.27190
3084.94817 1.27268
3082.89973 1.27323
3080.85129 1.27392
3078.80285 1.27446
3076.75441 1.27416
3074.70598 1.27374
3072.65754 1.27399
3070.60910 1.27392
3068.56066 1.27296
3066.51222 1.27219
3064.46378 1.27228
3062.41535 1.27258
3060.36691 1.27266
3058.31847 1.27301
3056.27003 1.27377
3054.22159 1.27447
3052.17315 1.27500
3050.12471 1.27534
3048.07628 1.27570
3046.02784 1.27625
3043.97940 1.27705
3041.93096 1.27815
3039.88252 1.27919
3037.83408 1.28000
3035.78565 1.28065
3033.73721 1.28130
3031.68877 1.28195
3029.64033 1.28227
3027.59189 1.28221
3025.54345 1.28202
3023.49502 1.28197
3021.44658 1.28227
3019.39814 1.28279
3017.34970 1.28328
3015.30126 1.28362
3013.25282 1.28394
3011.20439 1.28453
3009.15595 1.28525
3007.10751 1.28563
3005.05907 1.28566
3003.01063 1.28576
3000.96219 1.28614
2998.91376 1.28710
2996.86532 1.28869
2994.81688 1.29052
2992.76844 1.29232
2990.72000 1.29394
2988.67156 1.29556
2986.62313 1.29716
2984.57469 1.29848
2982.52625 1.29981
2980.47781 1.30145
2978.42937 1.30333
2976.38093 1.30538
2974.33250 1.30733
2972.28406 1.30872
2970.23562 1.30962
2968.18718 1.31055
2966.13874 1.31202
2964.09030 1.31423
2962.04187 1.31679
2959.99343 1.31918
2957.94499 1.32111
2955.89655 1.32239
2953.84811 1.32296
2951.79967 1.32304
2949.75124 1.32329
2947.70280 1.32441
2945.65436 1.32645
2943.60592 1.32900
2941.55748 1.33203
2939.50904 1.33537
2937.46061 1.33836
2935.41217 1.34122
2933.36373 1.34394
2931.31529 1.34556
2929.26685 1.34624
2927.21841 1.34655
2925.16998 1.34637
2923.12154 1.34599
2921.07310 1.34519
2919.02466 1.34327
2916.97622 1.34053
2914.92778 1.33705
2912.87934 1.33217
2910.83091 1.32657
2908.78247 1.32199
2906.73403 1.31907
2904.68559 1.31717
2902.63715 1.31537
2900.58871 1.31362
2898.54028 1.31217
2896.49184 1.31060
2894.44340 1.30892
2892.39496 1.30731
2890.34652 1.30522
2888.29808 1.30239
2886.24965 1.29951
2884.20121 1.29755
2882.15277 1.29669
2880.10433 1.29649
2878.05589 1.29669
2876.00745 1.29746
2873.95902 1.29858
2871.91058 1.29912
2869.86214 1.29895
2867.81370 1.29897
2865.76526 1.30000
2863.71682 1.30211
2861.66839 1.30493
2859.61995 1.30838
2857.57151 1.31234
2855.52307 1.31596
2853.47463 1.31845
2851.42619 1.31938
2849.37776 1.31784
2847.32932 1.31308
2845.28088 1.30632
2843.23244 1.29998
2841.18400 1.29494
2839.13556 1.29076
2837.08713 1.28696
2835.03869 1.28335
2832.99025 1.28029
2830.94181 1.27814
2828.89337 1.27662
2826.84493 1.27519
2824.79650 1.27383
2822.74806 1.27254
2820.69962 1.27129
2818.65118 1.27059
2816.60274 1.27059
2814.55430 1.27055
2812.50587 1.27006
2810.45743 1.26956
2808.40899 1.26922
2806.36055 1.26885
2804.31211 1.26852
2802.26367 1.26847
2800.21524 1.26872
2798.16680 1.26927
2796.11836 1.27002
2794.06992 1.27039
2792.02148 1.26996
2789.97304 1.26921
2787.92461 1.26883
2785.87617 1.26866
2783.82773 1.26826
2781.77929 1.26790
2779.73085 1.26796
2777.68241 1.26810
2775.63397 1.26777
2773.58554 1.26695
2771.53710 1.26661
2769.48866 1.26719
2767.44022 1.26769
2765.39178 1.26772
2763.34334 1.26787
2761.29491 1.26852
2759.24647 1.26972
2757.19803 1.27091
2755.14959 1.27164
2753.10115 1.27234
2751.05271 1.27344
2749.00428 1.27459
2746.95584 1.27527
2744.90740 1.27568
2742.85896 1.27627
2740.81052 1.27684
2738.76208 1.27701
2736.71365 1.27694
2734.66521 1.27684
2732.61677 1.27653
2730.56833 1.27587
2728.51989 1.27516
2726.47145 1.27502
2724.42302 1.27560
2722.37458 1.27629
2720.32614 1.27687
2718.27770 1.27761
2716.22926 1.27840
2714.18082 1.27900
2712.13239 1.27956
2710.08395 1.28024
2708.03551 1.28100
2705.98707 1.28154
2703.93863 1.28192
2701.89019 1.28278
2699.84176 1.28424
2697.79332 1.28557
2695.74488 1.28619
2693.69644 1.28652
2691.64800 1.28693
2689.59956 1.28698
2687.55113 1.28658
2685.50269 1.28643
2683.45425 1.28671
2681.40581 1.28696
2679.35737 1.28704
2677.30893 1.28727
2675.26050 1.28782
2673.21206 1.28843
2671.16362 1.28903
2669.11518 1.28938
2667.06674 1.28954
2665.01830 1.29013
2662.96987 1.29105
2660.92143 1.29198
2658.87299 1.29270
2656.82455 1.29284
2654.77611 1.29280
2652.72767 1.29320
2650.67924 1.29372
2648.63080 1.29372
2646.58236 1.29348
2644.53392 1.29349
2642.48548 1.29357
2640.43704 1.29358
2638.38860 1.29347
2636.34017 1.29291
2634.29173 1.29246
2632.24329 1.29290
2630.19485 1.29359
2628.14641 1.29362
2626.09797 1.29326
2624.04954 1.29330
2622.00110 1.29401
2619.95266 1.29475
2617.90422 1.29487
2615.85578 1.29449
2613.80734 1.29378
2611.75891 1.29282
2609.71047 1.29203
2607.66203 1.29177
2605.61359 1.29204
2603.56515 1.29243
2601.51671 1.29237
2599.46828 1.29201
2597.41984 1.29190
2595.37140 1.29203
2593.32296 1.29231
2591.27452 1.29238
2589.22608 1.29190
2587.17765 1.29129
2585.12921 1.29114
2583.08077 1.29134
2581.03233 1.29131
2578.98389 1.29091
2576.93545 1.29056
2574.88702 1.29056
2572.83858 1.29044
2570.79014 1.28991
2568.74170 1.28945
2566.69326 1.28921
2564.64482 1.28878
2562.59639 1.28812
2560.54795 1.28763
2558.49951 1.28777
2556.45107 1.28829
2554.40263 1.28840
2552.35419 1.28796
2550.30576 1.28716
2548.25732 1.28617
2546.20888 1.28537
2544.16044 1.28513
2542.11200 1.28550
2540.06356 1.28592
2538.01513 1.28613
2535.96669 1.28629
2533.91825 1.28634
2531.86981 1.28617
2529.82137 1.28576
2527.77293 1.28535
2525.72450 1.28526
2523.67606 1.28513
2521.62762 1.28472
2519.57918 1.28442
2517.53074 1.28413
2515.48230 1.28379
2513.43387 1.28367
2511.38543 1.28346
2509.33699 1.28287
2507.28855 1.28216
2505.24011 1.28176
2503.19167 1.28213
2501.14324 1.28302
2499.09480 1.28342
2497.04636 1.28300
2494.99792 1.28248
2492.94948 1.28234
2490.90104 1.28231
2488.85260 1.28207
2486.80417 1.28162
2484.75573 1.28134
2482.70729 1.28134
2480.65885 1.28122
2478.61041 1.28099
2476.56197 1.28124
2474.51354 1.28208
2472.46510 1.28274
2470.41666 1.28269
2468.36822 1.28214
2466.31978 1.28148
2464.27134 1.28094
2462.22291 1.28060
2460.17447 1.28017
2458.12603 1.27930
2456.07759 1.27839
2454.02915 1.27805
2451.98071 1.27826
2449.93228 1.27895
2447.88384 1.27985
2445.83540 1.28073
2443.78696 1.28200
2441.73852 1.28381
2439.69008 1.28575
2437.64165 1.28821
2435.59321 1.29216
2433.54477 1.29741
2431.49633 1.30289
2429.44789 1.30732
2427.39945 1.30894
2425.35102 1.30681
2423.30258 1.30210
2421.25414 1.29666
2419.20570 1.29157
2417.15726 1.28754
2415.10882 1.28464
2413.06039 1.28230
2411.01195 1.28030
2408.96351 1.27859
2406.91507 1.27698
2404.86663 1.27599
2402.81819 1.27619
2400.76976 1.27704
2398.72132 1.27785
2396.67288 1.27854
2394.62444 1.27930
2392.57600 1.27982
2390.52756 1.27959
2388.47913 1.27865
2386.43069 1.27715
2384.38225 1.27556
2382.33381 1.27447
2380.28537 1.27340
2378.23693 1.27195
2376.18850 1.27084
2374.14006 1.27107
2372.09162 1.27200
2370.04318 1.27120
2367.99474 1.26865
2365.94630 1.26699
2363.89787 1.26602
2361.84943 1.26472
2359.80099 1.26442
2357.75255 1.26637
2355.70411 1.27045
2353.65567 1.27380
2351.60723 1.27567
2349.55880 1.27577
2347.51036 1.27340
2345.46192 1.27000
2343.41348 1.26890
2341.36504 1.27050
2339.31660 1.27231
2337.26817 1.27376
2335.21973 1.27487
2333.17129 1.27544
2331.12285 1.27630
2329.07441 1.27667
2327.02597 1.27532
2324.97754 1.27383
2322.92910 1.27327
2320.88066 1.27295
2318.83222 1.27264
2316.78378 1.27224
2314.73534 1.27190
2312.68691 1.27201
2310.63847 1.27212
2308.59003 1.27188
2306.54159 1.27149
2304.49315 1.27112
2302.44471 1.27103
2300.39628 1.27175
2298.34784 1.27346
2296.29940 1.27547
2294.25096 1.27708
2292.20252 1.27794
2290.15408 1.27802
2288.10565 1.27772
2286.05721 1.27728
2284.00877 1.27666
2281.96033 1.27582
2279.91189 1.27482
2277.86345 1.27385
2275.81502 1.27295
2273.76658 1.27179
2271.71814 1.27040
2269.66970 1.26930
2267.62126 1.26866
2265.57282 1.26829
2263.52439 1.26794
2261.47595 1.26790
2259.42751 1.26858
2257.37907 1.26936
2255.33063 1.26974
2253.28219 1.27024
2251.23376 1.27096
2249.18532 1.27120
2247.13688 1.27121
2245.08844 1.27176
2243.04000 1.27264
2240.99156 1.27332
2238.94313 1.27372
2236.89469 1.27367
2234.84625 1.27279
2232.79781 1.27148
2230.74937 1.27031
2228.70093 1.26916
2226.65250 1.26809
2224.60406 1.26748
2222.55562 1.26723
2220.50718 1.26678
2218.45874 1.26588
2216.41030 1.26492
2214.36186 1.26438
2212.31343 1.26463
2210.26499 1.26555
2208.21655 1.26658
2206.16811 1.26758
2204.11967 1.26875
2202.07123 1.26991
2200.02280 1.27097
2197.97436 1.27218
2195.92592 1.27351
2193.87748 1.27491
2191.82904 1.27606
2189.78060 1.27660
2187.73217 1.27692
2185.68373 1.27708
2183.63529 1.27667
2181.58685 1.27562
2179.53841 1.27415
2177.48997 1.27284
2175.44154 1.27215
2173.39310 1.27178
2171.34466 1.27134
2169.29622 1.27050
2167.24778 1.26953
2165.19934 1.26922
2163.15091 1.26984
2161.10247 1.27104
2159.05403 1.27271
2157.00559 1.27503
2154.95715 1.27760
2152.90871 1.27983
2150.86028 1.28170
2148.81184 1.28305
2146.76340 1.28371
2144.71496 1.28376
2142.66652 1.28353
2140.61808 1.28310
2138.56965 1.28231
2136.52121 1.28149
2134.47277 1.28106
2132.42433 1.28080
2130.37589 1.28035
2128.32745 1.27956
2126.27902 1.27848
2124.23058 1.27753
2122.18214 1.27746
2120.13370 1.27812
2118.08526 1.27875
2116.03682 1.27959
2113.98839 1.28104
2111.93995 1.28276
2109.89151 1.28486
2107.84307 1.28710
2105.79463 1.28850
2103.74619 1.28913
2101.69776 1.29005
2099.64932 1.29124
2097.60088 1.29178
2095.55244 1.29132
2093.50400 1.29039
2091.45556 1.28977
2089.40713 1.28961
2087.35869 1.28974
2085.31025 1.29043
2083.26181 1.29150
2081.21337 1.29194
2079.16493 1.29144
2077.11649 1.29100
2075.06806 1.29145
2073.01962 1.29232
2070.97118 1.29310
2068.92274 1.29404
2066.87430 1.29515
2064.82586 1.29590
2062.77743 1.29636
2060.72899 1.29740
2058.68055 1.29891
2056.63211 1.29980
2054.58367 1.29968
2052.53523 1.29944
2050.48680 1.30016
2048.43836 1.30165
2046.38992 1.30313
2044.34148 1.30428
2042.29304 1.30514
2040.24460 1.30578
2038.19617 1.30608
2036.14773 1.30615
2034.09929 1.30662
2032.05085 1.30759
2030.00241 1.30839
2027.95397 1.30883
2025.90554 1.30922
2023.85710 1.30959
2021.80866 1.30989
2019.76022 1.31014
2017.71178 1.31067
2015.66334 1.31135
2013.61491 1.31141
2011.56647 1.31130
2009.51803 1.31219
2007.46959 1.31395
2005.42115 1.31553
2003.37271 1.31632
2001.32428 1.31668
1999.27584 1.31688
1997.22740 1.31648
1995.17896 1.31525
1993.13052 1.31451
1991.08208 1.31557
1989.03365 1.31723
1986.98521 1.31883
1984.93677 1.32053
1982.88833 1.32195
1980.83989 1.32286
1978.79145 1.32336
1976.74302 1.32354
1974.69458 1.32346
1972.64614 1.32340
1970.59770 1.32338
1968.54926 1.32406
1966.50082 1.32629
1964.45239 1.32837
1962.40395 1.32870
1960.35551 1.32808
1958.30707 1.32687
1956.25863 1.32520
1954.21019 1.32431
1952.16176 1.32435
1950.11332 1.32437
1948.06488 1.32441
1946.01644 1.32441
1943.96800 1.32415
1941.91956 1.32475
1939.87112 1.32539
1937.82269 1.32439
1935.77425 1.32298
1933.72581 1.32273
1931.67737 1.32353
1929.62893 1.32501
1927.58049 1.32694
1925.53206 1.32830
1923.48362 1.32934
1921.43518 1.32996
1919.38674 1.32927
1917.33830 1.32943
1915.28986 1.33026
1913.24143 1.32946
1911.19299 1.32799
1909.14455 1.32764
1907.09611 1.32787
1905.04767 1.32745
1902.99923 1.32705
1900.95080 1.32760
1898.90236 1.32841
1896.85392 1.32859
1894.80548 1.32844
1892.75704 1.32785
1890.70860 1.32725
1888.66017 1.32833
1886.61173 1.32959
1884.56329 1.32967
1882.51485 1.32929
1880.46641 1.32861
1878.41797 1.32826
1876.36954 1.32847
1874.32110 1.32841
1872.27266 1.32713
1870.22422 1.32581
1868.17578 1.32834
1866.12734 1.33301
1864.07891 1.33541
1862.03047 1.33636
1859.98203 1.33743
1857.93359 1.33875
1855.88515 1.33937
1853.83671 1.33913
1851.78828 1.33832
1849.73984 1.33662
1847.69140 1.33400
1845.64296 1.33200
1843.59452 1.33385
1841.54608 1.33640
1839.49765 1.33554
1837.44921 1.33359
1835.40077 1.33292
1833.35233 1.33277
1831.30389 1.33269
1829.25545 1.33440
1827.20702 1.33667
1825.15858 1.33953
1823.11014 1.34323
1821.06170 1.34506
1819.01326 1.34626
1816.96482 1.34829
1814.91639 1.34973
1812.86795 1.34984
1810.81951 1.35014
1808.77107 1.35103
1806.72263 1.35095
1804.67419 1.34873
1802.62575 1.34535
1800.57732 1.34399
1798.52888 1.34408
1796.48044 1.34263
1794.43200 1.34033
1792.38356 1.34100
1790.33512 1.34537
1788.28669 1.34774
1786.23825 1.34797
1784.18981 1.34846
1782.14137 1.34956
1780.09293 1.35150
1778.04449 1.35359
1775.99606 1.35400
1773.94762 1.35353
1771.89918 1.35648
1769.85074 1.36138
1767.80230 1.36403
1765.75386 1.36469
1763.70543 1.36382
1761.65699 1.36432
1759.60855 1.36571
1757.56011 1.36642
1755.51167 1.36823
1753.46323 1.36927
1751.41480 1.36992
1749.36636 1.37412
1747.31792 1.38006
1745.26948 1.38474
1743.22104 1.38932
1741.17260 1.39469
1739.12417 1.40003
1737.07573 1.40109
1735.02729 1.39879
1732.97885 1.39920
1730.93041 1.39932
1728.88197 1.39738
1726.83354 1.39565
1724.78510 1.39498
1722.73666 1.39556
1720.68822 1.39478
1718.63978 1.39297
1716.59134 1.39646
1714.54291 1.40203
1712.49447 1.40259
1710.44603 1.39918
1708.39759 1.39376
1706.34915 1.38881
1704.30071 1.38563
1702.25228 1.38213
1700.20384 1.37885
1698.15540 1.37825
1696.10696 1.37980
1694.05852 1.38140
1692.01008 1.37978
1689.96165 1.37692
1687.91321 1.37397
1685.86477 1.37147
1683.81633 1.37747
1681.76789 1.38618
1679.71945 1.38855
1677.67102 1.38916
1675.62258 1.39121
1673.57414 1.39447
1671.52570 1.39629
1669.47726 1.39953
1667.42882 1.40264
1665.38038 1.40199
1663.33195 1.40118
1661.28351 1.40177
1659.23507 1.39988
1657.18663 1.39450
1655.13819 1.38723
1653.08975 1.38474
1651.04132 1.38627
1648.99288 1.38224
1646.94444 1.37992
1644.89600 1.38325
1642.84756 1.38521
1640.79912 1.38570
1638.75069 1.38502
1636.70225 1.38578
1634.65381 1.39302
1632.60537 1.39805
1630.55693 1.39933
1628.50849 1.40081
1626.46006 1.40261
1624.41162 1.40362
1622.36318 1.40523
1620.31474 1.40532
1618.26630 1.40376
1616.21786 1.40485
1614.16943 1.40623
1612.12099 1.40451
1610.07255 1.40182
1608.02411 1.39993
1605.97567 1.39830
1603.92723 1.39620
1601.87880 1.39444
1599.83036 1.39301
1597.78192 1.39092
1595.73348 1.38869
1593.68504 1.38781
1591.63660 1.38906
1589.58817 1.39196
1587.53973 1.39489
1585.49129 1.39716
1583.44285 1.39947
1581.39441 1.40117
1579.34597 1.40072
1577.29754 1.39957
1575.24910 1.40061
1573.20066 1.39999
1571.15222 1.39771
1569.10378 1.39773
1567.05534 1.39863
1565.00691 1.39801
1562.95847 1.39535
1560.91003 1.38980
1558.86159 1.38723
1556.81315 1.39102
1554.76471 1.39055
1552.71628 1.38837
1550.66784 1.38654
1548.61940 1.38598
1546.57096 1.38500
1544.52252 1.38254
1542.47408 1.37989
1540.42565 1.38252
1538.37721 1.38778
1536.32877 1.38652
1534.28033 1.38385
1532.23189 1.38363
1530.18345 1.38314
1528.13501 1.38133
1526.08658 1.37929
1524.03814 1.37613
1521.98970 1.37395
1519.94126 1.37477
1517.89282 1.37505
1515.84438 1.37454
1513.79595 1.37294
1511.74751 1.37011
1509.69907 1.36630
1507.65063 1.36589
1505.60219 1.37497
1503.55375 1.37771
1501.50532 1.37575
1499.45688 1.37429
1497.40844 1.37640
1495.36000 1.38031
1493.31156 1.38067
1491.26312 1.37928
1489.21469 1.38109
1487.16625 1.38495
1485.11781 1.38663
1483.06937 1.38731
1481.02093 1.38842
1478.97249 1.38913
1476.92406 1.38908
1474.87562 1.38939
1472.82718 1.39244
1470.77874 1.39728
1468.73030 1.39899
1466.68186 1.39932
1464.63343 1.40161
1462.58499 1.40341
1460.53655 1.40167
1458.48811 1.40008
1456.43967 1.40503
1454.39123 1.40865
1452.34280 1.40798
1450.29436 1.40677
1448.24592 1.40753
1446.19748 1.41014
1444.14904 1.41199
1442.10060 1.41256
1440.05217 1.41176
1438.00373 1.41018
1435.95529 1.41028
1433.90685 1.41066
1431.85841 1.40897
1429.80997 1.40575
1427.76154 1.40281
1425.71310 1.40172
1423.66466 1.40154
1421.61622 1.40009
1419.56778 1.39838
1417.51934 1.39846
1415.47091 1.39824
1413.42247 1.39745
1411.37403 1.39727
1409.32559 1.39793
1407.27715 1.39865
1405.22871 1.39970
1403.18028 1.40102
1401.13184 1.40096
1399.08340 1.39982
1397.03496 1.39884
1394.98652 1.39991
1392.93808 1.40246
1390.88965 1.40371
1388.84121 1.40398
1386.79277 1.40448
1384.74433 1.40580
1382.69589 1.40786
1380.64745 1.40889
1378.59901 1.40726
1376.55058 1.40425
1374.50214 1.40228
1372.45370 1.40149
1370.40526 1.39979
1368.35682 1.39724
1366.30838 1.39475
1364.25995 1.39243
1362.21151 1.39076
1360.16307 1.38931
1358.11463 1.38804
1356.06619 1.38817
1354.01775 1.38930
1351.96932 1.38988
1349.92088 1.39074
1347.87244 1.39255
1345.82400 1.39340
1343.77556 1.39322
1341.72712 1.39438
1339.67869 1.39835
1337.63025 1.40205
1335.58181 1.40213
1333.53337 1.40104
1331.48493 1.40132
1329.43649 1.40131
1327.38806 1.39868
1325.33962 1.39549
1323.29118 1.39470
1321.24274 1.39522
1319.19430 1.39543
1317.14586 1.39573
1315.09743 1.39591
1313.04899 1.39574
1311.00055 1.39600
1308.95211 1.39681
1306.90367 1.39737
1304.85523 1.39768
1302.80680 1.39890
1300.75836 1.40184
1298.70992 1.40556
1296.66148 1.40820
1294.61304 1.40917
1292.56460 1.40993
1290.51617 1.41171
1288.46773 1.41368
1286.41929 1.41495
1284.37085 1.41606
1282.32241 1.41781
1280.27397 1.42000
1278.22554 1.42166
1276.17710 1.42275
1274.12866 1.42421
1272.08022 1.42573
1270.03178 1.42609
1267.98334 1.42651
1265.93491 1.42814
1263.88647 1.42889
1261.83803 1.42819
1259.78959 1.42783
1257.74115 1.42748
1255.69271 1.42668
1253.64428 1.42657
1251.59584 1.42701
1249.54740 1.42742
1247.49896 1.42868
1245.45052 1.43060
1243.40208 1.43184
1241.35364 1.43284
1239.30521 1.43530
1237.25677 1.43901
1235.20833 1.44221
1233.15989 1.44464
1231.11145 1.44683
1229.06301 1.44868
1227.01458 1.45017
1224.96614 1.45096
1222.91770 1.45068
1220.86926 1.44997
1218.82082 1.44988
1216.77238 1.45122
1214.72395 1.45371
1212.67551 1.45602
1210.62707 1.45794
1208.57863 1.45974
1206.53019 1.46046
1204.48175 1.46016
1202.43332 1.46072
1200.38488 1.46219
1198.33644 1.46118
1196.28800 1.45699
1194.23956 1.45433
1192.19112 1.45545
1190.14269 1.45809
1188.09425 1.46058
1186.04581 1.46351
1183.99737 1.46787
1181.94893 1.47247
1179.90049 1.47544
1177.85206 1.47749
1175.80362 1.48000
1173.75518 1.48205
1171.70674 1.48261
1169.65830 1.48297
1167.60986 1.48412
1165.56143 1.48641
1163.51299 1.48987
1161.46455 1.49249
1159.41611 1.49291
1157.36767 1.49243
1155.31923 1.49110
1153.27080 1.48764
1151.22236 1.48392
1149.17392 1.48203
1147.12548 1.48133
1145.07704 1.48129
1143.02860 1.48208
1140.98017 1.48370
1138.93173 1.48515
1136.88329 1.48466
1134.83485 1.48281
1132.78641 1.48146
1130.73797 1.48084
1128.68954 1.48108
1126.64110 1.48315
1124.59266 1.48667
1122.54422 1.49008
1120.49578 1.49317
1118.44734 1.49583
1116.39891 1.49646
1114.35047 1.49395
1112.30203 1.49035
1110.25359 1.48969
1108.20515 1.49221
1106.15671 1.49404
1104.10827 1.49478
1102.05984 1.49702
1100.01140 1.49898
1097.96296 1.49714
1095.91452 1.49292
1093.86608 1.49002
1091.81764 1.48842
1089.76921 1.48609
1087.72077 1.48369
1085.67233 1.48340
1083.62389 1.48463
1081.57545 1.48386
1079.52701 1.47976
1077.47858 1.47511
1075.43014 1.47233
1073.38170 1.47122
1071.33326 1.47073
1069.28482 1.47114
1067.23638 1.47415
1065.18795 1.47925
1063.13951 1.48266
1061.09107 1.48277
1059.04263 1.48152
1056.99419 1.48033
1054.94575 1.48007
1052.89732 1.48158
1050.84888 1.48509
1048.80044 1.49052
1046.75200 1.49586
1044.70356 1.49812
1042.65512 1.49653
1040.60669 1.49173
1038.55825 1.48565
1036.50981 1.47972
1034.46137 1.47417
1032.41293 1.47014
1030.36449 1.46872
1028.31606 1.46982
1026.26762 1.47192
1024.21918 1.47312
1022.17074 1.47316
1020.12230 1.47309
1018.07386 1.47191
1016.02543 1.46844
1013.97699 1.46589
1011.92855 1.46728
1009.88011 1.47007
1007.83167 1.47115
1005.78323 1.47228
1003.73480 1.47514
1001.68636 1.47702
999.63792 1.47606
997.58948 1.47463
995.54104 1.47376
993.49260 1.47130
991.44417 1.46599
989.39573 1.45934
987.34729 1.45456
985.29885 1.45256
983.25041 1.45087
981.20197 1.44768
979.15354 1.44410
977.10510 1.44107
975.05666 1.43876
973.00822 1.43778
970.95978 1.43661
968.91134 1.43458
966.86290 1.43510
964.81447 1.43818
962.76603 1.43875
960.71759 1.43758
958.66915 1.43987
956.62071 1.44471
954.57227 1.44715
952.52384 1.44507
950.47540 1.44096
948.42696 1.43891
946.37852 1.43895
944.33008 1.43826
942.28164 1.43761
940.23321 1.43796
938.18477 1.43557
936.13633 1.42999
934.08789 1.42637
932.03945 1.42551
929.99101 1.42418
927.94258 1.42290
925.89414 1.42372
923.84570 1.42655
921.79726 1.43065
919.74882 1.43449
917.70038 1.43721
915.65195 1.44023
913.60351 1.44360
911.55507 1.44602
909.50663 1.44748
907.45819 1.44761
905.40975 1.44747
903.36132 1.44873
901.31288 1.44985
899.26444 1.45013
897.21600 1.44970
895.16756 1.44845
893.11912 1.44784
891.07069 1.44735
889.02225 1.44563
886.97381 1.44464
884.92537 1.44612
882.87693 1.44741
880.82849 1.44570
878.78006 1.44338
876.73162 1.44390
874.68318 1.44601
872.63474 1.44605
870.58630 1.44470
868.53786 1.44540
866.48943 1.44714
864.44099 1.44720
862.39255 1.44663
860.34411 1.44702
858.29567 1.44711
856.24723 1.44605
854.19880 1.44711
852.15036 1.45208
850.10192 1.45698
848.05348 1.45941
846.00504 1.46074
843.95660 1.46135
841.90817 1.46135
839.85973 1.46164
837.81129 1.46223
835.76285 1.46302
833.71441 1.46428
831.66597 1.46491
829.61753 1.46432
827.56910 1.46357
825.52066 1.46299
823.47222 1.46321
821.42378 1.46344
819.37534 1.46126
817.32690 1.46011
815.27847 1.46397
813.23003 1.46810
811.18159 1.46742
809.13315 1.46535
807.08471 1.46731
805.03627 1.47130
802.98784 1.47412
800.93940 1.47908
798.89096 1.48674
796.84252 1.49412
794.79408 1.50238
792.74564 1.51174
790.69721 1.51815
788.64877 1.52021
786.60033 1.52102
784.55189 1.52430
782.50345 1.53076
780.45501 1.53871
778.40658 1.54616
776.35814 1.54956
774.30970 1.54917
772.26126 1.54953
770.21282 1.55278
768.16438 1.55875
766.11595 1.56615
764.06751 1.57472
762.01907 1.58393
759.97063 1.59201
757.92219 1.60122
755.87375 1.61435
753.82532 1.62584
751.77688 1.62863
749.72844 1.62566
747.68000 1.62161
745.63156 1.61775
743.58312 1.61600
741.53469 1.61535
739.48625 1.61540
737.43781 1.62031
735.38937 1.62693
733.34093 1.62576
731.29249 1.61845
729.24406 1.61521
727.19562 1.61780
725.14718 1.62040
723.09874 1.62174
721.05030 1.62308
719.00186 1.62328
716.95343 1.62341
714.90499 1.62707
712.85655 1.63482
710.80811 1.64169
708.75967 1.64456
706.71123 1.64501
704.66280 1.64528
702.61436 1.64873
700.56592 1.65566
698.51748 1.66236
696.46904 1.66553
694.42060 1.66405
692.37216 1.65922
690.32373 1.65318
688.27529 1.64832
686.22685 1.64457
684.17841 1.64063
682.12997 1.63562
680.08153 1.63063
678.03310 1.63028
675.98466 1.63382
673.93622 1.63877
671.88778 1.64334
669.83934 1.64164
667.79090 1.63254
665.74247 1.63011
663.69403 1.63348
661.64559 1.64042
659.59715 1.64864
657.54871 1.64823
655.50027 1.64224
653.45184 1.64471
651.40340 1.65635
649.35496 1.66456
647.30652 1.66236
645.25808 1.65845
643.20964 1.65912
641.16121 1.65951
639.11277 1.65495
637.06433 1.64465
635.01589 1.63131
632.96745 1.61840
630.91901 1.60661
628.87058 1.60336
626.82214 1.61226
624.77370 1.62231
622.72526 1.63253
620.67682 1.65305
618.62838 1.66561
616.57995 1.64498
614.53151 1.61145
612.48307 1.58495
610.43463 1.56858
608.38619 1.56130
606.33775 1.55888
604.28932 1.56051
602.24088 1.56878
600.19244 1.58503
598.14400 1.59790
