3996.50324 1.10950
3994.45480 1.11004
3992.40636 1.11034
3990.35792 1.11055
3988.30948 1.11108
3986.26104 1.11130
3984.21261 1.11123
3982.16417 1.11138
3980.11573 1.11123
3978.06729 1.11048
3976.01885 1.11022
3973.97041 1.11089
3971.92198 1.11133
3969.87354 1.11146
3967.82510 1.11153
3965.77666 1.11086
3963.72822 1.11005
3961.67978 1.11068
3959.63135 1.11174
3957.58291 1.11196
3955.53447 1.11173
3953.48603 1.11077
3951.43759 1.11029
3949.38915 1.11266
3947.34072 1.11511
3945.29228 1.11341
3943.24384 1.11268
3941.19540 1.11494
3939.14696 1.11457
3937.09852 1.11236
3935.05009 1.11031
3933.00165 1.11109
3930.95321 1.11617
3928.90477 1.11744
3926.85633 1.11357
3924.80789 1.11284
3922.75946 1.11466
3920.71102 1.11303
3918.66258 1.11247
3916.61414 1.11640
3914.56570 1.11813
3912.51726 1.11517
3910.46883 1.11133
3908.42039 1.10695
3906.37195 1.10330
3904.32351 1.10788
3902.27507 1.11850
3900.22663 1.12489
3898.17820 1.12654
3896.12976 1.12140
3894.08132 1.11351
3892.03288 1.11447
3889.98444 1.12014
3887.93600 1.11580
3885.88756 1.11351
3883.83913 1.11828
3881.79069 1.11890
3879.74225 1.12260
3877.69381 1.12213
3875.64537 1.11548
3873.59693 1.11419
3871.54850 1.11671
3869.50006 1.12315
3867.45162 1.12562
3865.40318 1.12224
3863.35474 1.12545
3861.30630 1.12661
3859.25787 1.11919
3857.20943 1.10867
3855.16099 1.10267
3853.11255 1.12521
3851.06411 1.14417
3849.01567 1.13420
3846.96724 1.12041
3844.91880 1.11242
3842.87036 1.11159
3840.82192 1.11371
3838.77348 1.12027
3836.72504 1.12996
3834.67661 1.13020
3832.62817 1.12640
3830.57973 1.12424
3828.53129 1.12110
3826.48285 1.11894
3824.43441 1.11564
3822.38598 1.11313
3820.33754 1.12461
3818.28910 1.12962
3816.24066 1.12819
3814.19222 1.12994
3812.14378 1.12340
3810.09535 1.11314
3808.04691 1.11032
3805.99847 1.11734
3803.95003 1.11729
3801.90159 1.11906
3799.85315 1.12993
3797.80472 1.12936
3795.75628 1.12656
3793.70784 1.12450
3791.65940 1.11992
3789.61096 1.11679
3787.56252 1.11564
3785.51409 1.11716
3783.46565 1.11907
3781.41721 1.11756
3779.36877 1.12033
3777.32033 1.12500
3775.27189 1.12152
3773.22346 1.11486
3771.17502 1.11329
3769.12658 1.11955
3767.07814 1.12364
3765.02970 1.12423
3762.98126 1.12207
3760.93283 1.11792
3758.88439 1.12114
3756.83595 1.12481
3754.78751 1.11834
3752.73907 1.11205
3750.69063 1.12586
3748.64219 1.13920
3746.59376 1.13101
3744.54532 1.13059
3742.49688 1.13951
3740.44844 1.13354
3738.40000 1.12198
3736.35156 1.12179
3734.30313 1.13784
3732.25469 1.14567
3730.20625 1.13885
3728.15781 1.12914
3726.10937 1.12624
3724.06093 1.13029
3722.01250 1.13352
3719.96406 1.13433
3717.91562 1.13179
3715.86718 1.12566
3713.81874 1.11982
3711.77030 1.12680
3709.72187 1.14235
3707.67343 1.14166
3705.62499 1.13228
3703.57655 1.12578
3701.52811 1.12967
3699.47967 1.13509
3697.43124 1.13365
3695.38280 1.13030
3693.33436 1.12654
3691.28592 1.12639
3689.23748 1.14002
3687.18904 1.15031
3685.14061 1.14459
3683.09217 1.13571
3681.04373 1.13041
3678.99529 1.12753
3676.94685 1.12892
3674.89841 1.14470
3672.84998 1.14930
3670.80154 1.14519
3668.75310 1.15242
3666.70466 1.15221
3664.65622 1.14466
3662.60778 1.14080
3660.55935 1.13977
3658.51091 1.13866
3656.46247 1.14273
3654.41403 1.14642
3652.36559 1.14008
3650.31715 1.14041
3648.26872 1.16534
3646.22028 1.17341
3644.17184 1.16414
3642.12340 1.15606
3640.07496 1.15310
3638.02652 1.15219
3635.97809 1.15180
3633.92965 1.15206
3631.88121 1.15001
3629.83277 1.15285
3627.78433 1.17155
3625.73589 1.17577
3623.68746 1.16691
3621.63902 1.16041
3619.59058 1.16463
3617.54214 1.17437
3615.49370 1.17519
3613.44526 1.17383
3611.39682 1.17376
3609.34839 1.17369
3607.29995 1.17708
3605.25151 1.17715
3603.20307 1.17284
3601.15463 1.17199
3599.10619 1.17452
3597.05776 1.17563
3595.00932 1.17753
3592.96088 1.17921
3590.91244 1.17590
3588.86400 1.17430
3586.81556 1.18355
3584.76713 1.18881
3582.71869 1.18498
3580.67025 1.18174
3578.62181 1.18191
3576.57337 1.18321
3574.52493 1.18403
3572.47650 1.18332
3570.42806 1.18075
3568.37962 1.18268
3566.33118 1.19521
3564.28274 1.20116
3562.23430 1.19749
3560.18587 1.19476
3558.13743 1.19410
3556.08899 1.19285
3554.04055 1.19268
3551.99211 1.19593
3549.94367 1.19829
3547.89524 1.19859
3545.84680 1.20177
3543.79836 1.20468
3541.74992 1.20274
3539.70148 1.19974
3537.65304 1.19956
3535.60461 1.20138
3533.55617 1.20159
3531.50773 1.20062
3529.45929 1.20156
3527.41085 1.20409
3525.36241 1.20585
3523.31398 1.20741
3521.26554 1.20831
3519.21710 1.20774
3517.16866 1.20733
3515.12022 1.20740
3513.07178 1.20747
3511.02335 1.20887
3508.97491 1.21172
3506.92647 1.21316
3504.87803 1.21384
3502.82959 1.21658
3500.78115 1.21839
3498.73272 1.21753
3496.68428 1.21778
3494.63584 1.22004
3492.58740 1.22174
3490.53896 1.22245
3488.49052 1.22349
3486.44209 1.22419
3484.39365 1.22390
3482.34521 1.22459
3480.29677 1.22627
3478.24833 1.22670
3476.19989 1.22662
3474.15146 1.22676
3472.10302 1.22663
3470.05458 1.22684
3468.00614 1.22758
3465.95770 1.22818
3463.90926 1.22879
3461.86082 1.23005
3459.81239 1.23115
3457.76395 1.23124
3455.71551 1.23092
3453.66707 1.23076
3451.61863 1.23061
3449.57019 1.23072
3447.52176 1.23231
3445.47332 1.23433
3443.42488 1.23501
3441.37644 1.23500
3439.32800 1.23476
3437.27956 1.23502
3435.23113 1.23611
3433.18269 1.23724
3431.13425 1.23796
3429.08581 1.23853
3427.03737 1.23967
3424.98893 1.24088
3422.94050 1.24176
3420.89206 1.24301
3418.84362 1.24419
3416.79518 1.24445
3414.74674 1.24432
3412.69830 1.24459
3410.64987 1.24513
3408.60143 1.24573
3406.55299 1.24634
3404.50455 1.24636
3402.45611 1.24567
3400.40767 1.24503
3398.35924 1.24502
3396.31080 1.24577
3394.26236 1.24683
3392.21392 1.24764
3390.16548 1.24767
3388.11704 1.24748
3386.06861 1.24757
3384.02017 1.24725
3381.97173 1.24646
3379.92329 1.24591
3377.87485 1.24586
3375.82641 1.24576
3373.77798 1.24529
3371.72954 1.24485
3369.68110 1.24484
3367.63266 1.24500
3365.58422 1.24528
3363.53578 1.24613
3361.48735 1.24726
3359.43891 1.24800
3357.39047 1.24827
3355.34203 1.24815
3353.29359 1.24742
3351.24515 1.24670
3349.19672 1.24671
3347.14828 1.24719
3345.09984 1.24775
3343.05140 1.24848
3341.00296 1.24969
3338.95452 1.25084
3336.90609 1.25170
3334.85765 1.25248
3332.80921 1.25271
3330.76077 1.25252
3328.71233 1.25227
3326.66389 1.25192
3324.61545 1.25131
3322.56702 1.25049
3320.51858 1.24994
3318.47014 1.24984
3316.42170 1.24986
3314.37326 1.24951
3312.32482 1.24865
3310.27639 1.24778
3308.22795 1.24725
3306.17951 1.24707
3304.13107 1.24704
3302.08263 1.24671
3300.03419 1.24582
3297.98576 1.24516
3295.93732 1.24537
3293.88888 1.24623
3291.84044 1.24724
3289.79200 1.24789
3287.74356 1.24857
3285.69513 1.24967
3283.64669 1.25063
3281.59825 1.25114
3279.54981 1.25146
3277.50137 1.25190
3275.45293 1.25268
3273.40450 1.25347
3271.35606 1.25328
3269.30762 1.25233
3267.25918 1.25185
3265.21074 1.25236
3263.16230 1.25338
3261.11387 1.25406
3259.06543 1.25395
3257.01699 1.25348
3254.96855 1.25356
3252.92011 1.25358
3250.87167 1.25223
3248.82324 1.25022
3246.77480 1.24890
3244.72636 1.24858
3242.67792 1.24820
3240.62948 1.24691
3238.58104 1.24588
3236.53261 1.24583
3234.48417 1.24576
3232.43573 1.24538
3230.38729 1.24505
3228.33885 1.24489
3226.29041 1.24496
3224.24198 1.24501
3222.19354 1.24498
3220.14510 1.24506
3218.09666 1.24495
3216.04822 1.24464
3213.99978 1.24443
3211.95135 1.24418
3209.90291 1.24377
3207.85447 1.24312
3205.80603 1.24195
3203.75759 1.24087
3201.70915 1.24059
3199.66072 1.24090
3197.61228 1.24121
3195.56384 1.24084
3193.51540 1.23986
3191.46696 1.23857
3189.41852 1.23711
3187.37008 1.23612
3185.32165 1.23598
3183.27321 1.23590
3181.22477 1.23526
3179.17633 1.23484
3177.12789 1.23532
3175.07945 1.23592
3173.03102 1.23586
3170.98258 1.23535
3168.93414 1.23478
3166.88570 1.23385
3164.83726 1.23230
3162.78882 1.23084
3160.74039 1.22995
3158.69195 1.22896
3156.64351 1.22764
3154.59507 1.22641
3152.54663 1.22519
3150.49819 1.22417
3148.44976 1.22373
3146.40132 1.22364
3144.35288 1.22363
3142.30444 1.22395
3140.25600 1.22453
3138.20756 1.22490
3136.15913 1.22507
3134.11069 1.22541
3132.06225 1.22598
3130.01381 1.22618
3127.96537 1.22600
3125.91693 1.22586
3123.86850 1.22587
3121.82006 1.22603
3119.77162 1.22610
3117.72318 1.22641
3115.67474 1.22749
3113.62630 1.22874
3111.57787 1.22923
3109.52943 1.22919
3107.48099 1.22892
3105.43255 1.22821
3103.38411 1.22744
3101.33567 1.22691
3099.28724 1.22613
3097.23880 1.22506
3095.19036 1.22401
3093.14192 1.22280
3091.09348 1.22156
3089.04504 1.22065
3086.99661 1.22009
3084.94817 1.21996
3082.89973 1.22011
3080.85129 1.22046
3078.80285 1.22082
3076.75441 1.22091
3074.70598 1.22066
3072.65754 1.22012
3070.60910 1.21950
3068.56066 1.21947
3066.51222 1.22015
3064.46378 1.22073
3062.41535 1.22076
3060.36691 1.22061
3058.31847 1.22083
3056.27003 1.22162
3054.22159 1.22265
3052.17315 1.22376
3050.12471 1.22487
3048.07628 1.22561
3046.02784 1.22579
3043.97940 1.22576
3041.93096 1.22570
3039.88252 1.22537
3037.83408 1.22493
3035.78565 1.22481
3033.73721 1.22501
3031.68877 1.22530
3029.64033 1.22540
3027.59189 1.22540
3025.54345 1.22559
3023.49502 1.22565
3021.44658 1.22554
3019.39814 1.22575
3017.34970 1.22658
3015.30126 1.22818
3013.25282 1.23015
3011.20439 1.23171
3009.15595 1.23276
3007.10751 1.23350
3005.05907 1.23392
3003.01063 1.23365
3000.96219 1.23241
2998.91376 1.23124
2996.86532 1.23117
2994.81688 1.23211
2992.76844 1.23354
2990.72000 1.23548
2988.67156 1.23837
2986.62313 1.24215
2984.57469 1.24636
2982.52625 1.25096
2980.47781 1.25595
2978.42937 1.26086
2976.38093 1.26558
2974.33250 1.27078
2972.28406 1.27698
2970.23562 1.28373
2968.18718 1.29083
2966.13874 1.29862
2964.09030 1.30666
2962.04187 1.31375
2959.99343 1.31880
2957.94499 1.32176
2955.89655 1.32328
2953.84811 1.32326
2951.79967 1.32178
2949.75124 1.32005
2947.70280 1.31940
2945.65436 1.32073
2943.60592 1.32443
2941.55748 1.33030
2939.50904 1.33737
2937.46061 1.34503
2935.41217 1.35305
2933.36373 1.36071
2931.31529 1.36796
2929.26685 1.37465
2927.21841 1.37986
2925.16998 1.38292
2923.12154 1.38401
2921.07310 1.38344
2919.02466 1.38090
2916.97622 1.37590
2914.92778 1.36813
2912.87934 1.35781
2910.83091 1.34676
2908.78247 1.33737
2906.73403 1.33028
2904.68559 1.32454
2902.63715 1.31915
2900.58871 1.31391
2898.54028 1.30900
2896.49184 1.30437
2894.44340 1.30019
2892.39496 1.29636
2890.34652 1.29248
2888.29808 1.28871
2886.24965 1.28536
2884.20121 1.28252
2882.15277 1.28031
2880.10433 1.27919
2878.05589 1.27949
2876.00745 1.28101
2873.95902 1.28342
2871.91058 1.28579
2869.86214 1.28703
2867.81370 1.28812
2865.76526 1.29109
2863.71682 1.29662
2861.66839 1.30407
2859.61995 1.31286
2857.57151 1.32244
2855.52307 1.33143
2853.47463 1.33796
2851.42619 1.33990
2849.37776 1.33492
2847.32932 1.32203
2845.28088 1.30379
2843.23244 1.28496
2841.18400 1.26880
2839.13556 1.25652
2837.08713 1.24782
2835.03869 1.24108
2832.99025 1.23528
2830.94181 1.23061
2828.89337 1.22705
2826.84493 1.22411
2824.79650 1.22122
2822.74806 1.21819
2820.69962 1.21573
2818.65118 1.21419
2816.60274 1.21252
2814.55430 1.21026
2812.50587 1.20826
2810.45743 1.20676
2808.40899 1.20515
2806.36055 1.20337
2804.31211 1.20184
2802.26367 1.20043
2800.21524 1.19884
2798.16680 1.19727
2796.11836 1.19601
2794.06992 1.19502
2792.02148 1.19406
2789.97304 1.19307
2787.92461 1.19211
2785.87617 1.19137
2783.82773 1.19096
2781.77929 1.19081
2779.73085 1.19081
2777.68241 1.19069
2775.63397 1.19041
2773.58554 1.19018
2771.53710 1.18981
2769.48866 1.18923
2767.44022 1.18872
2765.39178 1.18844
2763.34334 1.18824
2761.29491 1.18799
2759.24647 1.18795
2757.19803 1.18804
2755.14959 1.18791
2753.10115 1.18763
2751.05271 1.18745
2749.00428 1.18728
2746.95584 1.18686
2744.90740 1.18650
2742.85896 1.18652
2740.81052 1.18643
2738.76208 1.18610
2736.71365 1.18637
2734.66521 1.18732
2732.61677 1.18825
2730.56833 1.18901
2728.51989 1.18976
2726.47145 1.19030
2724.42302 1.19056
2722.37458 1.19077
2720.32614 1.19080
2718.27770 1.19057
2716.22926 1.19020
2714.18082 1.18947
2712.13239 1.18855
2710.08395 1.18779
2708.03551 1.18673
2705.98707 1.18517
2703.93863 1.18389
2701.89019 1.18324
2699.84176 1.18287
2697.79332 1.18266
2695.74488 1.18272
2693.69644 1.18301
2691.64800 1.18327
2689.59956 1.18340
2687.55113 1.18360
2685.50269 1.18406
2683.45425 1.18473
2681.40581 1.18509
2679.35737 1.18474
2677.30893 1.18424
2675.26050 1.18423
2673.21206 1.18459
2671.16362 1.18480
2669.11518 1.18460
2667.06674 1.18408
2665.01830 1.18367
2662.96987 1.18380
2660.92143 1.18449
2658.87299 1.18530
2656.82455 1.18594
2654.77611 1.18630
2652.72767 1.18634
2650.67924 1.18630
2648.63080 1.18611
2646.58236 1.18546
2644.53392 1.18428
2642.48548 1.18301
2640.43704 1.18229
2638.38860 1.18210
2636.34017 1.18192
2634.29173 1.18149
2632.24329 1.18092
2630.19485 1.18038
2628.14641 1.17984
2626.09797 1.17910
2624.04954 1.17821
2622.00110 1.17750
2619.95266 1.17721
2617.90422 1.17726
2615.85578 1.17731
2613.80734 1.17727
2611.75891 1.17723
2609.71047 1.17733
2607.66203 1.17762
2605.61359 1.17780
2603.56515 1.17782
2601.51671 1.17813
2599.46828 1.17876
2597.41984 1.17926
2595.37140 1.17942
2593.32296 1.17950
2591.27452 1.18013
2589.22608 1.18107
2587.17765 1.18147
2585.12921 1.18138
2583.08077 1.18131
2581.03233 1.18173
2578.98389 1.18270
2576.93545 1.18378
2574.88702 1.18451
2572.83858 1.18471
2570.79014 1.18460
2568.74170 1.18425
2566.69326 1.18356
2564.64482 1.18255
2562.59639 1.18131
2560.54795 1.17981
2558.49951 1.17838
2556.45107 1.17741
2554.40263 1.17691
2552.35419 1.17680
2550.30576 1.17687
2548.25732 1.17677
2546.20888 1.17656
2544.16044 1.17645
2542.11200 1.17629
2540.06356 1.17586
2538.01513 1.17551
2535.96669 1.17614
2533.91825 1.17767
2531.86981 1.17909
2529.82137 1.18021
2527.77293 1.18130
2525.72450 1.18196
2523.67606 1.18201
2521.62762 1.18190
2519.57918 1.18186
2517.53074 1.18214
2515.48230 1.18291
2513.43387 1.18408
2511.38543 1.18544
2509.33699 1.18667
2507.28855 1.18755
2505.24011 1.18810
2503.19167 1.18821
2501.14324 1.18802
2499.09480 1.18795
2497.04636 1.18794
2494.99792 1.18749
2492.94948 1.18673
2490.90104 1.18591
2488.85260 1.18478
2486.80417 1.18352
2484.75573 1.18263
2482.70729 1.18210
2480.65885 1.18188
2478.61041 1.18205
2476.56197 1.18238
2474.51354 1.18247
2472.46510 1.18234
2470.41666 1.18229
2468.36822 1.18266
2466.31978 1.18353
2464.27134 1.18456
2462.22291 1.18543
2460.17447 1.18600
2458.12603 1.18629
2456.07759 1.18658
2454.02915 1.18700
2451.98071 1.18758
2449.93228 1.18843
2447.88384 1.18927
2445.83540 1.19011
2443.78696 1.19162
2441.73852 1.19398
2439.69008 1.19659
2437.64165 1.19935
2435.59321 1.20297
2433.54477 1.20786
2431.49633 1.21372
2429.44789 1.21877
2427.39945 1.22026
2425.35102 1.21743
2423.30258 1.21195
2421.25414 1.20559
2419.20570 1.19951
2417.15726 1.19451
2415.10882 1.19075
2413.06039 1.18798
2411.01195 1.18588
2408.96351 1.18419
2406.91507 1.18284
2404.86663 1.18163
2402.81819 1.18044
2400.76976 1.17965
2398.72132 1.17922
2396.67288 1.17890
2394.62444 1.17916
2392.57600 1.18027
2390.52756 1.18168
2388.47913 1.18296
2386.43069 1.18379
2384.38225 1.18398
2382.33381 1.18396
2380.28537 1.18412
2378.23693 1.18461
2376.18850 1.18519
2374.14006 1.18554
2372.09162 1.18648
2370.04318 1.18855
2367.99474 1.19040
2365.94630 1.19120
2363.89787 1.19229
2361.84943 1.19421
2359.80099 1.19682
2357.75255 1.20006
2355.70411 1.20184
2353.65567 1.20198
2351.60723 1.20062
2349.55880 1.19543
2347.51036 1.18826
2345.46192 1.18523
2343.41348 1.18891
2341.36504 1.19303
2339.31660 1.19519
2337.26817 1.19691
2335.21973 1.19817
2333.17129 1.19876
2331.12285 1.19912
2329.07441 1.19885
2327.02597 1.19745
2324.97754 1.19543
2322.92910 1.19366
2320.88066 1.19245
2318.83222 1.19135
2316.78378 1.19040
2314.73534 1.19009
2312.68691 1.19035
2310.63847 1.19070
2308.59003 1.19076
2306.54159 1.19011
2304.49315 1.18882
2302.44471 1.18790
2300.39628 1.18763
2298.34784 1.18707
2296.29940 1.18601
2294.25096 1.18506
2292.20252 1.18458
2290.15408 1.18454
2288.10565 1.18440
2286.05721 1.18396
2284.00877 1.18362
2281.96033 1.18355
2279.91189 1.18349
2277.86345 1.18347
2275.81502 1.18385
2273.76658 1.18465
2271.71814 1.18540
2269.66970 1.18587
2267.62126 1.18607
2265.57282 1.18599
2263.52439 1.18565
2261.47595 1.18500
2259.42751 1.18423
2257.37907 1.18373
2255.33063 1.18351
2253.28219 1.18343
2251.23376 1.18340
2249.18532 1.18335
2247.13688 1.18326
2245.08844 1.18335
2243.04000 1.18377
2240.99156 1.18435
2238.94313 1.18509
2236.89469 1.18594
2234.84625 1.18678
2232.79781 1.18787
2230.74937 1.18906
2228.70093 1.18996
2226.65250 1.19079
2224.60406 1.19152
2222.55562 1.19159
2220.50718 1.19107
2218.45874 1.19056
2216.41030 1.19043
2214.36186 1.19054
2212.31343 1.19063
2210.26499 1.19067
2208.21655 1.19054
2206.16811 1.19020
2204.11967 1.19001
2202.07123 1.19003
2200.02280 1.19007
2197.97436 1.19028
2195.92592 1.19067
2193.87748 1.19110
2191.82904 1.19149
2189.78060 1.19171
2187.73217 1.19168
2185.68373 1.19144
2183.63529 1.19121
2181.58685 1.19106
2179.53841 1.19094
2177.48997 1.19115
2175.44154 1.19156
2173.39310 1.19158
2171.34466 1.19131
2169.29622 1.19100
2167.24778 1.19079
2165.19934 1.19092
2163.15091 1.19140
2161.10247 1.19191
2159.05403 1.19200
2157.00559 1.19190
2154.95715 1.19216
2152.90871 1.19240
2150.86028 1.19213
2148.81184 1.19178
2146.76340 1.19199
2144.71496 1.19251
2142.66652 1.19288
2140.61808 1.19315
2138.56965 1.19345
2136.52121 1.19388
2134.47277 1.19432
2132.42433 1.19463
2130.37589 1.19494
2128.32745 1.19525
2126.27902 1.19553
2124.23058 1.19612
2122.18214 1.19710
2120.13370 1.19795
2118.08526 1.19841
2116.03682 1.19857
2113.98839 1.19845
2111.93995 1.19805
2109.89151 1.19752
2107.84307 1.19718
2105.79463 1.19687
2103.74619 1.19578
2101.69776 1.19403
2099.64932 1.19267
2097.60088 1.19210
2095.55244 1.19193
2093.50400 1.19199
2091.45556 1.19262
2089.40713 1.19367
2087.35869 1.19475
2085.31025 1.19583
2083.26181 1.19669
2081.21337 1.19718
2079.16493 1.19777
2077.11649 1.19856
2075.06806 1.19894
2073.01962 1.19892
2070.97118 1.19891
2068.92274 1.19891
2066.87430 1.19911
2064.82586 1.19986
2062.77743 1.20074
2060.72899 1.20164
2058.68055 1.20282
2056.63211 1.20366
2054.58367 1.20376
2052.53523 1.20350
2050.48680 1.20311
2048.43836 1.20256
2046.38992 1.20199
2044.34148 1.20206
2042.29304 1.20288
2040.24460 1.20348
2038.19617 1.20307
2036.14773 1.20210
2034.09929 1.20122
2032.05085 1.20063
2030.00241 1.20050
2027.95397 1.20118
2025.90554 1.20223
2023.85710 1.20274
2021.80866 1.20268
2019.76022 1.20267
2017.71178 1.20315
2015.66334 1.20326
2013.61491 1.20223
2011.56647 1.20134
2009.51803 1.20170
2007.46959 1.20286
2005.42115 1.20388
2003.37271 1.20451
2001.32428 1.20519
1999.27584 1.20616
1997.22740 1.20678
1995.17896 1.20676
1993.13052 1.20781
1991.08208 1.21033
1989.03365 1.21192
1986.98521 1.21245
1984.93677 1.21268
1982.88833 1.21254
1980.83989 1.21223
1978.79145 1.21166
1976.74302 1.21095
1974.69458 1.21039
1972.64614 1.20999
1970.59770 1.20969
1968.54926 1.21034
1966.50082 1.21192
1964.45239 1.21206
1962.40395 1.21062
1960.35551 1.20957
1958.30707 1.20941
1956.25863 1.20974
1954.21019 1.21006
1952.16176 1.20997
1950.11332 1.20954
1948.06488 1.20911
1946.01644 1.20896
1943.96800 1.21000
1941.91956 1.21279
1939.87112 1.21440
1937.82269 1.21436
1935.77425 1.21497
1933.72581 1.21590
1931.67737 1.21615
1929.62893 1.21574
1927.58049 1.21490
1925.53206 1.21380
1923.48362 1.21389
1921.43518 1.21396
1919.38674 1.21294
1917.33830 1.21399
1915.28986 1.21500
1913.24143 1.21426
1911.19299 1.21495
1909.14455 1.21754
1907.09611 1.21941
1905.04767 1.21949
1902.99923 1.21888
1900.95080 1.21808
1898.90236 1.21698
1896.85392 1.21627
1894.80548 1.21620
1892.75704 1.21501
1890.70860 1.21427
1888.66017 1.21596
1886.61173 1.21669
1884.56329 1.21622
1882.51485 1.21606
1880.46641 1.21590
1878.41797 1.21586
1876.36954 1.21588
1874.32110 1.21528
1872.27266 1.21364
1870.22422 1.21397
1868.17578 1.21879
1866.12734 1.22029
1864.07891 1.21697
1862.03047 1.21485
1859.98203 1.21509
1857.93359 1.21545
1855.88515 1.21498
1853.83671 1.21445
1851.78828 1.21423
1849.73984 1.21445
1847.69140 1.21504
1845.64296 1.21707
1843.59452 1.22213
1841.54608 1.22289
1839.49765 1.21913
1837.44921 1.21726
1835.40077 1.21732
1833.35233 1.21628
1831.30389 1.21690
1829.25545 1.22208
1827.20702 1.22442
1825.15858 1.22416
1823.11014 1.22383
1821.06170 1.22076
1819.01326 1.21773
1816.96482 1.21698
1814.91639 1.21690
1812.86795 1.21714
1810.81951 1.21894
1808.77107 1.21998
1806.72263 1.21874
1804.67419 1.21718
1802.62575 1.21700
1800.57732 1.21915
1798.52888 1.22095
1796.48044 1.22034
1794.43200 1.21985
1792.38356 1.22457
1790.33512 1.22947
1788.28669 1.22733
1786.23825 1.22548
1784.18981 1.22807
1782.14137 1.23175
1780.09293 1.23524
1778.04449 1.23713
1775.99606 1.23668
1773.94762 1.23866
1771.89918 1.24790
1769.85074 1.25420
1767.80230 1.25379
1765.75386 1.25201
1763.70543 1.25159
1761.65699 1.25725
1759.60855 1.26390
1757.56011 1.26822
1755.51167 1.27311
1753.46323 1.27592
1751.41480 1.28289
1749.36636 1.29999
1747.31792 1.31486
1745.26948 1.32346
1743.22104 1.33114
1741.17260 1.33928
1739.12417 1.34607
1737.07573 1.34659
1735.02729 1.34622
1732.97885 1.35107
1730.93041 1.34811
1728.88197 1.33928
1726.83354 1.33144
1724.78510 1.32688
1722.73666 1.32463
1720.68822 1.32158
1718.63978 1.32195
1716.59134 1.33163
1714.54291 1.33436
1712.49447 1.32935
1710.44603 1.32469
1708.39759 1.32247
1706.34915 1.32459
1704.30071 1.32634
1702.25228 1.32294
1700.20384 1.32475
1698.15540 1.33239
1696.10696 1.33484
1694.05852 1.33283
1692.01008 1.32804
1689.96165 1.32513
1687.91321 1.32314
1685.86477 1.32135
1683.81633 1.32857
1681.76789 1.33151
1679.71945 1.32497
1677.67102 1.31897
1675.62258 1.31919
1673.57414 1.32294
1671.52570 1.32419
1669.47726 1.32750
1667.42882 1.32701
1665.38038 1.32149
1663.33195 1.32088
1661.28351 1.32532
1659.23507 1.32560
1657.18663 1.32225
1655.13819 1.32017
1653.08975 1.33206
1651.04132 1.33905
1648.99288 1.33421
1646.94444 1.33604
1644.89600 1.33758
1642.84756 1.33234
1640.79912 1.32863
1638.75069 1.32818
1636.70225 1.33385
1634.65381 1.34224
1632.60537 1.33925
1630.55693 1.33402
1628.50849 1.33347
1626.46006 1.33528
1624.41162 1.33727
1622.36318 1.33996
1620.31474 1.33815
1618.26630 1.33596
1616.21786 1.33941
1614.16943 1.33864
1612.12099 1.33332
1610.07255 1.33056
1608.02411 1.33051
1605.97567 1.32962
1603.92723 1.32851
1601.87880 1.32922
1599.83036 1.33028
1597.78192 1.33056
1595.73348 1.33128
1593.68504 1.33239
1591.63660 1.33324
1589.58817 1.33457
1587.53973 1.33642
1585.49129 1.33844
1583.44285 1.34053
1581.39441 1.34113
1579.34597 1.33966
1577.29754 1.34041
1575.24910 1.34283
1573.20066 1.33781
1571.15222 1.33280
1569.10378 1.33346
1567.05534 1.33210
1565.00691 1.32825
1562.95847 1.32465
1560.91003 1.32251
1558.86159 1.33688
1556.81315 1.34756
1554.76471 1.34001
1552.71628 1.33410
1550.66784 1.33275
1548.61940 1.33356
1546.57096 1.33419
1544.52252 1.33828
1542.47408 1.34703
1540.42565 1.35509
1538.37721 1.34816
1536.32877 1.33539
1534.28033 1.32728
1532.23189 1.32318
1530.18345 1.31756
1528.13501 1.31391
1526.08658 1.31480
1524.03814 1.31609
1521.98970 1.32017
1519.94126 1.32338
1517.89282 1.32044
1515.84438 1.31662
1513.79595 1.31175
1511.74751 1.30757
1509.69907 1.30642
1507.65063 1.31324
1505.60219 1.31862
1503.55375 1.30859
1501.50532 1.29839
1499.45688 1.29350
1497.40844 1.29490
1495.36000 1.29493
1493.31156 1.28995
1491.26312 1.28859
1489.21469 1.29604
1487.16625 1.29845
1485.11781 1.29365
1483.06937 1.29151
1481.02093 1.29437
1478.97249 1.29902
1476.92406 1.30559
1474.87562 1.31813
1472.82718 1.33851
1470.77874 1.35202
1468.73030 1.35340
1466.68186 1.35445
1464.63343 1.35825
1462.58499 1.35801
1460.53655 1.35510
1458.48811 1.35862
1456.43967 1.36821
1454.39123 1.36355
1452.34280 1.35475
1450.29436 1.34958
1448.24592 1.34895
1446.19748 1.34890
1444.14904 1.34628
1442.10060 1.34258
1440.05217 1.33865
1438.00373 1.33733
1435.95529 1.34111
1433.90685 1.34165
1431.85841 1.33918
1429.80997 1.33816
1427.76154 1.33669
1425.71310 1.33562
1423.66466 1.33755
1421.61622 1.34042
1419.56778 1.34596
1417.51934 1.35117
1415.47091 1.34753
1413.42247 1.34227
1411.37403 1.33992
1409.32559 1.33859
1407.27715 1.33743
1405.22871 1.33811
1403.18028 1.33838
1401.13184 1.33716
1399.08340 1.33791
1397.03496 1.33963
1394.98652 1.33948
1392.93808 1.33646
1390.88965 1.33219
1388.84121 1.33147
1386.79277 1.33520
1384.74433 1.33688
1382.69589 1.33603
1380.64745 1.33640
1378.59901 1.33786
1376.55058 1.33857
1374.50214 1.33777
1372.45370 1.33430
1370.40526 1.33047
1368.35682 1.32957
1366.30838 1.32982
1364.25995 1.33009
1362.21151 1.33102
1360.16307 1.32968
1358.11463 1.32646
1356.06619 1.32421
1354.01775 1.32373
1351.96932 1.32461
1349.92088 1.32597
1347.87244 1.32669
1345.82400 1.32597
1343.77556 1.32373
1341.72712 1.32222
1339.67869 1.32401
1337.63025 1.32596
1335.58181 1.32482
1333.53337 1.32359
1331.48493 1.32454
1329.43649 1.32620
1327.38806 1.32653
1325.33962 1.32631
1323.29118 1.32742
1321.24274 1.33023
1319.19430 1.33356
1317.14586 1.33544
1315.09743 1.33614
1313.04899 1.33711
1311.00055 1.33766
1308.95211 1.33741
1306.90367 1.33727
1304.85523 1.33758
1302.80680 1.33803
1300.75836 1.33766
1298.70992 1.33618
1296.66148 1.33494
1294.61304 1.33516
1292.56460 1.33690
1290.51617 1.33945
1288.46773 1.34164
1286.41929 1.34209
1284.37085 1.34043
1282.32241 1.33800
1280.27397 1.33640
1278.22554 1.33648
1276.17710 1.33781
1274.12866 1.33946
1272.08022 1.34148
1270.03178 1.34443
1267.98334 1.34732
1265.93491 1.34861
1263.88647 1.34811
1261.83803 1.34673
1259.78959 1.34583
1257.74115 1.34669
1255.69271 1.34920
1253.64428 1.35194
1251.59584 1.35402
1249.54740 1.35600
1247.49896 1.35854
1245.45052 1.36137
1243.40208 1.36284
1241.35364 1.36138
1239.30521 1.35791
1237.25677 1.35433
1235.20833 1.35142
1233.15989 1.34976
1231.11145 1.35019
1229.06301 1.35226
1227.01458 1.35405
1224.96614 1.35466
1222.91770 1.35499
1220.86926 1.35536
1218.82082 1.35506
1216.77238 1.35392
1214.72395 1.35225
1212.67551 1.35082
1210.62707 1.35035
1208.57863 1.35104
1206.53019 1.35271
1204.48175 1.35479
1202.43332 1.35667
1200.38488 1.35833
1198.33644 1.36020
1196.28800 1.36211
1194.23956 1.36321
1192.19112 1.36354
1190.14269 1.36386
1188.09425 1.36420
1186.04581 1.36462
1183.99737 1.36639
1181.94893 1.36991
1179.90049 1.37336
1177.85206 1.37515
1175.80362 1.37543
1173.75518 1.37528
1171.70674 1.37564
1169.65830 1.37562
1167.60986 1.37400
1165.56143 1.37156
1163.51299 1.36988
1161.46455 1.36951
1159.41611 1.36928
1157.36767 1.36788
1155.31923 1.36543
1153.27080 1.36247
1151.22236 1.35974
1149.17392 1.35802
1147.12548 1.35740
1145.07704 1.35791
1143.02860 1.35957
1140.98017 1.36124
1138.93173 1.36142
1136.88329 1.35973
1134.83485 1.35775
1132.78641 1.35756
1130.73797 1.35950
1128.68954 1.36264
1126.64110 1.36535
1124.59266 1.36637
1122.54422 1.36652
1120.49578 1.36669
1118.44734 1.36590
1116.39891 1.36478
1114.35047 1.36534
1112.30203 1.36736
1110.25359 1.36915
1108.20515 1.36959
1106.15671 1.36903
1104.10827 1.36859
1102.05984 1.36856
1100.01140 1.36871
1097.96296 1.36936
1095.91452 1.37101
1093.86608 1.37332
1091.81764 1.37466
1089.76921 1.37426
1087.72077 1.37355
1085.67233 1.37314
1083.62389 1.37168
1081.57545 1.36825
1079.52701 1.36331
1077.47858 1.35787
1075.43014 1.35280
1073.38170 1.34884
1071.33326 1.34674
1069.28482 1.34685
1067.23638 1.34856
1065.18795 1.35084
1063.13951 1.35292
1061.09107 1.35408
1059.04263 1.35440
1056.99419 1.35502
1054.94575 1.35521
1052.89732 1.35372
1050.84888 1.35232
1048.80044 1.35245
1046.75200 1.35297
1044.70356 1.35315
1042.65512 1.35347
1040.60669 1.35356
1038.55825 1.35278
1036.50981 1.35213
1034.46137 1.35237
1032.41293 1.35281
1030.36449 1.35371
1028.31606 1.35586
1026.26762 1.35807
1024.21918 1.35834
1022.17074 1.35728
1020.12230 1.35695
1018.07386 1.35717
1016.02543 1.35702
1013.97699 1.35715
1011.92855 1.35755
1009.88011 1.35814
1007.83167 1.35906
1005.78323 1.35947
1003.73480 1.35934
1001.68636 1.35949
999.63792 1.35908
997.58948 1.35655
995.54104 1.35241
993.49260 1.34840
991.44417 1.34509
989.39573 1.34189
987.34729 1.33876
985.29885 1.33691
983.25041 1.33711
981.20197 1.33804
979.15354 1.33827
977.10510 1.33824
975.05666 1.33841
973.00822 1.33836
970.95978 1.33797
968.91134 1.33806
966.86290 1.33845
964.81447 1.33787
962.76603 1.33700
960.71759 1.33737
958.66915 1.33885
956.62071 1.34079
954.57227 1.34230
952.52384 1.34219
950.47540 1.34121
948.42696 1.34173
946.37852 1.34396
944.33008 1.34539
942.28164 1.34476
940.23321 1.34317
938.18477 1.34188
936.13633 1.34165
934.08789 1.34199
932.03945 1.34123
929.99101 1.33945
927.94258 1.33780
925.89414 1.33706
923.84570 1.33743
921.79726 1.33901
919.74882 1.34213
917.70038 1.34571
915.65195 1.34844
913.60351 1.35081
911.55507 1.35336
909.50663 1.35553
907.45819 1.35765
905.40975 1.36075
903.36132 1.36440
901.31288 1.36751
899.26444 1.36962
897.21600 1.37101
895.16756 1.37191
893.11912 1.37236
891.07069 1.37345
889.02225 1.37671
886.97381 1.38077
884.92537 1.38277
882.87693 1.38450
880.82849 1.38888
878.78006 1.39265
876.73162 1.39198
874.68318 1.38971
872.63474 1.38937
870.58630 1.39007
868.53786 1.39022
866.48943 1.38924
864.44099 1.38738
862.39255 1.38490
860.34411 1.38251
858.29567 1.38246
856.24723 1.38478
854.19880 1.38776
852.15036 1.39106
850.10192 1.39462
848.05348 1.39736
846.00504 1.39784
843.95660 1.39597
841.90817 1.39429
839.85973 1.39557
837.81129 1.39845
835.76285 1.40017
833.71441 1.39991
831.66597 1.39838
829.61753 1.39776
827.56910 1.39883
825.52066 1.40020
823.47222 1.40177
821.42378 1.40459
819.37534 1.40771
817.32690 1.41036
815.27847 1.41415
813.23003 1.41819
811.18159 1.41946
809.13315 1.41765
807.08471 1.41515
805.03627 1.41602
802.98784 1.42082
800.93940 1.42619
798.89096 1.43214
796.84252 1.43985
794.79408 1.44731
792.74564 1.45204
790.69721 1.45474
788.64877 1.45835
786.60033 1.46481
784.55189 1.47386
782.50345 1.48257
780.45501 1.48860
778.40658 1.49253
776.35814 1.49462
774.30970 1.49476
772.26126 1.49433
770.21282 1.49529
768.16438 1.50040
766.11595 1.50957
764.06751 1.51893
762.01907 1.52800
759.97063 1.53730
757.92219 1.54535
755.87375 1.55461
753.82532 1.56760
751.77688 1.57926
749.72844 1.58358
747.68000 1.58345
745.63156 1.58404
743.58312 1.58428
741.53469 1.58318
739.48625 1.58116
737.43781 1.57849
735.38937 1.57912
733.34093 1.58402
731.29249 1.58893
729.24406 1.59346
727.19562 1.60131
725.14718 1.61189
723.09874 1.61945
721.05030 1.62195
719.00186 1.62088
716.95343 1.61668
714.90499 1.61331
712.85655 1.61744
710.80811 1.63061
708.75967 1.64582
706.71123 1.65482
704.66280 1.65678
702.61436 1.65646
700.56592 1.66067
698.51748 1.66981
696.46904 1.67474
694.42060 1.67094
692.37216 1.66386
690.32373 1.65819
688.27529 1.65290
686.22685 1.64469
684.17841 1.63546
682.12997 1.63197
680.08153 1.63227
678.03310 1.63360
675.98466 1.64144
673.93622 1.65038
671.88778 1.65206
669.83934 1.65188
667.79090 1.65534
665.74247 1.65851
663.69403 1.66070
661.64559 1.65954
659.59715 1.65636
657.54871 1.66227
655.50027 1.67366
653.45184 1.67444
651.40340 1.66829
649.35496 1.66958
647.30652 1.67214
645.25808 1.66504
643.20964 1.65679
641.16121 1.65202
639.11277 1.64422
637.06433 1.63253
635.01589 1.62328
632.96745 1.62671
630.91901 1.63532
628.87058 1.63151
626.82214 1.62164
624.77370 1.61544
622.72526 1.60445
620.67682 1.58716
618.62838 1.57893
616.57995 1.57631
614.53151 1.57090
612.48307 1.57485
610.43463 1.57853
608.38619 1.57310
606.33775 1.57036
604.28932 1.56561
602.24088 1.56320
600.19244 1.57792
598.14400 1.58233
