3996.50324 1.02744
3994.45480 1.02762
3992.40636 1.02738
3990.35792 1.02715
3988.30948 1.02714
3986.26104 1.02682
3984.21261 1.02631
3982.16417 1.02628
3980.11573 1.02659
3978.06729 1.02651
3976.01885 1.02602
3973.97041 1.02561
3971.92198 1.02552
3969.87354 1.02558
3967.82510 1.02559
3965.77666 1.02536
3963.72822 1.02472
3961.67978 1.02414
3959.63135 1.02408
3957.58291 1.02434
3955.53447 1.02465
3953.48603 1.02449
3951.43759 1.02392
3949.38915 1.02400
3947.34072 1.02475
3945.29228 1.02450
3943.24384 1.02401
3941.19540 1.02498
3939.14696 1.02602
3937.09852 1.02597
3935.05009 1.02486
3933.00165 1.02394
3930.95321 1.02506
3928.90477 1.02635
3926.85633 1.02587
3924.80789 1.02566
3922.75946 1.02648
3920.71102 1.02610
3918.66258 1.02516
3916.61414 1.02602
3914.56570 1.02751
3912.51726 1.02736
3910.46883 1.02617
3908.42039 1.02422
3906.37195 1.02102
3904.32351 1.01914
3902.27507 1.02112
3900.22663 1.02452
3898.17820 1.02685
3896.12976 1.02616
3894.08132 1.02303
3892.03288 1.02204
3889.98444 1.02427
3887.93600 1.02349
3885.88756 1.02204
3883.83913 1.02318
3881.79069 1.02290
3879.74225 1.02410
3877.69381 1.02535
3875.64537 1.02334
3873.59693 1.02154
3871.54850 1.02109
3869.50006 1.02296
3867.45162 1.02398
3865.40318 1.02203
3863.35474 1.02291
3861.30630 1.02551
3859.25787 1.02481
3857.20943 1.02054
3855.16099 1.01495
3853.11255 1.01950
3851.06411 1.02940
3849.01567 1.03020
3846.96724 1.02715
3844.91880 1.02383
3842.87036 1.02173
3840.82192 1.02040
3838.77348 1.02068
3836.72504 1.02396
3834.67661 1.02583
3832.62817 1.02639
3830.57973 1.02752
3828.53129 1.02758
3826.48285 1.02655
3824.43441 1.02376
3822.38598 1.01961
3820.33754 1.02065
3818.28910 1.02298
3816.24066 1.02436
3814.19222 1.02775
3812.14378 1.02788
3810.09535 1.02511
3808.04691 1.02363
3805.99847 1.02500
3803.95003 1.02348
3801.90159 1.02235
3799.85315 1.02663
3797.80472 1.02819
3795.75628 1.02878
3793.70784 1.02989
3791.65940 1.02959
3789.61096 1.02899
3787.56252 1.02817
3785.51409 1.02780
3783.46565 1.02850
3781.41721 1.02824
3779.36877 1.02897
3777.32033 1.03122
3775.27189 1.03077
3773.22346 1.02802
3771.17502 1.02598
3769.12658 1.02679
3767.07814 1.02770
3765.02970 1.02780
3762.98126 1.02746
3760.93283 1.02584
3758.88439 1.02597
3756.83595 1.02691
3754.78751 1.02395
3752.73907 1.01882
3750.69063 1.01980
3748.64219 1.02449
3746.59376 1.02306
3744.54532 1.02415
3742.49688 1.02961
3740.44844 1.02842
3738.40000 1.02231
3736.35156 1.01815
3734.30313 1.02242
3732.25469 1.02880
3730.20625 1.02996
3728.15781 1.02769
3726.10937 1.02602
3724.06093 1.02643
3722.01250 1.02737
3719.96406 1.02868
3717.91562 1.02939
3715.86718 1.02788
3713.81874 1.02442
3711.77030 1.02384
3709.72187 1.02895
3707.67343 1.03185
3705.62499 1.03087
3703.57655 1.02882
3701.52811 1.02965
3699.47967 1.03194
3697.43124 1.03215
3695.38280 1.03110
3693.33436 1.02865
3691.28592 1.02579
3689.23748 1.02825
3687.18904 1.03366
3685.14061 1.03433
3683.09217 1.03177
3681.04373 1.02816
3678.99529 1.02393
3676.94685 1.02068
3674.89841 1.02496
3672.84998 1.02832
3670.80154 1.02730
3668.75310 1.03167
3666.70466 1.03536
3664.65622 1.03434
3662.60778 1.03257
3660.55935 1.03113
3658.51091 1.02939
3656.46247 1.02911
3654.41403 1.02916
3652.36559 1.02543
3650.31715 1.02201
3648.26872 1.02898
3646.22028 1.03671
3644.17184 1.03813
3642.12340 1.03777
3640.07496 1.03789
3638.02652 1.03762
3635.97809 1.03671
3633.92965 1.03565
3631.88121 1.03311
3629.83277 1.03098
3627.78433 1.03605
3625.73589 1.04053
3623.68746 1.03991
3621.63902 1.03691
3619.59058 1.03521
3617.54214 1.03735
3615.49370 1.03835
3613.44526 1.03785
3611.39682 1.03797
3609.34839 1.03872
3607.29995 1.04139
3605.25151 1.04378
3603.20307 1.04361
3601.15463 1.04291
3599.10619 1.04296
3597.05776 1.04282
3595.00932 1.04322
3592.96088 1.04421
3590.91244 1.04321
3588.86400 1.04147
3586.81556 1.04425
3584.76713 1.04817
3582.71869 1.04872
3580.67025 1.04829
3578.62181 1.04828
3576.57337 1.04855
3574.52493 1.04918
3572.47650 1.04935
3570.42806 1.04744
3568.37962 1.04477
3566.33118 1.04658
3564.28274 1.05060
3562.23430 1.05178
3560.18587 1.05189
3558.13743 1.05247
3556.08899 1.05258
3554.04055 1.05192
3551.99211 1.05184
3549.94367 1.05158
3547.89524 1.05014
3545.84680 1.05020
3543.79836 1.05253
3541.74992 1.05426
3539.70148 1.05484
3537.65304 1.05542
3535.60461 1.05641
3533.55617 1.05689
3531.50773 1.05658
3529.45929 1.05634
3527.41085 1.05665
3525.36241 1.05715
3523.31398 1.05785
3521.26554 1.05876
3519.21710 1.05930
3517.16866 1.05954
3515.12022 1.05974
3513.07178 1.05968
3511.02335 1.05960
3508.97491 1.05999
3506.92647 1.05985
3504.87803 1.05879
3502.82959 1.05892
3500.78115 1.06060
3498.73272 1.06171
3496.68428 1.06232
3494.63584 1.06304
3492.58740 1.06328
3490.53896 1.06282
3488.49052 1.06238
3486.44209 1.06244
3484.39365 1.06233
3482.34521 1.06228
3480.29677 1.06317
3478.24833 1.06411
3476.19989 1.06449
3474.15146 1.06483
3472.10302 1.06533
3470.05458 1.06594
3468.00614 1.06628
3465.95770 1.06629
3463.90926 1.06639
3461.86082 1.06669
3459.81239 1.06713
3457.76395 1.06756
3455.71551 1.06797
3453.66707 1.06842
3451.61863 1.06845
3449.57019 1.06762
3447.52176 1.06718
3445.47332 1.06787
3443.42488 1.06828
3441.37644 1.06839
3439.32800 1.06878
3437.27956 1.06914
3435.23113 1.06920
3433.18269 1.06895
3431.13425 1.06867
3429.08581 1.06843
3427.03737 1.06808
3424.98893 1.06755
3422.94050 1.06685
3420.89206 1.06650
3418.84362 1.06689
3416.79518 1.06745
3414.74674 1.06765
3412.69830 1.06777
3410.64987 1.06827
3408.60143 1.06911
3406.55299 1.06976
3404.50455 1.06997
3402.45611 1.07012
3400.40767 1.07041
3398.35924 1.07075
3396.31080 1.07118
3394.26236 1.07182
3392.21392 1.07290
3390.16548 1.07392
3388.11704 1.07417
3386.06861 1.07406
3384.02017 1.07402
3381.97173 1.07392
3379.92329 1.07349
3377.87485 1.07279
3375.82641 1.07204
3373.77798 1.07154
3371.72954 1.07157
3369.68110 1.07200
3367.63266 1.07224
3365.58422 1.07180
3363.53578 1.07115
3361.48735 1.07107
3359.43891 1.07135
3357.39047 1.07155
3355.34203 1.07167
3353.29359 1.07173
3351.24515 1.07156
3349.19672 1.07109
3347.14828 1.07050
3345.09984 1.06997
3343.05140 1.06979
3341.00296 1.07031
3338.95452 1.07080
3336.90609 1.07082
3334.85765 1.07106
3332.80921 1.07185
3330.76077 1.07270
3328.71233 1.07300
3326.66389 1.07246
3324.61545 1.07166
3322.56702 1.07144
3320.51858 1.07170
3318.47014 1.07184
3316.42170 1.07167
3314.37326 1.07145
3312.32482 1.07143
3310.27639 1.07146
3308.22795 1.07122
3306.17951 1.07057
3304.13107 1.06999
3302.08263 1.06954
3300.03419 1.06897
3297.98576 1.06897
3295.93732 1.06941
3293.88888 1.06965
3291.84044 1.06984
3289.79200 1.06974
3287.74356 1.06927
3285.69513 1.06903
3283.64669 1.06890
3281.59825 1.06853
3279.54981 1.06861
3277.50137 1.06941
3275.45293 1.06993
3273.40450 1.06979
3271.35606 1.06952
3269.30762 1.06914
3267.25918 1.06859
3265.21074 1.06848
3263.16230 1.06900
3261.11387 1.06937
3259.06543 1.06903
3257.01699 1.06865
3254.96855 1.06890
3252.92011 1.06916
3250.87167 1.06852
3248.82324 1.06734
3246.77480 1.06678
3244.72636 1.06687
3242.67792 1.06698
3240.62948 1.06718
3238.58104 1.06771
3236.53261 1.06828
3234.48417 1.06841
3232.43573 1.06815
3230.38729 1.06763
3228.33885 1.06706
3226.29041 1.06671
3224.24198 1.06635
3222.19354 1.06605
3220.14510 1.06617
3218.09666 1.06649
3216.04822 1.06669
3213.99978 1.06683
3211.95135 1.06678
3209.90291 1.06648
3207.85447 1.06655
3205.80603 1.06704
3203.75759 1.06758
3201.70915 1.06781
3199.66072 1.06749
3197.61228 1.06690
3195.56384 1.06609
3193.51540 1.06510
3191.46696 1.06428
3189.41852 1.06352
3187.37008 1.06278
3185.32165 1.06237
3183.27321 1.06211
3181.22477 1.06156
3179.17633 1.06146
3177.12789 1.06231
3175.07945 1.06318
3173.03102 1.06354
3170.98258 1.06350
3168.93414 1.06318
3166.88570 1.06288
3164.83726 1.06267
3162.78882 1.06229
3160.74039 1.06166
3158.69195 1.06113
3156.64351 1.06083
3154.59507 1.06068
3152.54663 1.06083
3150.49819 1.06101
3148.44976 1.06097
3146.40132 1.06094
3144.35288 1.06088
3142.30444 1.06085
3140.25600 1.06111
3138.20756 1.06119
3136.15913 1.06070
3134.11069 1.06017
3132.06225 1.06002
3130.01381 1.06013
3127.96537 1.06046
3125.91693 1.06100
3123.86850 1.06155
3121.82006 1.06217
3119.77162 1.06283
3117.72318 1.06297
3115.67474 1.06261
3113.62630 1.06231
3111.57787 1.06191
3109.52943 1.06112
3107.48099 1.06040
3105.43255 1.05985
3103.38411 1.05891
3101.33567 1.05795
3099.28724 1.05754
3097.23880 1.05735
3095.19036 1.05713
3093.14192 1.05696
3091.09348 1.05680
3089.04504 1.05676
3086.99661 1.05705
3084.94817 1.05748
3082.89973 1.05787
3080.85129 1.05844
3078.80285 1.05917
3076.75441 1.05979
3074.70598 1.06031
3072.65754 1.06077
3070.60910 1.06129
3068.56066 1.06177
3066.51222 1.06180
3064.46378 1.06184
3062.41535 1.06229
3060.36691 1.06259
3058.31847 1.06266
3056.27003 1.06295
3054.22159 1.06343
3052.17315 1.06362
3050.12471 1.06334
3048.07628 1.06279
3046.02784 1.06242
3043.97940 1.06282
3041.93096 1.06371
3039.88252 1.06443
3037.83408 1.06524
3035.78565 1.06633
3033.73721 1.06702
3031.68877 1.06710
3029.64033 1.06723
3027.59189 1.06765
3025.54345 1.06825
3023.49502 1.06914
3021.44658 1.07006
3019.39814 1.07076
3017.34970 1.07146
3015.30126 1.07253
3013.25282 1.07417
3011.20439 1.07632
3009.15595 1.07859
3007.10751 1.08051
3005.05907 1.08167
3003.01063 1.08196
3000.96219 1.08186
2998.91376 1.08199
2996.86532 1.08243
2994.81688 1.08300
2992.76844 1.08393
2990.72000 1.08564
2988.67156 1.08809
2986.62313 1.09111
2984.57469 1.09498
2982.52625 1.09983
2980.47781 1.10514
2978.42937 1.11075
2976.38093 1.11681
2974.33250 1.12365
2972.28406 1.13216
2970.23562 1.14243
2968.18718 1.15326
2966.13874 1.16365
2964.09030 1.17301
2962.04187 1.18053
2959.99343 1.18543
2957.94499 1.18762
2955.89655 1.18816
2953.84811 1.18811
2951.79967 1.18759
2949.75124 1.18701
2947.70280 1.18774
2945.65436 1.19115
2943.60592 1.19773
2941.55748 1.20728
2939.50904 1.21930
2937.46061 1.23260
2935.41217 1.24636
2933.36373 1.26038
2931.31529 1.27371
2929.26685 1.28534
2927.21841 1.29452
2925.16998 1.29956
2923.12154 1.29870
2921.07310 1.29208
2919.02466 1.28135
2916.97622 1.26786
2914.92778 1.25279
2912.87934 1.23767
2910.83091 1.22423
2908.78247 1.21313
2906.73403 1.20353
2904.68559 1.19495
2902.63715 1.18747
2900.58871 1.18074
2898.54028 1.17434
2896.49184 1.16816
2894.44340 1.16212
2892.39496 1.15647
2890.34652 1.15162
2888.29808 1.14711
2886.24965 1.14282
2884.20121 1.13960
2882.15277 1.13772
2880.10433 1.13692
2878.05589 1.13746
2876.00745 1.13957
2873.95902 1.14255
2871.91058 1.14546
2869.86214 1.14793
2867.81370 1.15051
2865.76526 1.15466
2863.71682 1.16164
2861.66839 1.17182
2859.61995 1.18428
2857.57151 1.19707
2855.52307 1.20746
2853.47463 1.21229
2851.42619 1.20940
2849.37776 1.19843
2847.32932 1.18133
2845.28088 1.16235
2843.23244 1.14531
2841.18400 1.13182
2839.13556 1.12183
2837.08713 1.11445
2835.03869 1.10842
2832.99025 1.10279
2830.94181 1.09771
2828.89337 1.09325
2826.84493 1.08894
2824.79650 1.08497
2822.74806 1.08174
2820.69962 1.07922
2818.65118 1.07706
2816.60274 1.07486
2814.55430 1.07262
2812.50587 1.07059
2810.45743 1.06870
2808.40899 1.06692
2806.36055 1.06565
2804.31211 1.06503
2802.26367 1.06461
2800.21524 1.06402
2798.16680 1.06338
2796.11836 1.06286
2794.06992 1.06211
2792.02148 1.06107
2789.97304 1.06027
2787.92461 1.06010
2785.87617 1.06037
2783.82773 1.06038
2781.77929 1.05960
2779.73085 1.05824
2777.68241 1.05708
2775.63397 1.05652
2773.58554 1.05601
2771.53710 1.05511
2769.48866 1.05440
2767.44022 1.05460
2765.39178 1.05579
2763.34334 1.05742
2761.29491 1.05850
2759.24647 1.05833
2757.19803 1.05722
2755.14959 1.05611
2753.10115 1.05543
2751.05271 1.05523
2749.00428 1.05564
2746.95584 1.05655
2744.90740 1.05750
2742.85896 1.05799
2740.81052 1.05797
2738.76208 1.05795
2736.71365 1.05816
2734.66521 1.05835
2732.61677 1.05833
2730.56833 1.05835
2728.51989 1.05841
2726.47145 1.05805
2724.42302 1.05721
2722.37458 1.05625
2720.32614 1.05560
2718.27770 1.05577
2716.22926 1.05655
2714.18082 1.05722
2712.13239 1.05763
2710.08395 1.05768
2708.03551 1.05705
2705.98707 1.05622
2703.93863 1.05558
2701.89019 1.05490
2699.84176 1.05452
2697.79332 1.05485
2695.74488 1.05543
2693.69644 1.05550
2691.64800 1.05522
2689.59956 1.05557
2687.55113 1.05662
2685.50269 1.05752
2683.45425 1.05797
2681.40581 1.05803
2679.35737 1.05766
2677.30893 1.05713
2675.26050 1.05686
2673.21206 1.05692
2671.16362 1.05720
2669.11518 1.05765
2667.06674 1.05791
2665.01830 1.05777
2662.96987 1.05749
2660.92143 1.05735
2658.87299 1.05741
2656.82455 1.05754
2654.77611 1.05724
2652.72767 1.05653
2650.67924 1.05588
2648.63080 1.05531
2646.58236 1.05482
2644.53392 1.05437
2642.48548 1.05403
2640.43704 1.05413
2638.38860 1.05441
2636.34017 1.05434
2634.29173 1.05400
2632.24329 1.05354
2630.19485 1.05316
2628.14641 1.05330
2626.09797 1.05374
2624.04954 1.05391
2622.00110 1.05418
2619.95266 1.05481
2617.90422 1.05515
2615.85578 1.05496
2613.80734 1.05450
2611.75891 1.05396
2609.71047 1.05355
2607.66203 1.05372
2605.61359 1.05472
2603.56515 1.05600
2601.51671 1.05685
2599.46828 1.05727
2597.41984 1.05749
2595.37140 1.05749
2593.32296 1.05712
2591.27452 1.05652
2589.22608 1.05607
2587.17765 1.05570
2585.12921 1.05521
2583.08077 1.05483
2581.03233 1.05454
2578.98389 1.05410
2576.93545 1.05371
2574.88702 1.05351
2572.83858 1.05344
2570.79014 1.05365
2568.74170 1.05409
2566.69326 1.05454
2564.64482 1.05527
2562.59639 1.05629
2560.54795 1.05715
2558.49951 1.05782
2556.45107 1.05841
2554.40263 1.05855
2552.35419 1.05793
2550.30576 1.05700
2548.25732 1.05650
2546.20888 1.05639
2544.16044 1.05625
2542.11200 1.05628
2540.06356 1.05675
2538.01513 1.05731
2535.96669 1.05774
2533.91825 1.05824
2531.86981 1.05859
2529.82137 1.05867
2527.77293 1.05896
2525.72450 1.05946
2523.67606 1.05949
2521.62762 1.05891
2519.57918 1.05821
2517.53074 1.05790
2515.48230 1.05820
2513.43387 1.05873
2511.38543 1.05926
2509.33699 1.05977
2507.28855 1.06000
2505.24011 1.06008
2503.19167 1.06013
2501.14324 1.06009
2499.09480 1.06053
2497.04636 1.06153
2494.99792 1.06243
2492.94948 1.06300
2490.90104 1.06289
2488.85260 1.06197
2486.80417 1.06077
2484.75573 1.05975
2482.70729 1.05928
2480.65885 1.05919
2478.61041 1.05888
2476.56197 1.05850
2474.51354 1.05867
2472.46510 1.05919
2470.41666 1.05962
2468.36822 1.05992
2466.31978 1.06038
2464.27134 1.06109
2462.22291 1.06163
2460.17447 1.06170
2458.12603 1.06196
2456.07759 1.06300
2454.02915 1.06422
2451.98071 1.06466
2449.93228 1.06452
2447.88384 1.06445
2445.83540 1.06464
2443.78696 1.06551
2441.73852 1.06759
2439.69008 1.07093
2437.64165 1.07510
2435.59321 1.07977
2433.54477 1.08516
2431.49633 1.09121
2429.44789 1.09663
2427.39945 1.09920
2425.35102 1.09756
2423.30258 1.09243
2421.25414 1.08592
2419.20570 1.07978
2417.15726 1.07464
2415.10882 1.07063
2413.06039 1.06798
2411.01195 1.06681
2408.96351 1.06687
2406.91507 1.06778
2404.86663 1.06917
2402.81819 1.07038
2400.76976 1.07069
2398.72132 1.06984
2396.67288 1.06833
2394.62444 1.06701
2392.57600 1.06653
2390.52756 1.06657
2388.47913 1.06624
2386.43069 1.06517
2384.38225 1.06388
2382.33381 1.06308
2380.28537 1.06249
2378.23693 1.06147
2376.18850 1.05997
2374.14006 1.05756
2372.09162 1.05405
2370.04318 1.05036
2367.99474 1.04770
2365.94630 1.04592
2363.89787 1.04343
2361.84943 1.04097
2359.80099 1.04047
2357.75255 1.04159
2355.70411 1.04484
2353.65567 1.05043
2351.60723 1.05548
2349.55880 1.05678
2347.51036 1.05460
2345.46192 1.05196
2343.41348 1.05215
2341.36504 1.05439
2339.31660 1.05621
2337.26817 1.05649
2335.21973 1.05646
2333.17129 1.05718
2331.12285 1.05795
2329.07441 1.05854
2327.02597 1.05915
2324.97754 1.05948
2322.92910 1.05952
2320.88066 1.05918
2318.83222 1.05839
2316.78378 1.05798
2314.73534 1.05869
2312.68691 1.06028
2310.63847 1.06159
2308.59003 1.06193
2306.54159 1.06167
2304.49315 1.06123
2302.44471 1.06093
2300.39628 1.06086
2298.34784 1.06081
2296.29940 1.06089
2294.25096 1.06144
2292.20252 1.06231
2290.15408 1.06335
2288.10565 1.06419
2286.05721 1.06415
2284.00877 1.06357
2281.96033 1.06321
2279.91189 1.06335
2277.86345 1.06393
2275.81502 1.06474
2273.76658 1.06568
2271.71814 1.06677
2269.66970 1.06793
2267.62126 1.06882
2265.57282 1.06902
2263.52439 1.06843
2261.47595 1.06756
2259.42751 1.06727
2257.37907 1.06787
2255.33063 1.06869
2253.28219 1.06903
2251.23376 1.06871
2249.18532 1.06786
2247.13688 1.06689
2245.08844 1.06624
2243.04000 1.06609
2240.99156 1.06635
2238.94313 1.06649
2236.89469 1.06628
2234.84625 1.06625
2232.79781 1.06689
2230.74937 1.06799
2228.70093 1.06880
2226.65250 1.06866
2224.60406 1.06764
2222.55562 1.06666
2220.50718 1.06642
2218.45874 1.06645
2216.41030 1.06592
2214.36186 1.06514
2212.31343 1.06526
2210.26499 1.06638
2208.21655 1.06715
2206.16811 1.06723
2204.11967 1.06751
2202.07123 1.06783
2200.02280 1.06778
2197.97436 1.06775
2195.92592 1.06780
2193.87748 1.06760
2191.82904 1.06738
2189.78060 1.06779
2187.73217 1.06904
2185.68373 1.07036
2183.63529 1.07089
2181.58685 1.07083
2179.53841 1.07068
2177.48997 1.07035
2175.44154 1.06995
2173.39310 1.06978
2171.34466 1.06966
2169.29622 1.06963
2167.24778 1.07009
2165.19934 1.07100
2163.15091 1.07185
2161.10247 1.07194
2159.05403 1.07132
2157.00559 1.07032
2154.95715 1.06910
2152.90871 1.06834
2150.86028 1.06863
2148.81184 1.06957
2146.76340 1.07035
2144.71496 1.07060
2142.66652 1.07044
2140.61808 1.07076
2138.56965 1.07208
2136.52121 1.07327
2134.47277 1.07321
2132.42433 1.07249
2130.37589 1.07214
2128.32745 1.07212
2126.27902 1.07206
2124.23058 1.07199
2122.18214 1.07249
2120.13370 1.07362
2118.08526 1.07447
2116.03682 1.07478
2113.98839 1.07494
2111.93995 1.07499
2109.89151 1.07487
2107.84307 1.07468
2105.79463 1.07437
2103.74619 1.07406
2101.69776 1.07416
2099.64932 1.07432
2097.60088 1.07408
2095.55244 1.07372
2093.50400 1.07302
2091.45556 1.07176
2089.40713 1.07092
2087.35869 1.07130
2085.31025 1.07219
2083.26181 1.07267
2081.21337 1.07295
2079.16493 1.07335
2077.11649 1.07366
2075.06806 1.07415
2073.01962 1.07526
2070.97118 1.07651
2068.92274 1.07744
2066.87430 1.07830
2064.82586 1.07921
2062.77743 1.07966
2060.72899 1.07914
2058.68055 1.07816
2056.63211 1.07737
2054.58367 1.07640
2052.53523 1.07509
2050.48680 1.07404
2048.43836 1.07359
2046.38992 1.07383
2044.34148 1.07464
2042.29304 1.07521
2040.24460 1.07513
2038.19617 1.07489
2036.14773 1.07471
2034.09929 1.07482
2032.05085 1.07535
2030.00241 1.07561
2027.95397 1.07580
2025.90554 1.07703
2023.85710 1.07858
2021.80866 1.07865
2019.76022 1.07717
2017.71178 1.07614
2015.66334 1.07685
2013.61491 1.07833
2011.56647 1.07950
2009.51803 1.08019
2007.46959 1.08045
2005.42115 1.08015
2003.37271 1.07947
2001.32428 1.07894
1999.27584 1.07871
1997.22740 1.07870
1995.17896 1.07854
1993.13052 1.07805
1991.08208 1.07727
1989.03365 1.07570
1986.98521 1.07400
1984.93677 1.07348
1982.88833 1.07461
1980.83989 1.07663
1978.79145 1.07797
1976.74302 1.07773
1974.69458 1.07654
1972.64614 1.07586
1970.59770 1.07592
1968.54926 1.07626
1966.50082 1.07726
1964.45239 1.07842
1962.40395 1.07856
1960.35551 1.07788
1958.30707 1.07721
1956.25863 1.07676
1954.21019 1.07655
1952.16176 1.07674
1950.11332 1.07705
1948.06488 1.07675
1946.01644 1.07547
1943.96800 1.07406
1941.91956 1.07397
1939.87112 1.07476
1937.82269 1.07546
1935.77425 1.07648
1933.72581 1.07793
1931.67737 1.07900
1929.62893 1.07856
1927.58049 1.07696
1925.53206 1.07547
1923.48362 1.07516
1921.43518 1.07603
1919.38674 1.07690
1917.33830 1.07824
1915.28986 1.07947
1913.24143 1.07920
1911.19299 1.07835
1909.14455 1.07842
1907.09611 1.07878
1905.04767 1.07832
1902.99923 1.07814
1900.95080 1.07872
1898.90236 1.07903
1896.85392 1.07912
1894.80548 1.07976
1892.75704 1.08006
1890.70860 1.07976
1888.66017 1.08081
1886.61173 1.08241
1884.56329 1.08317
1882.51485 1.08440
1880.46641 1.08616
1878.41797 1.08723
1876.36954 1.08748
1874.32110 1.08696
1872.27266 1.08491
1870.22422 1.08227
1868.17578 1.08251
1866.12734 1.08517
1864.07891 1.08674
1862.03047 1.08724
1859.98203 1.08729
1857.93359 1.08657
1855.88515 1.08527
1853.83671 1.08439
1851.78828 1.08436
1849.73984 1.08433
1847.69140 1.08332
1845.64296 1.08204
1843.59452 1.08323
1841.54608 1.08497
1839.49765 1.08470
1837.44921 1.08492
1835.40077 1.08664
1833.35233 1.08756
1831.30389 1.08799
1829.25545 1.09094
1827.20702 1.09391
1825.15858 1.09474
1823.11014 1.09524
1821.06170 1.09500
1819.01326 1.09429
1816.96482 1.09464
1814.91639 1.09564
1812.86795 1.09569
1810.81951 1.09491
1808.77107 1.09387
1806.72263 1.09262
1804.67419 1.09184
1802.62575 1.09237
1800.57732 1.09442
1798.52888 1.09574
1796.48044 1.09434
1794.43200 1.09133
1792.38356 1.09077
1790.33512 1.09398
1788.28669 1.09571
1786.23825 1.09593
1784.18981 1.09664
1782.14137 1.09707
1780.09293 1.09752
1778.04449 1.09826
1775.99606 1.09737
1773.94762 1.09522
1771.89918 1.09555
1769.85074 1.09835
1767.80230 1.10047
1765.75386 1.10159
1763.70543 1.10115
1761.65699 1.10166
1759.60855 1.10450
1757.56011 1.10845
1755.51167 1.11268
1753.46323 1.11485
1751.41480 1.11854
1749.36636 1.12994
1747.31792 1.14517
1745.26948 1.15932
1743.22104 1.17241
1741.17260 1.18267
1739.12417 1.18781
1737.07573 1.18596
1735.02729 1.17698
1732.97885 1.16559
1730.93041 1.15830
1728.88197 1.15244
1726.83354 1.14757
1724.78510 1.14370
1722.73666 1.14054
1720.68822 1.13672
1718.63978 1.13254
1716.59134 1.13357
1714.54291 1.13816
1712.49447 1.13975
1710.44603 1.13885
1708.39759 1.13693
1706.34915 1.13548
1704.30071 1.13441
1702.25228 1.13121
1700.20384 1.12704
1698.15540 1.12564
1696.10696 1.12717
1694.05852 1.12854
1692.01008 1.12551
1689.96165 1.12013
1687.91321 1.11532
1685.86477 1.11143
1683.81633 1.11262
1681.76789 1.11660
1679.71945 1.11689
1677.67102 1.11575
1675.62258 1.11501
1673.57414 1.11440
1671.52570 1.11253
1669.47726 1.11356
1667.42882 1.11770
1665.38038 1.11834
1663.33195 1.11721
1661.28351 1.11750
1659.23507 1.11690
1657.18663 1.11347
1655.13819 1.10813
1653.08975 1.10870
1651.04132 1.11391
1648.99288 1.11284
1646.94444 1.11458
1644.89600 1.12102
1642.84756 1.12268
1640.79912 1.12093
1638.75069 1.11762
1636.70225 1.11514
1634.65381 1.11777
1632.60537 1.11909
1630.55693 1.11742
1628.50849 1.11653
1626.46006 1.11681
1624.41162 1.11667
1622.36318 1.11781
1620.31474 1.11849
1618.26630 1.11770
1616.21786 1.11994
1614.16943 1.12288
1612.12099 1.12290
1610.07255 1.12327
1608.02411 1.12526
1605.97567 1.12645
1603.92723 1.12577
1601.87880 1.12427
1599.83036 1.12295
1597.78192 1.12236
1595.73348 1.12256
1593.68504 1.12331
1591.63660 1.12428
1589.58817 1.12433
1587.53973 1.12264
1585.49129 1.12047
1583.44285 1.11882
1581.39441 1.11715
1579.34597 1.11476
1577.29754 1.11334
1575.24910 1.11640
1573.20066 1.11835
1571.15222 1.11751
1569.10378 1.11807
1567.05534 1.11880
1565.00691 1.11788
1562.95847 1.11587
1560.91003 1.11200
1558.86159 1.11334
1556.81315 1.12098
1554.76471 1.12187
1552.71628 1.12134
1550.66784 1.12148
1548.61940 1.12201
1546.57096 1.12082
1544.52252 1.11764
1542.47408 1.11425
1540.42565 1.11595
1538.37721 1.12259
1536.32877 1.12292
1534.28033 1.12075
1532.23189 1.12059
1530.18345 1.11981
1528.13501 1.11757
1526.08658 1.11615
1524.03814 1.11469
1521.98970 1.11492
1519.94126 1.11871
1517.89282 1.12106
1515.84438 1.12267
1513.79595 1.12344
1511.74751 1.12232
1509.69907 1.11912
1507.65063 1.11811
1505.60219 1.12637
1503.55375 1.12873
1501.50532 1.12607
1499.45688 1.12323
1497.40844 1.12295
1495.36000 1.12422
1493.31156 1.12309
1491.26312 1.12077
1489.21469 1.12188
1487.16625 1.12619
1485.11781 1.12879
1483.06937 1.13014
1481.02093 1.13172
1478.97249 1.13332
1476.92406 1.13545
1474.87562 1.13996
1472.82718 1.15122
1470.77874 1.16610
1468.73030 1.17451
1466.68186 1.17885
1464.63343 1.18222
1462.58499 1.18254
1460.53655 1.17901
1458.48811 1.17468
1456.43967 1.17470
1454.39123 1.17514
1452.34280 1.17341
1450.29436 1.17099
1448.24592 1.16750
1446.19748 1.16358
1444.14904 1.16035
1442.10060 1.15733
1440.05217 1.15391
1438.00373 1.15081
1435.95529 1.15015
1433.90685 1.14987
1431.85841 1.14819
1429.80997 1.14752
1427.76154 1.14784
1425.71310 1.14684
1423.66466 1.14468
1421.61622 1.14226
1419.56778 1.14136
1417.51934 1.14411
1415.47091 1.14656
1413.42247 1.14776
1411.37403 1.14942
1409.32559 1.15076
1407.27715 1.15030
1405.22871 1.14902
1403.18028 1.14829
1401.13184 1.14777
1399.08340 1.14821
1397.03496 1.14995
1394.98652 1.15231
1392.93808 1.15371
1390.88965 1.15239
1388.84121 1.15137
1386.79277 1.15511
1384.74433 1.16063
1382.69589 1.16391
1380.64745 1.16617
1378.59901 1.16784
1376.55058 1.16776
1374.50214 1.16669
1372.45370 1.16582
1370.40526 1.16385
1368.35682 1.16124
1366.30838 1.15918
1364.25995 1.15640
1362.21151 1.15286
1360.16307 1.15075
1358.11463 1.15001
1356.06619 1.15107
1354.01775 1.15481
1351.96932 1.15849
1349.92088 1.16009
1347.87244 1.16131
1345.82400 1.16277
1343.77556 1.16267
1341.72712 1.16000
1339.67869 1.15618
1337.63025 1.15371
1335.58181 1.15302
1333.53337 1.15360
1331.48493 1.15483
1329.43649 1.15542
1327.38806 1.15555
1325.33962 1.15592
1323.29118 1.15552
1321.24274 1.15404
1319.19430 1.15293
1317.14586 1.15280
1315.09743 1.15299
1313.04899 1.15311
1311.00055 1.15293
1308.95211 1.15272
1306.90367 1.15328
1304.85523 1.15385
1302.80680 1.15331
1300.75836 1.15334
1298.70992 1.15565
1296.66148 1.15836
1294.61304 1.15960
1292.56460 1.16032
1290.51617 1.16151
1288.46773 1.16257
1286.41929 1.16264
1284.37085 1.16264
1282.32241 1.16456
1280.27397 1.16852
1278.22554 1.17283
1276.17710 1.17635
1274.12866 1.18004
1272.08022 1.18567
1270.03178 1.19429
1267.98334 1.20609
1265.93491 1.21891
1263.88647 1.22796
1261.83803 1.22965
1259.78959 1.22477
1257.74115 1.21586
1255.69271 1.20486
1253.64428 1.19432
1251.59584 1.18664
1249.54740 1.18249
1247.49896 1.18090
1245.45052 1.18046
1243.40208 1.18057
1241.35364 1.18106
1239.30521 1.18179
1237.25677 1.18205
1235.20833 1.18069
1233.15989 1.17767
1231.11145 1.17401
1229.06301 1.17033
1227.01458 1.16757
1224.96614 1.16656
1222.91770 1.16698
1220.86926 1.16886
1218.82082 1.17228
1216.77238 1.17571
1214.72395 1.17688
1212.67551 1.17576
1210.62707 1.17514
1208.57863 1.17635
1206.53019 1.17814
1204.48175 1.17929
1202.43332 1.18016
1200.38488 1.18135
1198.33644 1.18223
1196.28800 1.18269
1194.23956 1.18340
1192.19112 1.18442
1190.14269 1.18547
1188.09425 1.18686
1186.04581 1.18965
1183.99737 1.19432
1181.94893 1.19953
1179.90049 1.20352
1177.85206 1.20661
1175.80362 1.20996
1173.75518 1.21279
1171.70674 1.21352
1169.65830 1.21175
1167.60986 1.20912
1165.56143 1.20791
1163.51299 1.20694
1161.46455 1.20364
1159.41611 1.19978
1157.36767 1.19812
1155.31923 1.19797
1153.27080 1.19816
1151.22236 1.19833
1149.17392 1.19780
1147.12548 1.19626
1145.07704 1.19422
1143.02860 1.19264
1140.98017 1.19196
1138.93173 1.19179
1136.88329 1.19256
1134.83485 1.19460
1132.78641 1.19643
1130.73797 1.19806
1128.68954 1.20146
1126.64110 1.20662
1124.59266 1.21184
1122.54422 1.21584
1120.49578 1.21919
1118.44734 1.22338
1116.39891 1.22842
1114.35047 1.23375
1112.30203 1.23976
1110.25359 1.24512
1108.20515 1.24698
1106.15671 1.24525
1104.10827 1.24252
1102.05984 1.24060
1100.01140 1.23836
1097.96296 1.23434
1095.91452 1.23086
1093.86608 1.22964
1091.81764 1.22824
1089.76921 1.22604
1087.72077 1.22570
1085.67233 1.22736
1083.62389 1.22875
1081.57545 1.22912
1079.52701 1.22815
1077.47858 1.22562
1075.43014 1.22275
1073.38170 1.22054
1071.33326 1.21967
1069.28482 1.22064
1067.23638 1.22355
1065.18795 1.22781
1063.13951 1.23267
1061.09107 1.23781
1059.04263 1.24154
1056.99419 1.24272
1054.94575 1.24294
1052.89732 1.24342
1050.84888 1.24412
1048.80044 1.24576
1046.75200 1.24727
1044.70356 1.24707
1042.65512 1.24651
1040.60669 1.24622
1038.55825 1.24579
1036.50981 1.24607
1034.46137 1.24769
1032.41293 1.24990
1030.36449 1.25153
1028.31606 1.25222
1026.26762 1.25280
1024.21918 1.25476
1022.17074 1.25849
1020.12230 1.26198
1018.07386 1.26246
1016.02543 1.25957
1013.97699 1.25539
1011.92855 1.25056
1009.88011 1.24447
1007.83167 1.23788
1005.78323 1.23164
1003.73480 1.22606
1001.68636 1.22144
999.63792 1.21762
997.58948 1.21449
995.54104 1.21184
993.49260 1.20979
991.44417 1.20896
989.39573 1.20842
987.34729 1.20674
985.29885 1.20577
983.25041 1.20731
981.20197 1.20902
979.15354 1.20846
977.10510 1.20669
975.05666 1.20605
973.00822 1.20635
970.95978 1.20610
968.91134 1.20583
966.86290 1.20634
964.81447 1.20586
962.76603 1.20316
960.71759 1.20011
958.66915 1.19856
956.62071 1.19805
954.57227 1.19752
952.52384 1.19748
950.47540 1.19856
948.42696 1.20003
946.37852 1.20109
944.33008 1.20108
942.28164 1.20014
940.23321 1.20009
938.18477 1.20203
936.13633 1.20449
934.08789 1.20551
932.03945 1.20553
929.99101 1.20636
927.94258 1.20740
925.89414 1.20697
923.84570 1.20602
921.79726 1.20545
919.74882 1.20509
917.70038 1.20666
915.65195 1.21118
913.60351 1.21593
911.55507 1.21882
909.50663 1.22129
907.45819 1.22364
905.40975 1.22456
903.36132 1.22498
901.31288 1.22716
899.26444 1.23186
897.21600 1.23761
895.16756 1.24145
893.11912 1.24232
891.07069 1.24374
889.02225 1.24804
886.97381 1.25260
884.92537 1.25544
882.87693 1.25685
880.82849 1.25517
878.78006 1.24931
876.73162 1.24418
874.68318 1.24444
872.63474 1.24697
870.58630 1.24770
868.53786 1.24801
866.48943 1.24817
864.44099 1.24703
862.39255 1.24728
860.34411 1.25055
858.29567 1.25467
856.24723 1.25741
854.19880 1.25801
852.15036 1.25747
850.10192 1.25789
848.05348 1.25987
846.00504 1.26183
843.95660 1.26271
841.90817 1.26380
839.85973 1.26567
837.81129 1.26671
835.76285 1.26731
833.71441 1.26894
831.66597 1.27053
829.61753 1.27224
827.56910 1.27581
825.52066 1.28020
823.47222 1.28447
821.42378 1.28827
819.37534 1.29022
817.32690 1.29091
815.27847 1.29244
813.23003 1.29562
811.18159 1.29977
809.13315 1.30403
807.08471 1.30836
805.03627 1.31396
802.98784 1.31956
800.93940 1.32179
798.89096 1.32292
796.84252 1.32714
794.79408 1.33326
792.74564 1.33752
790.69721 1.33828
788.64877 1.33723
786.60033 1.33717
784.55189 1.33972
782.50345 1.34460
780.45501 1.35080
778.40658 1.35912
776.35814 1.36881
774.30970 1.37660
772.26126 1.38302
770.21282 1.39093
768.16438 1.40013
766.11595 1.41000
764.06751 1.42144
762.01907 1.43318
759.97063 1.44257
757.92219 1.44999
755.87375 1.45901
753.82532 1.47069
751.77688 1.47912
749.72844 1.47901
747.68000 1.47341
745.63156 1.46973
743.58312 1.47309
741.53469 1.48119
739.48625 1.48904
737.43781 1.49469
735.38937 1.49600
733.34093 1.49357
731.29249 1.49282
729.24406 1.49701
727.19562 1.50519
725.14718 1.51697
723.09874 1.52908
721.05030 1.53477
719.00186 1.53290
716.95343 1.52908
714.90499 1.52911
712.85655 1.53522
710.80811 1.54729
708.75967 1.56101
706.71123 1.57058
704.66280 1.57555
702.61436 1.57820
700.56592 1.58048
698.51748 1.58167
696.46904 1.58069
694.42060 1.58151
692.37216 1.58428
690.32373 1.58059
688.27529 1.57289
686.22685 1.56960
684.17841 1.56704
682.12997 1.56090
680.08153 1.55342
678.03310 1.55273
675.98466 1.56625
673.93622 1.58860
671.88778 1.60691
669.83934 1.61962
667.79090 1.63214
665.74247 1.63692
663.69403 1.63747
661.64559 1.64066
659.59715 1.64373
657.54871 1.63884
655.50027 1.62730
653.45184 1.61980
651.40340 1.62491
649.35496 1.64177
647.30652 1.65656
645.25808 1.65533
643.20964 1.63884
641.16121 1.61501
639.11277 1.59536
637.06433 1.58069
635.01589 1.55853
632.96745 1.52757
630.91901 1.49989
628.87058 1.48274
626.82214 1.47047
624.77370 1.46353
622.72526 1.46975
620.67682 1.48475
618.62838 1.49478
616.57995 1.49126
614.53151 1.48197
612.48307 1.47467
610.43463 1.46104
608.38619 1.44359
606.33775 1.44027
604.28932 1.44423
602.24088 1.44623
600.19244 1.45822
598.14400 1.47457
