3996.50324 1.38259
3994.45480 1.38313
3992.40636 1.38372
3990.35792 1.38377
3988.30948 1.38369
3986.26104 1.38353
3984.21261 1.38365
3982.16417 1.38365
3980.11573 1.38345
3978.06729 1.38319
3976.01885 1.38317
3973.97041 1.38399
3971.92198 1.38471
3969.87354 1.38537
3967.82510 1.38644
3965.77666 1.38631
3963.72822 1.38479
3961.67978 1.38452
3959.63135 1.38518
3957.58291 1.38460
3955.53447 1.38379
3953.48603 1.38305
3951.43759 1.38183
3949.38915 1.38256
3947.34072 1.38513
3945.29228 1.38380
3943.24384 1.38228
3941.19540 1.38566
3939.14696 1.38730
3937.09852 1.38512
3935.05009 1.38143
3933.00165 1.38022
3930.95321 1.38472
3928.90477 1.38637
3926.85633 1.38215
3924.80789 1.38135
3922.75946 1.38431
3920.71102 1.38284
3918.66258 1.38086
3916.61414 1.38504
3914.56570 1.38922
3912.51726 1.38783
3910.46883 1.38434
3908.42039 1.37843
3906.37195 1.37014
3904.32351 1.36981
3902.27507 1.37973
3900.22663 1.38884
3898.17820 1.39475
3896.12976 1.39090
3894.08132 1.37887
3892.03288 1.37630
3889.98444 1.38417
3887.93600 1.38048
3885.88756 1.37632
3883.83913 1.38104
3881.79069 1.38139
3879.74225 1.38671
3877.69381 1.38809
3875.64537 1.37904
3873.59693 1.37471
3871.54850 1.37614
3869.50006 1.38533
3867.45162 1.39012
3865.40318 1.38326
3863.35474 1.38468
3861.30630 1.38943
3859.25787 1.38285
3857.20943 1.36768
3855.16099 1.35515
3853.11255 1.37887
3851.06411 1.40691
3849.01567 1.39992
3846.96724 1.38526
3844.91880 1.37516
3842.87036 1.37175
3840.82192 1.37085
3838.77348 1.37514
3836.72504 1.38676
3834.67661 1.38981
3832.62817 1.38727
3830.57973 1.38681
3828.53129 1.38459
3826.48285 1.38200
3824.43441 1.37599
3822.38598 1.36859
3820.33754 1.38008
3818.28910 1.38803
3816.24066 1.38831
3814.19222 1.39500
3812.14378 1.39023
3810.09535 1.37679
3808.04691 1.37081
3805.99847 1.37869
3803.95003 1.37791
3801.90159 1.37654
3799.85315 1.38942
3797.80472 1.39178
3795.75628 1.39175
3793.70784 1.39226
3791.65940 1.38732
3789.61096 1.38335
3787.56252 1.38181
3785.51409 1.38279
3783.46565 1.38453
3781.41721 1.38167
3779.36877 1.38351
3777.32033 1.39101
3775.27189 1.38967
3773.22346 1.38119
3771.17502 1.37578
3769.12658 1.38093
3767.07814 1.38713
3765.02970 1.38964
3762.98126 1.38753
3760.93283 1.38118
3758.88439 1.38359
3756.83595 1.38796
3754.78751 1.37870
3752.73907 1.36651
3750.69063 1.37743
3748.64219 1.39421
3746.59376 1.38771
3744.54532 1.39027
3742.49688 1.40437
3740.44844 1.39758
3738.40000 1.38072
3736.35156 1.37474
3734.30313 1.39127
3732.25469 1.40761
3730.20625 1.40611
3728.15781 1.39516
3726.10937 1.38881
3724.06093 1.39193
3722.01250 1.39658
3719.96406 1.39947
3717.91562 1.39793
3715.86718 1.38958
3713.81874 1.37838
3711.77030 1.38160
3709.72187 1.40154
3707.67343 1.40636
3705.62499 1.39780
3703.57655 1.39032
3701.52811 1.39475
3699.47967 1.40173
3697.43124 1.40055
3695.38280 1.39625
3693.33436 1.38940
3691.28592 1.38404
3689.23748 1.39724
3687.18904 1.41647
3685.14061 1.41676
3683.09217 1.40836
3681.04373 1.40124
3678.99529 1.39492
3676.94685 1.39301
3674.89841 1.41235
3672.84998 1.42060
3670.80154 1.41450
3668.75310 1.42614
3666.70466 1.43326
3664.65622 1.42765
3662.60778 1.42403
3660.55935 1.42306
3658.51091 1.42085
3656.46247 1.42474
3654.41403 1.42874
3652.36559 1.41871
3650.31715 1.41361
3648.26872 1.43970
3646.22028 1.45753
3644.17184 1.45388
3642.12340 1.44778
3640.07496 1.44750
3638.02652 1.44955
3635.97809 1.44981
3633.92965 1.44866
3631.88121 1.44329
3629.83277 1.44224
3627.78433 1.46428
3625.73589 1.47516
3623.68746 1.46745
3621.63902 1.45937
3619.59058 1.46333
3617.54214 1.47575
3615.49370 1.47803
3613.44526 1.47717
3611.39682 1.47895
3609.34839 1.48008
3607.29995 1.48565
3605.25151 1.48982
3603.20307 1.48716
3601.15463 1.48582
3599.10619 1.48891
3597.05776 1.49064
3595.00932 1.49250
3592.96088 1.49646
3590.91244 1.49561
3588.86400 1.49331
3586.81556 1.50217
3584.76713 1.51005
3582.71869 1.50833
3580.67025 1.50729
3578.62181 1.50965
3576.57337 1.51156
3574.52493 1.51235
3572.47650 1.51186
3570.42806 1.50817
3568.37962 1.50584
3566.33118 1.51538
3564.28274 1.52551
3562.23430 1.52638
3560.18587 1.52589
3558.13743 1.52648
3556.08899 1.52535
3554.04055 1.52433
3551.99211 1.52649
3549.94367 1.52721
3547.89524 1.52536
3545.84680 1.52829
3543.79836 1.53462
3541.74992 1.53690
3539.70148 1.53539
3537.65304 1.53471
3535.60461 1.53754
3533.55617 1.53950
3531.50773 1.53803
3529.45929 1.53718
3527.41085 1.53878
3525.36241 1.54010
3523.31398 1.54181
3521.26554 1.54517
3519.21710 1.54692
3517.16866 1.54663
3515.12022 1.54665
3513.07178 1.54689
3511.02335 1.54759
3508.97491 1.54958
3506.92647 1.55039
3504.87803 1.55009
3502.82959 1.55223
3500.78115 1.55455
3498.73272 1.55445
3496.68428 1.55434
3494.63584 1.55542
3492.58740 1.55654
3490.53896 1.55634
3488.49052 1.55648
3486.44209 1.55848
3484.39365 1.55983
3482.34521 1.56056
3480.29677 1.56232
3478.24833 1.56294
3476.19989 1.56221
3474.15146 1.56291
3472.10302 1.56479
3470.05458 1.56616
3468.00614 1.56691
3465.95770 1.56728
3463.90926 1.56790
3461.86082 1.56875
3459.81239 1.56919
3457.76395 1.56992
3455.71551 1.57123
3453.66707 1.57208
3451.61863 1.57195
3449.57019 1.57117
3447.52176 1.57136
3445.47332 1.57347
3443.42488 1.57566
3441.37644 1.57693
3439.32800 1.57701
3437.27956 1.57682
3435.23113 1.57777
3433.18269 1.57909
3431.13425 1.58006
3429.08581 1.58091
3427.03737 1.58206
3424.98893 1.58297
3422.94050 1.58292
3420.89206 1.58328
3418.84362 1.58474
3416.79518 1.58521
3414.74674 1.58464
3412.69830 1.58534
3410.64987 1.58695
3408.60143 1.58775
3406.55299 1.58759
3404.50455 1.58699
3402.45611 1.58648
3400.40767 1.58605
3398.35924 1.58573
3396.31080 1.58567
3394.26236 1.58583
3392.21392 1.58655
3390.16548 1.58752
3388.11704 1.58780
3386.06861 1.58729
3384.02017 1.58630
3381.97173 1.58527
3379.92329 1.58500
3377.87485 1.58536
3375.82641 1.58554
3373.77798 1.58589
3371.72954 1.58644
3369.68110 1.58640
3367.63266 1.58591
3365.58422 1.58585
3363.53578 1.58608
3361.48735 1.58564
3359.43891 1.58483
3357.39047 1.58486
3355.34203 1.58531
3353.29359 1.58489
3351.24515 1.58405
3349.19672 1.58367
3347.14828 1.58378
3345.09984 1.58388
3343.05140 1.58303
3341.00296 1.58191
3338.95452 1.58181
3336.90609 1.58222
3334.85765 1.58219
3332.80921 1.58148
3330.76077 1.58082
3328.71233 1.58051
3326.66389 1.58006
3324.61545 1.57974
3322.56702 1.57997
3320.51858 1.58040
3318.47014 1.58067
3316.42170 1.58081
3314.37326 1.58089
3312.32482 1.58034
3310.27639 1.57922
3308.22795 1.57897
3306.17951 1.57941
3304.13107 1.57882
3302.08263 1.57737
3300.03419 1.57657
3297.98576 1.57684
3295.93732 1.57722
3293.88888 1.57700
3291.84044 1.57637
3289.79200 1.57585
3287.74356 1.57596
3285.69513 1.57659
3283.64669 1.57675
3281.59825 1.57585
3279.54981 1.57441
3277.50137 1.57330
3275.45293 1.57283
3273.40450 1.57309
3271.35606 1.57355
3269.30762 1.57319
3267.25918 1.57297
3265.21074 1.57356
3263.16230 1.57347
3261.11387 1.57259
3259.06543 1.57201
3257.01699 1.57156
3254.96855 1.57108
3252.92011 1.57026
3250.87167 1.56870
3248.82324 1.56711
3246.77480 1.56651
3244.72636 1.56700
3242.67792 1.56716
3240.62948 1.56647
3238.58104 1.56567
3236.53261 1.56459
3234.48417 1.56287
3232.43573 1.56176
3230.38729 1.56218
3228.33885 1.56242
3226.29041 1.56126
3224.24198 1.55943
3222.19354 1.55814
3220.14510 1.55803
3218.09666 1.55823
3216.04822 1.55770
3213.99978 1.55704
3211.95135 1.55674
3209.90291 1.55646
3207.85447 1.55614
3205.80603 1.55571
3203.75759 1.55464
3201.70915 1.55245
3199.66072 1.55038
3197.61228 1.54951
3195.56384 1.54898
3193.51540 1.54800
3191.46696 1.54671
3189.41852 1.54594
3187.37008 1.54550
3185.32165 1.54480
3183.27321 1.54428
3181.22477 1.54377
3179.17633 1.54309
3177.12789 1.54226
3175.07945 1.54062
3173.03102 1.53863
3170.98258 1.53684
3168.93414 1.53520
3166.88570 1.53403
3164.83726 1.53373
3162.78882 1.53384
3160.74039 1.53306
3158.69195 1.53146
3156.64351 1.53011
3154.59507 1.52939
3152.54663 1.52915
3150.49819 1.52885
3148.44976 1.52817
3146.40132 1.52713
3144.35288 1.52582
3142.30444 1.52426
3140.25600 1.52272
3138.20756 1.52155
3136.15913 1.52028
3134.11069 1.51916
3132.06225 1.51917
3130.01381 1.51968
3127.96537 1.51933
3125.91693 1.51811
3123.86850 1.51734
3121.82006 1.51709
3119.77162 1.51612
3117.72318 1.51463
3115.67474 1.51380
3113.62630 1.51350
3111.57787 1.51282
3109.52943 1.51185
3107.48099 1.51097
3105.43255 1.51028
3103.38411 1.51006
3101.33567 1.50978
3099.28724 1.50847
3097.23880 1.50652
3095.19036 1.50549
3093.14192 1.50540
3091.09348 1.50496
3089.04504 1.50407
3086.99661 1.50321
3084.94817 1.50255
3082.89973 1.50223
3080.85129 1.50218
3078.80285 1.50201
3076.75441 1.50140
3074.70598 1.49994
3072.65754 1.49820
3070.60910 1.49709
3068.56066 1.49633
3066.51222 1.49562
3064.46378 1.49538
3062.41535 1.49541
3060.36691 1.49463
3058.31847 1.49319
3056.27003 1.49257
3054.22159 1.49234
3052.17315 1.49131
3050.12471 1.49043
3048.07628 1.49023
3046.02784 1.48999
3043.97940 1.48953
3041.93096 1.48886
3039.88252 1.48800
3037.83408 1.48743
3035.78565 1.48712
3033.73721 1.48646
3031.68877 1.48579
3029.64033 1.48558
3027.59189 1.48511
3025.54345 1.48397
3023.49502 1.48310
3021.44658 1.48258
3019.39814 1.48183
3017.34970 1.48151
3015.30126 1.48176
3013.25282 1.48145
3011.20439 1.48052
3009.15595 1.48044
3007.10751 1.48131
3005.05907 1.48173
3003.01063 1.48136
3000.96219 1.48075
2998.91376 1.48047
2996.86532 1.48068
2994.81688 1.48123
2992.76844 1.48199
2990.72000 1.48245
2988.67156 1.48264
2986.62313 1.48349
2984.57469 1.48492
2982.52625 1.48616
2980.47781 1.48754
2978.42937 1.48955
2976.38093 1.49248
2974.33250 1.49627
2972.28406 1.49997
2970.23562 1.50382
2968.18718 1.50843
2966.13874 1.51286
2964.09030 1.51613
2962.04187 1.51841
2959.99343 1.52010
2957.94499 1.52102
2955.89655 1.52116
2953.84811 1.52108
2951.79967 1.52084
2949.75124 1.52037
2947.70280 1.52056
2945.65436 1.52170
2943.60592 1.52249
2941.55748 1.52318
2939.50904 1.52535
2937.46061 1.52861
2935.41217 1.53238
2933.36373 1.53650
2931.31529 1.54022
2929.26685 1.54353
2927.21841 1.54661
2925.16998 1.54867
2923.12154 1.54919
2921.07310 1.54866
2919.02466 1.54694
2916.97622 1.54328
2914.92778 1.53778
2912.87934 1.53131
2910.83091 1.52519
2908.78247 1.52026
2906.73403 1.51627
2904.68559 1.51250
2902.63715 1.50880
2900.58871 1.50556
2898.54028 1.50292
2896.49184 1.50085
2894.44340 1.49892
2892.39496 1.49655
2890.34652 1.49399
2888.29808 1.49177
2886.24965 1.49005
2884.20121 1.48873
2882.15277 1.48759
2880.10433 1.48689
2878.05589 1.48716
2876.00745 1.48796
2873.95902 1.48858
2871.91058 1.48935
2869.86214 1.49035
2867.81370 1.49093
2865.76526 1.49133
2863.71682 1.49235
2861.66839 1.49422
2859.61995 1.49718
2857.57151 1.50096
2855.52307 1.50447
2853.47463 1.50702
2851.42619 1.50769
2849.37776 1.50512
2847.32932 1.49951
2845.28088 1.49265
2843.23244 1.48581
2841.18400 1.47954
2839.13556 1.47475
2837.08713 1.47127
2835.03869 1.46825
2832.99025 1.46556
2830.94181 1.46307
2828.89337 1.46074
2826.84493 1.45863
2824.79650 1.45681
2822.74806 1.45573
2820.69962 1.45517
2818.65118 1.45409
2816.60274 1.45256
2814.55430 1.45108
2812.50587 1.44946
2810.45743 1.44826
2808.40899 1.44816
2806.36055 1.44845
2804.31211 1.44824
2802.26367 1.44753
2800.21524 1.44685
2798.16680 1.44613
2796.11836 1.44506
2794.06992 1.44392
2792.02148 1.44320
2789.97304 1.44271
2787.92461 1.44208
2785.87617 1.44163
2783.82773 1.44137
2781.77929 1.44084
2779.73085 1.44025
2777.68241 1.43973
2775.63397 1.43906
2773.58554 1.43866
2771.53710 1.43885
2769.48866 1.43907
2767.44022 1.43843
2765.39178 1.43709
2763.34334 1.43615
2761.29491 1.43595
2759.24647 1.43608
2757.19803 1.43597
2755.14959 1.43549
2753.10115 1.43491
2751.05271 1.43441
2749.00428 1.43413
2746.95584 1.43392
2744.90740 1.43343
2742.85896 1.43316
2740.81052 1.43322
2738.76208 1.43286
2736.71365 1.43230
2734.66521 1.43229
2732.61677 1.43260
2730.56833 1.43240
2728.51989 1.43187
2726.47145 1.43168
2724.42302 1.43133
2722.37458 1.43069
2720.32614 1.43039
2718.27770 1.43039
2716.22926 1.43017
2714.18082 1.42977
2712.13239 1.42957
2710.08395 1.42935
2708.03551 1.42874
2705.98707 1.42792
2703.93863 1.42736
2701.89019 1.42699
2699.84176 1.42659
2697.79332 1.42618
2695.74488 1.42596
2693.69644 1.42637
2691.64800 1.42671
2689.59956 1.42620
2687.55113 1.42548
2685.50269 1.42533
2683.45425 1.42551
2681.40581 1.42562
2679.35737 1.42569
2677.30893 1.42511
2675.26050 1.42384
2673.21206 1.42307
2671.16362 1.42313
2669.11518 1.42318
2667.06674 1.42282
2665.01830 1.42238
2662.96987 1.42197
2660.92143 1.42133
2658.87299 1.42062
2656.82455 1.42023
2654.77611 1.41984
2652.72767 1.41931
2650.67924 1.41901
2648.63080 1.41874
2646.58236 1.41823
2644.53392 1.41799
2642.48548 1.41829
2640.43704 1.41865
2638.38860 1.41867
2636.34017 1.41848
2634.29173 1.41792
2632.24329 1.41719
2630.19485 1.41698
2628.14641 1.41708
2626.09797 1.41669
2624.04954 1.41562
2622.00110 1.41477
2619.95266 1.41476
2617.90422 1.41486
2615.85578 1.41429
2613.80734 1.41362
2611.75891 1.41354
2609.71047 1.41379
2607.66203 1.41386
2605.61359 1.41363
2603.56515 1.41339
2601.51671 1.41311
2599.46828 1.41279
2597.41984 1.41266
2595.37140 1.41258
2593.32296 1.41235
2591.27452 1.41204
2589.22608 1.41191
2587.17765 1.41210
2585.12921 1.41222
2583.08077 1.41207
2581.03233 1.41196
2578.98389 1.41198
2576.93545 1.41203
2574.88702 1.41209
2572.83858 1.41211
2570.79014 1.41207
2568.74170 1.41192
2566.69326 1.41150
2564.64482 1.41100
2562.59639 1.41077
2560.54795 1.41098
2558.49951 1.41118
2556.45107 1.41094
2554.40263 1.41075
2552.35419 1.41094
2550.30576 1.41099
2548.25732 1.41075
2546.20888 1.41111
2544.16044 1.41220
2542.11200 1.41266
2540.06356 1.41218
2538.01513 1.41196
2535.96669 1.41223
2533.91825 1.41227
2531.86981 1.41225
2529.82137 1.41274
2527.77293 1.41324
2525.72450 1.41331
2523.67606 1.41393
2521.62762 1.41568
2519.57918 1.41724
2517.53074 1.41783
2515.48230 1.41821
2513.43387 1.41880
2511.38543 1.41912
2509.33699 1.41894
2507.28855 1.41907
2505.24011 1.41980
2503.19167 1.42033
2501.14324 1.42048
2499.09480 1.42070
2497.04636 1.42102
2494.99792 1.42132
2492.94948 1.42179
2490.90104 1.42256
2488.85260 1.42309
2486.80417 1.42307
2484.75573 1.42313
2482.70729 1.42359
2480.65885 1.42432
2478.61041 1.42561
2476.56197 1.42689
2474.51354 1.42725
2472.46510 1.42731
2470.41666 1.42808
2468.36822 1.42890
2466.31978 1.42906
2464.27134 1.42939
2462.22291 1.43011
2460.17447 1.43077
2458.12603 1.43140
2456.07759 1.43195
2454.02915 1.43234
2451.98071 1.43313
2449.93228 1.43504
2447.88384 1.43767
2445.83540 1.44046
2443.78696 1.44390
2441.73852 1.44850
2439.69008 1.45459
2437.64165 1.46235
2435.59321 1.47176
2433.54477 1.48344
2431.49633 1.49709
2429.44789 1.50914
2427.39945 1.51404
2425.35102 1.50914
2423.30258 1.49696
2421.25414 1.48199
2419.20570 1.46810
2417.15726 1.45774
2415.10882 1.45090
2413.06039 1.44605
2411.01195 1.44221
2408.96351 1.43921
2406.91507 1.43703
2404.86663 1.43572
2402.81819 1.43491
2400.76976 1.43434
2398.72132 1.43406
2396.67288 1.43385
2394.62444 1.43371
2392.57600 1.43364
2390.52756 1.43317
2388.47913 1.43218
2386.43069 1.43105
2384.38225 1.42961
2382.33381 1.42739
2380.28537 1.42513
2378.23693 1.42396
2376.18850 1.42329
2374.14006 1.42224
2372.09162 1.42153
2370.04318 1.42099
2367.99474 1.41926
2365.94630 1.41756
2363.89787 1.41797
2361.84943 1.41986
2359.80099 1.42368
2357.75255 1.42994
2355.70411 1.43441
2353.65567 1.43664
2351.60723 1.43668
2349.55880 1.43015
2347.51036 1.42006
2345.46192 1.41560
2343.41348 1.41986
2341.36504 1.42332
2339.31660 1.42418
2337.26817 1.42479
2335.21973 1.42501
2333.17129 1.42502
2331.12285 1.42453
2329.07441 1.42358
2327.02597 1.42334
2324.97754 1.42325
2322.92910 1.42379
2320.88066 1.42591
2318.83222 1.42688
2316.78378 1.42567
2314.73534 1.42428
2312.68691 1.42378
2310.63847 1.42380
2308.59003 1.42388
2306.54159 1.42331
2304.49315 1.42191
2302.44471 1.42061
2300.39628 1.41988
2298.34784 1.41949
2296.29940 1.41947
2294.25096 1.41968
2292.20252 1.41946
2290.15408 1.41866
2288.10565 1.41781
2286.05721 1.41717
2284.00877 1.41651
2281.96033 1.41572
2279.91189 1.41490
2277.86345 1.41427
2275.81502 1.41402
2273.76658 1.41380
2271.71814 1.41344
2269.66970 1.41307
2267.62126 1.41267
2265.57282 1.41229
2263.52439 1.41206
2261.47595 1.41202
2259.42751 1.41174
2257.37907 1.41122
2255.33063 1.41102
2253.28219 1.41103
2251.23376 1.41084
2249.18532 1.41082
2247.13688 1.41099
2245.08844 1.41075
2243.04000 1.41029
2240.99156 1.41004
2238.94313 1.40975
2236.89469 1.40936
2234.84625 1.40895
2232.79781 1.40822
2230.74937 1.40738
2228.70093 1.40734
2226.65250 1.40819
2224.60406 1.40884
2222.55562 1.40862
2220.50718 1.40772
2218.45874 1.40687
2216.41030 1.40668
2214.36186 1.40679
2212.31343 1.40694
2210.26499 1.40731
2208.21655 1.40741
2206.16811 1.40695
2204.11967 1.40626
2202.07123 1.40547
2200.02280 1.40480
2197.97436 1.40477
2195.92592 1.40546
2193.87748 1.40587
2191.82904 1.40553
2189.78060 1.40527
2187.73217 1.40516
2185.68373 1.40480
2183.63529 1.40431
2181.58685 1.40400
2179.53841 1.40399
2177.48997 1.40395
2175.44154 1.40378
2173.39310 1.40381
2171.34466 1.40364
2169.29622 1.40311
2167.24778 1.40289
2165.19934 1.40306
2163.15091 1.40328
2161.10247 1.40331
2159.05403 1.40314
2157.00559 1.40295
2154.95715 1.40279
2152.90871 1.40274
2150.86028 1.40250
2148.81184 1.40195
2146.76340 1.40168
2144.71496 1.40197
2142.66652 1.40247
2140.61808 1.40277
2138.56965 1.40264
2136.52121 1.40229
2134.47277 1.40244
2132.42433 1.40315
2130.37589 1.40335
2128.32745 1.40265
2126.27902 1.40196
2124.23058 1.40174
2122.18214 1.40152
2120.13370 1.40132
2118.08526 1.40144
2116.03682 1.40153
2113.98839 1.40168
2111.93995 1.40159
2109.89151 1.40078
2107.84307 1.40008
2105.79463 1.39996
2103.74619 1.40012
2101.69776 1.40034
2099.64932 1.40043
2097.60088 1.40048
2095.55244 1.40046
2093.50400 1.39989
2091.45556 1.39904
2089.40713 1.39897
2087.35869 1.39934
2085.31025 1.39899
2083.26181 1.39833
2081.21337 1.39835
2079.16493 1.39891
2077.11649 1.39924
2075.06806 1.39913
2073.01962 1.39888
2070.97118 1.39865
2068.92274 1.39854
2066.87430 1.39843
2064.82586 1.39810
2062.77743 1.39772
2060.72899 1.39791
2058.68055 1.39837
2056.63211 1.39835
2054.58367 1.39815
2052.53523 1.39839
2050.48680 1.39871
2048.43836 1.39856
2046.38992 1.39787
2044.34148 1.39700
2042.29304 1.39675
2040.24460 1.39715
2038.19617 1.39730
2036.14773 1.39707
2034.09929 1.39691
2032.05085 1.39697
2030.00241 1.39701
2027.95397 1.39700
2025.90554 1.39709
2023.85710 1.39694
2021.80866 1.39615
2019.76022 1.39505
2017.71178 1.39474
2015.66334 1.39528
2013.61491 1.39544
2011.56647 1.39525
2009.51803 1.39529
2007.46959 1.39538
2005.42115 1.39536
2003.37271 1.39545
2001.32428 1.39564
1999.27584 1.39575
1997.22740 1.39550
1995.17896 1.39438
1993.13052 1.39404
1991.08208 1.39570
1989.03365 1.39673
1986.98521 1.39636
1984.93677 1.39589
1982.88833 1.39577
1980.83989 1.39577
1978.79145 1.39575
1976.74302 1.39584
1974.69458 1.39564
1972.64614 1.39556
1970.59770 1.39572
1968.54926 1.39627
1966.50082 1.39832
1964.45239 1.40015
1962.40395 1.39980
1960.35551 1.39851
1958.30707 1.39777
1956.25863 1.39781
1954.21019 1.39831
1952.16176 1.39877
1950.11332 1.39868
1948.06488 1.39788
1946.01644 1.39645
1943.96800 1.39588
1941.91956 1.39838
1939.87112 1.40039
1937.82269 1.39902
1935.77425 1.39759
1933.72581 1.39823
1931.67737 1.39950
1929.62893 1.39979
1927.58049 1.39920
1925.53206 1.39816
1923.48362 1.39811
1921.43518 1.39841
1919.38674 1.39780
1917.33830 1.39929
1915.28986 1.40075
1913.24143 1.39954
1911.19299 1.39884
1909.14455 1.39995
1907.09611 1.40100
1905.04767 1.40116
1902.99923 1.40128
1900.95080 1.40138
1898.90236 1.40104
1896.85392 1.40077
1894.80548 1.40133
1892.75704 1.40086
1890.70860 1.40009
1888.66017 1.40200
1886.61173 1.40289
1884.56329 1.40190
1882.51485 1.40175
1880.46641 1.40216
1878.41797 1.40260
1876.36954 1.40272
1874.32110 1.40221
1872.27266 1.40008
1870.22422 1.39813
1868.17578 1.40161
1866.12734 1.40577
1864.07891 1.40479
1862.03047 1.40276
1859.98203 1.40222
1857.93359 1.40251
1855.88515 1.40297
1853.83671 1.40339
1851.78828 1.40339
1849.73984 1.40240
1847.69140 1.39995
1845.64296 1.39829
1843.59452 1.40291
1841.54608 1.40705
1839.49765 1.40565
1837.44921 1.40490
1835.40077 1.40561
1833.35233 1.40331
1831.30389 1.40068
1829.25545 1.40357
1827.20702 1.40620
1825.15858 1.40714
1823.11014 1.40911
1821.06170 1.40860
1819.01326 1.40748
1816.96482 1.40844
1814.91639 1.40866
1812.86795 1.40734
1810.81951 1.40878
1808.77107 1.41175
1806.72263 1.41160
1804.67419 1.40929
1802.62575 1.40782
1800.57732 1.40969
1798.52888 1.41229
1796.48044 1.41104
1794.43200 1.40766
1792.38356 1.41042
1790.33512 1.41778
1788.28669 1.41800
1786.23825 1.41522
1784.18981 1.41518
1782.14137 1.41672
1780.09293 1.41900
1778.04449 1.41945
1775.99606 1.41572
1773.94762 1.41237
1771.89918 1.41721
1769.85074 1.42470
1767.80230 1.42767
1765.75386 1.42682
1763.70543 1.42389
1761.65699 1.42596
1759.60855 1.42993
1757.56011 1.43139
1755.51167 1.43351
1753.46323 1.43276
1751.41480 1.43305
1749.36636 1.44122
1747.31792 1.44905
1745.26948 1.45229
1743.22104 1.45444
1741.17260 1.45771
1739.12417 1.46200
1737.07573 1.46069
1735.02729 1.45776
1732.97885 1.46495
1730.93041 1.46940
1728.88197 1.46838
1726.83354 1.46670
1724.78510 1.46524
1722.73666 1.46463
1720.68822 1.46135
1718.63978 1.45880
1716.59134 1.46722
1714.54291 1.47531
1712.49447 1.47510
1710.44603 1.47239
1708.39759 1.46948
1706.34915 1.46968
1704.30071 1.47100
1702.25228 1.46764
1700.20384 1.46894
1698.15540 1.47671
1696.10696 1.48339
1694.05852 1.48849
1692.01008 1.48612
1689.96165 1.48230
1687.91321 1.47888
1685.86477 1.47523
1683.81633 1.48545
1681.76789 1.49728
1679.71945 1.49617
1677.67102 1.49224
1675.62258 1.49267
1673.57414 1.49656
1671.52570 1.49768
1669.47726 1.50304
1667.42882 1.50857
1665.38038 1.50577
1663.33195 1.50471
1661.28351 1.50978
1659.23507 1.51072
1657.18663 1.50489
1655.13819 1.49758
1653.08975 1.50717
1651.04132 1.51861
1648.99288 1.51362
1646.94444 1.51524
1644.89600 1.52230
1642.84756 1.51997
1640.79912 1.51499
1638.75069 1.51065
1636.70225 1.51189
1634.65381 1.52193
1632.60537 1.52245
1630.55693 1.51690
1628.50849 1.51434
1626.46006 1.51401
1624.41162 1.51356
1622.36318 1.51528
1620.31474 1.51337
1618.26630 1.50949
1616.21786 1.51315
1614.16943 1.51545
1612.12099 1.51120
1610.07255 1.50751
1608.02411 1.50582
1605.97567 1.50348
1603.92723 1.50079
1601.87880 1.49945
1599.83036 1.49790
1597.78192 1.49459
1595.73348 1.49140
1593.68504 1.48994
1591.63660 1.48884
1589.58817 1.48729
1587.53973 1.48558
1585.49129 1.48335
1583.44285 1.48102
1581.39441 1.47847
1579.34597 1.47396
1577.29754 1.47188
1575.24910 1.47772
1573.20066 1.47684
1571.15222 1.47139
1569.10378 1.47263
1567.05534 1.47342
1565.00691 1.46928
1562.95847 1.46285
1560.91003 1.45481
1558.86159 1.46251
1556.81315 1.47588
1554.76471 1.47187
1552.71628 1.46783
1550.66784 1.46660
1548.61940 1.46573
1546.57096 1.46148
1544.52252 1.45589
1542.47408 1.45333
1540.42565 1.46131
1538.37721 1.47037
1536.32877 1.46503
1534.28033 1.45994
1532.23189 1.46152
1530.18345 1.45954
1528.13501 1.45514
1526.08658 1.45384
1524.03814 1.45193
1521.98970 1.45217
1519.94126 1.45634
1517.89282 1.45751
1515.84438 1.45881
1513.79595 1.45732
1511.74751 1.45118
1509.69907 1.44307
1507.65063 1.44409
1505.60219 1.45995
1503.55375 1.45898
1501.50532 1.45146
1499.45688 1.44728
1497.40844 1.44938
1495.36000 1.45250
1493.31156 1.44835
1491.26312 1.44318
1489.21469 1.44706
1487.16625 1.45232
1485.11781 1.45070
1483.06937 1.44822
1481.02093 1.44805
1478.97249 1.44797
1476.92406 1.44760
1474.87562 1.45099
1472.82718 1.46233
1470.77874 1.47190
1468.73030 1.47122
1466.68186 1.46958
1464.63343 1.47336
1462.58499 1.47427
1460.53655 1.46831
1458.48811 1.46596
1456.43967 1.47629
1454.39123 1.47863
1452.34280 1.47337
1450.29436 1.46910
1448.24592 1.46851
1446.19748 1.47002
1444.14904 1.46945
1442.10060 1.46741
1440.05217 1.46409
1438.00373 1.46179
1435.95529 1.46577
1433.90685 1.46734
1431.85841 1.46447
1429.80997 1.46473
1427.76154 1.46575
1425.71310 1.46417
1423.66466 1.46307
1421.61622 1.46193
1419.56778 1.46379
1417.51934 1.47100
1415.47091 1.47251
1413.42247 1.46967
1411.37403 1.46768
1409.32559 1.46689
1407.27715 1.46607
1405.22871 1.46616
1403.18028 1.46590
1401.13184 1.46299
1399.08340 1.46080
1397.03496 1.46106
1394.98652 1.46223
1392.93808 1.46231
1390.88965 1.45981
1388.84121 1.45863
1386.79277 1.46163
1384.74433 1.46322
1382.69589 1.46183
1380.64745 1.46136
1378.59901 1.46164
1376.55058 1.46129
1374.50214 1.46204
1372.45370 1.46301
1370.40526 1.46230
1368.35682 1.46178
1366.30838 1.46042
1364.25995 1.45843
1362.21151 1.45954
1360.16307 1.46124
1358.11463 1.46037
1356.06619 1.45884
1354.01775 1.45825
1351.96932 1.45856
1349.92088 1.45936
1347.87244 1.45964
1345.82400 1.45867
1343.77556 1.45698
1341.72712 1.45550
1339.67869 1.45635
1337.63025 1.45886
1335.58181 1.45957
1333.53337 1.45871
1331.48493 1.45797
1329.43649 1.45809
1327.38806 1.45843
1325.33962 1.45808
1323.29118 1.45786
1321.24274 1.45858
1319.19430 1.45982
1317.14586 1.46089
1315.09743 1.46170
1313.04899 1.46259
1311.00055 1.46339
1308.95211 1.46403
1306.90367 1.46463
1304.85523 1.46511
1302.80680 1.46504
1300.75836 1.46461
1298.70992 1.46515
1296.66148 1.46646
1294.61304 1.46738
1292.56460 1.46785
1290.51617 1.46836
1288.46773 1.46959
1286.41929 1.47103
1284.37085 1.47136
1282.32241 1.47099
1280.27397 1.47128
1278.22554 1.47301
1276.17710 1.47569
1274.12866 1.47856
1272.08022 1.48303
1270.03178 1.49054
1267.98334 1.49959
1265.93491 1.50728
1263.88647 1.51090
1261.83803 1.50997
1259.78959 1.50551
1257.74115 1.49918
1255.69271 1.49418
1253.64428 1.49111
1251.59584 1.48782
1249.54740 1.48509
1247.49896 1.48434
1245.45052 1.48437
1243.40208 1.48429
1241.35364 1.48436
1239.30521 1.48460
1237.25677 1.48451
1235.20833 1.48451
1233.15989 1.48533
1231.11145 1.48687
1229.06301 1.48865
1227.01458 1.48995
1224.96614 1.49079
1222.91770 1.49198
1220.86926 1.49376
1218.82082 1.49548
1216.77238 1.49720
1214.72395 1.49886
1212.67551 1.49978
1210.62707 1.50085
1208.57863 1.50307
1206.53019 1.50586
1204.48175 1.50831
1202.43332 1.51054
1200.38488 1.51233
1198.33644 1.51283
1196.28800 1.51263
1194.23956 1.51301
1192.19112 1.51370
1190.14269 1.51381
1188.09425 1.51339
1186.04581 1.51274
1183.99737 1.51249
1181.94893 1.51312
1179.90049 1.51446
1177.85206 1.51653
1175.80362 1.51930
1173.75518 1.52164
1171.70674 1.52263
1169.65830 1.52337
1167.60986 1.52524
1165.56143 1.52741
1163.51299 1.52899
1161.46455 1.53036
1159.41611 1.53130
1157.36767 1.53150
1155.31923 1.53156
1153.27080 1.53195
1151.22236 1.53247
1149.17392 1.53394
1147.12548 1.53666
1145.07704 1.53828
1143.02860 1.53820
1140.98017 1.53909
1138.93173 1.54150
1136.88329 1.54290
1134.83485 1.54307
1132.78641 1.54340
1130.73797 1.54372
1128.68954 1.54402
1126.64110 1.54511
1124.59266 1.54678
1122.54422 1.54774
1120.49578 1.54782
1118.44734 1.54762
1116.39891 1.54733
1114.35047 1.54673
1112.30203 1.54656
1110.25359 1.54730
1108.20515 1.54781
1106.15671 1.54738
1104.10827 1.54662
1102.05984 1.54609
1100.01140 1.54562
1097.96296 1.54572
1095.91452 1.54636
1093.86608 1.54626
1091.81764 1.54542
1089.76921 1.54392
1087.72077 1.54146
1085.67233 1.53935
1083.62389 1.53811
1081.57545 1.53652
1079.52701 1.53403
1077.47858 1.53049
1075.43014 1.52606
1073.38170 1.52170
1071.33326 1.51844
1069.28482 1.51676
1067.23638 1.51662
1065.18795 1.51742
1063.13951 1.51783
1061.09107 1.51733
1059.04263 1.51661
1056.99419 1.51635
1054.94575 1.51741
1052.89732 1.51973
1050.84888 1.52156
1048.80044 1.52196
1046.75200 1.52105
1044.70356 1.51945
1042.65512 1.51857
1040.60669 1.51830
1038.55825 1.51670
1036.50981 1.51362
1034.46137 1.51126
1032.41293 1.51012
1030.36449 1.50898
1028.31606 1.50863
1026.26762 1.50869
1024.21918 1.50735
1022.17074 1.50617
1020.12230 1.50573
1018.07386 1.50441
1016.02543 1.50307
1013.97699 1.50252
1011.92855 1.50103
1009.88011 1.49756
1007.83167 1.49385
1005.78323 1.49152
1003.73480 1.48975
1001.68636 1.48776
999.63792 1.48566
997.58948 1.48337
995.54104 1.48118
993.49260 1.47944
991.44417 1.47762
989.39573 1.47515
987.34729 1.47272
985.29885 1.47106
983.25041 1.47004
981.20197 1.46943
979.15354 1.46857
977.10510 1.46731
975.05666 1.46637
973.00822 1.46563
970.95978 1.46465
968.91134 1.46385
966.86290 1.46382
964.81447 1.46419
962.76603 1.46432
960.71759 1.46473
958.66915 1.46563
956.62071 1.46659
954.57227 1.46796
952.52384 1.47018
950.47540 1.47266
948.42696 1.47515
946.37852 1.47829
944.33008 1.48174
942.28164 1.48445
940.23321 1.48638
938.18477 1.48900
936.13633 1.49253
934.08789 1.49511
932.03945 1.49743
929.99101 1.50119
927.94258 1.50449
925.89414 1.50650
923.84570 1.50876
921.79726 1.51099
919.74882 1.51351
917.70038 1.51771
915.65195 1.52200
913.60351 1.52429
911.55507 1.52531
909.50663 1.52600
907.45819 1.52740
905.40975 1.53056
903.36132 1.53321
901.31288 1.53432
899.26444 1.53613
897.21600 1.53794
895.16756 1.53933
893.11912 1.54179
891.07069 1.54457
889.02225 1.54768
886.97381 1.55112
884.92537 1.55395
882.87693 1.55684
880.82849 1.55856
878.78006 1.55812
876.73162 1.55711
874.68318 1.55596
872.63474 1.55572
870.58630 1.55667
868.53786 1.55708
866.48943 1.55727
864.44099 1.55708
862.39255 1.55682
860.34411 1.55833
858.29567 1.55951
856.24723 1.55932
854.19880 1.56002
852.15036 1.56138
850.10192 1.56305
848.05348 1.56561
846.00504 1.56728
843.95660 1.56810
841.90817 1.57060
839.85973 1.57349
837.81129 1.57591
835.76285 1.57907
833.71441 1.58065
831.66597 1.58052
829.61753 1.58168
827.56910 1.58425
825.52066 1.58698
823.47222 1.58850
821.42378 1.58726
819.37534 1.58502
817.32690 1.58324
815.27847 1.58212
813.23003 1.58564
811.18159 1.59118
809.13315 1.59186
807.08471 1.59180
805.03627 1.59478
802.98784 1.59651
800.93940 1.59743
798.89096 1.60321
796.84252 1.61465
794.79408 1.62725
792.74564 1.63679
790.69721 1.64290
788.64877 1.64740
786.60033 1.65355
784.55189 1.66396
782.50345 1.67593
780.45501 1.68645
778.40658 1.69470
776.35814 1.70068
774.30970 1.70556
772.26126 1.70846
770.21282 1.71084
768.16438 1.71994
766.11595 1.73478
764.06751 1.74540
762.01907 1.75192
759.97063 1.76139
757.92219 1.77261
755.87375 1.78117
753.82532 1.78948
751.77688 1.79689
749.72844 1.79762
747.68000 1.79349
745.63156 1.78937
743.58312 1.78795
741.53469 1.79004
739.48625 1.79353
737.43781 1.79725
735.38937 1.80168
733.34093 1.80520
731.29249 1.80541
729.24406 1.80624
727.19562 1.81401
725.14718 1.82481
723.09874 1.83178
721.05030 1.83440
719.00186 1.83296
716.95343 1.83244
714.90499 1.83650
712.85655 1.83984
710.80811 1.84033
708.75967 1.84275
706.71123 1.84612
704.66280 1.84670
702.61436 1.85064
700.56592 1.86199
698.51748 1.87159
696.46904 1.87043
694.42060 1.86373
692.37216 1.85756
690.32373 1.84636
688.27529 1.83376
686.22685 1.83035
684.17841 1.83243
682.12997 1.83380
680.08153 1.82852
678.03310 1.81669
675.98466 1.81240
673.93622 1.82053
671.88778 1.83355
669.83934 1.84063
667.79090 1.83362
665.74247 1.82234
663.69403 1.81641
661.64559 1.81927
659.59715 1.82659
657.54871 1.83553
655.50027 1.83769
653.45184 1.82532
651.40340 1.82411
649.35496 1.83627
647.30652 1.83486
645.25808 1.81675
643.20964 1.79786
641.16121 1.79620
639.11277 1.80221
637.06433 1.79106
635.01589 1.77406
632.96745 1.75588
630.91901 1.73509
628.87058 1.72917
626.82214 1.73486
624.77370 1.73954
622.72526 1.74165
620.67682 1.74059
618.62838 1.72759
616.57995 1.69883
614.53151 1.67105
612.48307 1.66545
610.43463 1.68439
608.38619 1.68994
606.33775 1.66229
604.28932 1.63820
602.24088 1.64559
600.19244 1.67942
598.14400 1.70963
