3996.50324 1.31647
3994.45480 1.31633
3992.40636 1.31620
3990.35792 1.31610
3988.30948 1.31597
3986.26104 1.31549
3984.21261 1.31519
3982.16417 1.31551
3980.11573 1.31588
3978.06729 1.31624
3976.01885 1.31690
3973.97041 1.31761
3971.92198 1.31786
3969.87354 1.31750
3967.82510 1.31690
3965.77666 1.31637
3963.72822 1.31644
3961.67978 1.31712
3959.63135 1.31736
3957.58291 1.31755
3955.53447 1.31791
3953.48603 1.31766
3951.43759 1.31754
3949.38915 1.31848
3947.34072 1.31924
3945.29228 1.31875
3943.24384 1.31882
3941.19540 1.31939
3939.14696 1.31789
3937.09852 1.31556
3935.05009 1.31509
3933.00165 1.31745
3930.95321 1.32059
3928.90477 1.32039
3926.85633 1.31790
3924.80789 1.31699
3922.75946 1.31724
3920.71102 1.31643
3918.66258 1.31641
3916.61414 1.31769
3914.56570 1.31778
3912.51726 1.31637
3910.46883 1.31475
3908.42039 1.31326
3906.37195 1.31264
3904.32351 1.31586
3902.27507 1.32152
3900.22663 1.32446
3898.17820 1.32423
3896.12976 1.32053
3894.08132 1.31631
3892.03288 1.31686
3889.98444 1.31943
3887.93600 1.31785
3885.88756 1.31767
3883.83913 1.32017
3881.79069 1.32037
3879.74225 1.32164
3877.69381 1.32025
3875.64537 1.31619
3873.59693 1.31622
3871.54850 1.31958
3869.50006 1.32323
3867.45162 1.32350
3865.40318 1.32243
3863.35474 1.32461
3861.30630 1.32387
3859.25787 1.31957
3857.20943 1.31584
3855.16099 1.31543
3853.11255 1.32703
3851.06411 1.33304
3849.01567 1.32592
3846.96724 1.31886
3844.91880 1.31639
3842.87036 1.31847
3840.82192 1.32252
3838.77348 1.32744
3836.72504 1.33043
3834.67661 1.32830
3832.62817 1.32523
3830.57973 1.32351
3828.53129 1.32191
3826.48285 1.32130
3824.43441 1.32041
3822.38598 1.32038
3820.33754 1.32748
3818.28910 1.32984
3816.24066 1.32636
3814.19222 1.32378
3812.14378 1.31951
3810.09535 1.31501
3808.04691 1.31498
3805.99847 1.32005
3803.95003 1.32187
3801.90159 1.32432
3799.85315 1.32883
3797.80472 1.32682
3795.75628 1.32388
3793.70784 1.32165
3791.65940 1.31901
3789.61096 1.31763
3787.56252 1.31733
3785.51409 1.31815
3783.46565 1.31870
3781.41721 1.31789
3779.36877 1.31950
3777.32033 1.32092
3775.27189 1.31834
3773.22346 1.31578
3771.17502 1.31673
3769.12658 1.32066
3767.07814 1.32254
3765.02970 1.32232
3762.98126 1.32075
3760.93283 1.31920
3758.88439 1.32133
3756.83595 1.32330
3754.78751 1.32164
3752.73907 1.32120
3750.69063 1.33069
3748.64219 1.33902
3746.59376 1.33564
3744.54532 1.33265
3742.49688 1.33369
3740.44844 1.33159
3738.40000 1.32880
3736.35156 1.33111
3734.30313 1.33738
3732.25469 1.33703
3730.20625 1.33236
3728.15781 1.32880
3726.10937 1.32820
3724.06093 1.32862
3722.01250 1.32724
3719.96406 1.32565
3717.91562 1.32424
3715.86718 1.32202
3713.81874 1.32027
3711.77030 1.32416
3709.72187 1.33050
3707.67343 1.32920
3705.62499 1.32504
3703.57655 1.32261
3701.52811 1.32381
3699.47967 1.32533
3697.43124 1.32481
3695.38280 1.32387
3693.33436 1.32302
3691.28592 1.32445
3689.23748 1.33127
3687.18904 1.33467
3685.14061 1.33069
3683.09217 1.32575
3681.04373 1.32413
3678.99529 1.32512
3676.94685 1.32798
3674.89841 1.33588
3672.84998 1.33740
3670.80154 1.33550
3668.75310 1.33811
3666.70466 1.33620
3664.65622 1.33113
3662.60778 1.32864
3660.55935 1.32838
3658.51091 1.32865
3656.46247 1.33204
3654.41403 1.33583
3652.36559 1.33531
3650.31715 1.33842
3648.26872 1.34985
3646.22028 1.35020
3644.17184 1.34434
3642.12340 1.34009
3640.07496 1.33898
3638.02652 1.34030
3635.97809 1.34204
3633.92965 1.34289
3631.88121 1.34242
3629.83277 1.34427
3627.78433 1.35168
3625.73589 1.35210
3623.68746 1.34816
3621.63902 1.34695
3619.59058 1.35103
3617.54214 1.35621
3615.49370 1.35651
3613.44526 1.35464
3611.39682 1.35341
3609.34839 1.35369
3607.29995 1.35507
3605.25151 1.35436
3603.20307 1.35293
3601.15463 1.35426
3599.10619 1.35664
3597.05776 1.35715
3595.00932 1.35750
3592.96088 1.35765
3590.91244 1.35633
3588.86400 1.35658
3586.81556 1.36078
3584.76713 1.36248
3582.71869 1.36046
3580.67025 1.35863
3578.62181 1.35845
3576.57337 1.35903
3574.52493 1.35938
3572.47650 1.35909
3570.42806 1.35862
3568.37962 1.36037
3566.33118 1.36529
3564.28274 1.36670
3562.23430 1.36452
3560.18587 1.36297
3558.13743 1.36271
3556.08899 1.36230
3554.04055 1.36235
3551.99211 1.36383
3549.94367 1.36489
3547.89524 1.36561
3545.84680 1.36724
3543.79836 1.36732
3541.74992 1.36525
3539.70148 1.36357
3537.65304 1.36371
3535.60461 1.36480
3533.55617 1.36497
3531.50773 1.36524
3529.45929 1.36743
3527.41085 1.37029
3525.36241 1.37115
3523.31398 1.36979
3521.26554 1.36820
3519.21710 1.36765
3517.16866 1.36775
3515.12022 1.36806
3513.07178 1.36849
3511.02335 1.36918
3508.97491 1.37022
3506.92647 1.37111
3504.87803 1.37178
3502.82959 1.37237
3500.78115 1.37194
3498.73272 1.37073
3496.68428 1.36997
3494.63584 1.36989
3492.58740 1.37014
3490.53896 1.37093
3488.49052 1.37250
3486.44209 1.37401
3484.39365 1.37446
3482.34521 1.37458
3480.29677 1.37470
3478.24833 1.37429
3476.19989 1.37411
3474.15146 1.37417
3472.10302 1.37376
3470.05458 1.37326
3468.00614 1.37312
3465.95770 1.37362
3463.90926 1.37472
3461.86082 1.37578
3459.81239 1.37631
3457.76395 1.37666
3455.71551 1.37687
3453.66707 1.37668
3451.61863 1.37673
3449.57019 1.37755
3447.52176 1.37859
3445.47332 1.37898
3443.42488 1.37894
3441.37644 1.37913
3439.32800 1.37928
3437.27956 1.37898
3435.23113 1.37872
3433.18269 1.37896
3431.13425 1.37941
3429.08581 1.37955
3427.03737 1.37955
3424.98893 1.37999
3422.94050 1.38070
3420.89206 1.38157
3418.84362 1.38238
3416.79518 1.38208
3414.74674 1.38094
3412.69830 1.38042
3410.64987 1.38067
3408.60143 1.38091
3406.55299 1.38119
3404.50455 1.38134
3402.45611 1.38132
3400.40767 1.38237
3398.35924 1.38412
3396.31080 1.38467
3394.26236 1.38396
3392.21392 1.38309
3390.16548 1.38275
3388.11704 1.38352
3386.06861 1.38458
3384.02017 1.38442
3381.97173 1.38292
3379.92329 1.38134
3377.87485 1.38099
3375.82641 1.38191
3373.77798 1.38311
3371.72954 1.38342
3369.68110 1.38272
3367.63266 1.38219
3365.58422 1.38236
3363.53578 1.38280
3361.48735 1.38312
3359.43891 1.38306
3357.39047 1.38309
3355.34203 1.38341
3353.29359 1.38312
3351.24515 1.38221
3349.19672 1.38151
3347.14828 1.38117
3345.09984 1.38084
3343.05140 1.38064
3341.00296 1.38073
3338.95452 1.38058
3336.90609 1.38040
3334.85765 1.38051
3332.80921 1.38061
3330.76077 1.38074
3328.71233 1.38076
3326.66389 1.38033
3324.61545 1.37973
3322.56702 1.37952
3320.51858 1.37938
3318.47014 1.37885
3316.42170 1.37860
3314.37326 1.37868
3312.32482 1.37806
3310.27639 1.37778
3308.22795 1.37850
3306.17951 1.37860
3304.13107 1.37830
3302.08263 1.37846
3300.03419 1.37855
3297.98576 1.37839
3295.93732 1.37847
3293.88888 1.37894
3291.84044 1.37889
3289.79200 1.37810
3287.74356 1.37762
3285.69513 1.37770
3283.64669 1.37826
3281.59825 1.37894
3279.54981 1.37912
3277.50137 1.37918
3275.45293 1.37988
3273.40450 1.38054
3271.35606 1.38021
3269.30762 1.37969
3267.25918 1.37973
3265.21074 1.37980
3263.16230 1.37988
3261.11387 1.38031
3259.06543 1.38076
3257.01699 1.38075
3254.96855 1.38030
3252.92011 1.37986
3250.87167 1.37980
3248.82324 1.37996
3246.77480 1.38029
3244.72636 1.38047
3242.67792 1.37999
3240.62948 1.37913
3238.58104 1.37858
3236.53261 1.37891
3234.48417 1.37958
3232.43573 1.37938
3230.38729 1.37856
3228.33885 1.37788
3226.29041 1.37739
3224.24198 1.37714
3222.19354 1.37708
3220.14510 1.37694
3218.09666 1.37643
3216.04822 1.37564
3213.99978 1.37507
3211.95135 1.37510
3209.90291 1.37546
3207.85447 1.37549
3205.80603 1.37510
3203.75759 1.37457
3201.70915 1.37422
3199.66072 1.37433
3197.61228 1.37461
3195.56384 1.37434
3193.51540 1.37332
3191.46696 1.37215
3189.41852 1.37117
3187.37008 1.37046
3185.32165 1.36978
3183.27321 1.36878
3181.22477 1.36782
3179.17633 1.36749
3177.12789 1.36760
3175.07945 1.36709
3173.03102 1.36613
3170.98258 1.36547
3168.93414 1.36465
3166.88570 1.36366
3164.83726 1.36285
3162.78882 1.36200
3160.74039 1.36104
3158.69195 1.36035
3156.64351 1.36032
3154.59507 1.36016
3152.54663 1.35895
3150.49819 1.35751
3148.44976 1.35670
3146.40132 1.35620
3144.35288 1.35580
3142.30444 1.35553
3140.25600 1.35527
3138.20756 1.35478
3136.15913 1.35381
3134.11069 1.35263
3132.06225 1.35157
3130.01381 1.35051
3127.96537 1.34957
3125.91693 1.34903
3123.86850 1.34880
3121.82006 1.34851
3119.77162 1.34790
3117.72318 1.34723
3115.67474 1.34650
3113.62630 1.34569
3111.57787 1.34531
3109.52943 1.34552
3107.48099 1.34558
3105.43255 1.34534
3103.38411 1.34517
3101.33567 1.34491
3099.28724 1.34446
3097.23880 1.34400
3095.19036 1.34393
3093.14192 1.34412
3091.09348 1.34391
3089.04504 1.34323
3086.99661 1.34272
3084.94817 1.34284
3082.89973 1.34253
3080.85129 1.34086
3078.80285 1.33937
3076.75441 1.33956
3074.70598 1.34048
3072.65754 1.34084
3070.60910 1.34075
3068.56066 1.34032
3066.51222 1.33960
3064.46378 1.33951
3062.41535 1.34010
3060.36691 1.34009
3058.31847 1.33960
3056.27003 1.33963
3054.22159 1.33976
3052.17315 1.33973
3050.12471 1.33999
3048.07628 1.34035
3046.02784 1.34030
3043.97940 1.33975
3041.93096 1.33927
3039.88252 1.33923
3037.83408 1.33928
3035.78565 1.33976
3033.73721 1.34061
3031.68877 1.34060
3029.64033 1.33974
3027.59189 1.33911
3025.54345 1.33888
3023.49502 1.33889
3021.44658 1.33924
3019.39814 1.33972
3017.34970 1.34027
3015.30126 1.34095
3013.25282 1.34161
3011.20439 1.34203
3009.15595 1.34223
3007.10751 1.34268
3005.05907 1.34343
3003.01063 1.34366
3000.96219 1.34326
2998.91376 1.34320
2996.86532 1.34397
2994.81688 1.34492
2992.76844 1.34512
2990.72000 1.34472
2988.67156 1.34485
2986.62313 1.34617
2984.57469 1.34815
2982.52625 1.34997
2980.47781 1.35103
2978.42937 1.35151
2976.38093 1.35265
2974.33250 1.35491
2972.28406 1.35756
2970.23562 1.35976
2968.18718 1.36168
2966.13874 1.36389
2964.09030 1.36591
2962.04187 1.36744
2959.99343 1.36947
2957.94499 1.37195
2955.89655 1.37318
2953.84811 1.37252
2951.79967 1.37124
2949.75124 1.37087
2947.70280 1.37161
2945.65436 1.37203
2943.60592 1.37218
2941.55748 1.37319
2939.50904 1.37476
2937.46061 1.37672
2935.41217 1.37918
2933.36373 1.38167
2931.31529 1.38384
2929.26685 1.38548
2927.21841 1.38667
2925.16998 1.38737
2923.12154 1.38728
2921.07310 1.38648
2919.02466 1.38509
2916.97622 1.38290
2914.92778 1.38036
2912.87934 1.37780
2910.83091 1.37516
2908.78247 1.37289
2906.73403 1.37091
2904.68559 1.36875
2902.63715 1.36671
2900.58871 1.36492
2898.54028 1.36327
2896.49184 1.36197
2894.44340 1.36096
2892.39496 1.35970
2890.34652 1.35824
2888.29808 1.35679
2886.24965 1.35542
2884.20121 1.35451
2882.15277 1.35407
2880.10433 1.35379
2878.05589 1.35377
2876.00745 1.35423
2873.95902 1.35493
2871.91058 1.35541
2869.86214 1.35605
2867.81370 1.35750
2865.76526 1.35912
2863.71682 1.36028
2861.66839 1.36184
2859.61995 1.36416
2857.57151 1.36667
2855.52307 1.36900
2853.47463 1.37025
2851.42619 1.36969
2849.37776 1.36729
2847.32932 1.36354
2845.28088 1.35967
2843.23244 1.35619
2841.18400 1.35249
2839.13556 1.34889
2837.08713 1.34605
2835.03869 1.34358
2832.99025 1.34121
2830.94181 1.33928
2828.89337 1.33795
2826.84493 1.33659
2824.79650 1.33486
2822.74806 1.33344
2820.69962 1.33247
2818.65118 1.33139
2816.60274 1.33034
2814.55430 1.32969
2812.50587 1.32918
2810.45743 1.32863
2808.40899 1.32774
2806.36055 1.32651
2804.31211 1.32587
2802.26367 1.32596
2800.21524 1.32572
2798.16680 1.32467
2796.11836 1.32342
2794.06992 1.32272
2792.02148 1.32250
2789.97304 1.32226
2787.92461 1.32172
2785.87617 1.32092
2783.82773 1.32011
2781.77929 1.31944
2779.73085 1.31874
2777.68241 1.31801
2775.63397 1.31794
2773.58554 1.31835
2771.53710 1.31826
2769.48866 1.31777
2767.44022 1.31744
2765.39178 1.31723
2763.34334 1.31704
2761.29491 1.31702
2759.24647 1.31710
2757.19803 1.31695
2755.14959 1.31671
2753.10115 1.31676
2751.05271 1.31681
2749.00428 1.31678
2746.95584 1.31679
2744.90740 1.31653
2742.85896 1.31596
2740.81052 1.31585
2738.76208 1.31668
2736.71365 1.31771
2734.66521 1.31827
2732.61677 1.31844
2730.56833 1.31846
2728.51989 1.31831
2726.47145 1.31801
2724.42302 1.31766
2722.37458 1.31751
2720.32614 1.31784
2718.27770 1.31808
2716.22926 1.31786
2714.18082 1.31770
2712.13239 1.31775
2710.08395 1.31765
2708.03551 1.31709
2705.98707 1.31629
2703.93863 1.31601
2701.89019 1.31652
2699.84176 1.31686
2697.79332 1.31668
2695.74488 1.31672
2693.69644 1.31698
2691.64800 1.31712
2689.59956 1.31716
2687.55113 1.31717
2685.50269 1.31748
2683.45425 1.31785
2681.40581 1.31767
2679.35737 1.31702
2677.30893 1.31643
2675.26050 1.31650
2673.21206 1.31718
2671.16362 1.31755
2669.11518 1.31732
2667.06674 1.31691
2665.01830 1.31654
2662.96987 1.31628
2660.92143 1.31611
2658.87299 1.31612
2656.82455 1.31633
2654.77611 1.31634
2652.72767 1.31606
2650.67924 1.31577
2648.63080 1.31528
2646.58236 1.31471
2644.53392 1.31484
2642.48548 1.31577
2640.43704 1.31631
2638.38860 1.31593
2636.34017 1.31550
2634.29173 1.31551
2632.24329 1.31581
2630.19485 1.31585
2628.14641 1.31520
2626.09797 1.31444
2624.04954 1.31426
2622.00110 1.31442
2619.95266 1.31442
2617.90422 1.31405
2615.85578 1.31360
2613.80734 1.31336
2611.75891 1.31301
2609.71047 1.31234
2607.66203 1.31173
2605.61359 1.31144
2603.56515 1.31165
2601.51671 1.31193
2599.46828 1.31167
2597.41984 1.31113
2595.37140 1.31077
2593.32296 1.31075
2591.27452 1.31086
2589.22608 1.31079
2587.17765 1.31053
2585.12921 1.31017
2583.08077 1.30984
2581.03233 1.31009
2578.98389 1.31089
2576.93545 1.31116
2574.88702 1.31058
2572.83858 1.30974
2570.79014 1.30919
2568.74170 1.30944
2566.69326 1.31035
2564.64482 1.31076
2562.59639 1.31009
2560.54795 1.30920
2558.49951 1.30868
2556.45107 1.30861
2554.40263 1.30903
2552.35419 1.30934
2550.30576 1.30909
2548.25732 1.30861
2546.20888 1.30821
2544.16044 1.30801
2542.11200 1.30830
2540.06356 1.30890
2538.01513 1.30928
2535.96669 1.30905
2533.91825 1.30867
2531.86981 1.30890
2529.82137 1.30968
2527.77293 1.31016
2525.72450 1.30976
2523.67606 1.30910
2521.62762 1.30908
2519.57918 1.30977
2517.53074 1.31060
2515.48230 1.31099
2513.43387 1.31094
2511.38543 1.31081
2509.33699 1.31071
2507.28855 1.31054
2505.24011 1.31049
2503.19167 1.31095
2501.14324 1.31167
2499.09480 1.31197
2497.04636 1.31184
2494.99792 1.31194
2492.94948 1.31243
2490.90104 1.31317
2488.85260 1.31416
2486.80417 1.31477
2484.75573 1.31443
2482.70729 1.31355
2480.65885 1.31307
2478.61041 1.31380
2476.56197 1.31521
2474.51354 1.31616
2472.46510 1.31656
2470.41666 1.31660
2468.36822 1.31629
2466.31978 1.31636
2464.27134 1.31720
2462.22291 1.31808
2460.17447 1.31855
2458.12603 1.31869
2456.07759 1.31851
2454.02915 1.31851
2451.98071 1.31928
2449.93228 1.32030
2447.88384 1.32098
2445.83540 1.32169
2443.78696 1.32323
2441.73852 1.32632
2439.69008 1.33114
2437.64165 1.33722
2435.59321 1.34385
2433.54477 1.35073
2431.49633 1.35790
2429.44789 1.36435
2427.39945 1.36698
2425.35102 1.36347
2423.30258 1.35518
2421.25414 1.34595
2419.20570 1.33851
2417.15726 1.33311
2415.10882 1.32891
2413.06039 1.32553
2411.01195 1.32328
2408.96351 1.32205
2406.91507 1.32101
2404.86663 1.31989
2402.81819 1.31913
2400.76976 1.31906
2398.72132 1.31952
2396.67288 1.32008
2394.62444 1.32039
2392.57600 1.32049
2390.52756 1.32053
2388.47913 1.32033
2386.43069 1.32015
2384.38225 1.32061
2382.33381 1.32158
2380.28537 1.32276
2378.23693 1.32431
2376.18850 1.32646
2374.14006 1.32933
2372.09162 1.33257
2370.04318 1.33545
2367.99474 1.33809
2365.94630 1.34171
2363.89787 1.34509
2361.84943 1.34574
2359.80099 1.34598
2357.75255 1.34709
2355.70411 1.34620
2353.65567 1.34390
2351.60723 1.34140
2349.55880 1.33850
2347.51036 1.33693
2345.46192 1.33957
2343.41348 1.34479
2341.36504 1.34695
2339.31660 1.34823
2337.26817 1.35126
2335.21973 1.35334
2333.17129 1.35192
2331.12285 1.34848
2329.07441 1.34544
2327.02597 1.34242
2324.97754 1.33941
2322.92910 1.33728
2320.88066 1.33525
2318.83222 1.33207
2316.78378 1.32829
2314.73534 1.32570
2312.68691 1.32448
2310.63847 1.32353
2308.59003 1.32214
2306.54159 1.31993
2304.49315 1.31755
2302.44471 1.31586
2300.39628 1.31503
2298.34784 1.31469
2296.29940 1.31420
2294.25096 1.31332
2292.20252 1.31249
2290.15408 1.31217
2288.10565 1.31179
2286.05721 1.31093
2284.00877 1.31017
2281.96033 1.31000
2279.91189 1.31048
2277.86345 1.31132
2275.81502 1.31204
2273.76658 1.31220
2271.71814 1.31173
2269.66970 1.31147
2267.62126 1.31196
2265.57282 1.31256
2263.52439 1.31250
2261.47595 1.31176
2259.42751 1.31098
2257.37907 1.31066
2255.33063 1.31078
2253.28219 1.31094
2251.23376 1.31065
2249.18532 1.30993
2247.13688 1.30948
2245.08844 1.30958
2243.04000 1.30955
2240.99156 1.30937
2238.94313 1.30941
2236.89469 1.30967
2234.84625 1.31016
2232.79781 1.31038
2230.74937 1.30980
2228.70093 1.30886
2226.65250 1.30832
2224.60406 1.30824
2222.55562 1.30820
2220.50718 1.30791
2218.45874 1.30750
2216.41030 1.30729
2214.36186 1.30725
2212.31343 1.30739
2210.26499 1.30787
2208.21655 1.30830
2206.16811 1.30835
2204.11967 1.30833
2202.07123 1.30847
2200.02280 1.30872
2197.97436 1.30894
2195.92592 1.30891
2193.87748 1.30873
2191.82904 1.30899
2189.78060 1.30947
2187.73217 1.30954
2185.68373 1.30972
2183.63529 1.31039
2181.58685 1.31080
2179.53841 1.31063
2177.48997 1.31019
2175.44154 1.30983
2173.39310 1.30996
2171.34466 1.31041
2169.29622 1.31060
2167.24778 1.31032
2165.19934 1.30964
2163.15091 1.30921
2161.10247 1.30942
2159.05403 1.30987
2157.00559 1.31025
2154.95715 1.31047
2152.90871 1.31062
2150.86028 1.31095
2148.81184 1.31147
2146.76340 1.31185
2144.71496 1.31189
2142.66652 1.31180
2140.61808 1.31193
2138.56965 1.31224
2136.52121 1.31274
2134.47277 1.31320
2132.42433 1.31303
2130.37589 1.31278
2128.32745 1.31300
2126.27902 1.31316
2124.23058 1.31329
2122.18214 1.31371
2120.13370 1.31367
2118.08526 1.31316
2116.03682 1.31299
2113.98839 1.31313
2111.93995 1.31339
2109.89151 1.31371
2107.84307 1.31365
2105.79463 1.31302
2103.74619 1.31222
2101.69776 1.31140
2099.64932 1.31058
2097.60088 1.31015
2095.55244 1.31020
2093.50400 1.31024
2091.45556 1.31007
2089.40713 1.30994
2087.35869 1.31006
2085.31025 1.31041
2083.26181 1.31059
2081.21337 1.31053
2079.16493 1.31048
2077.11649 1.31060
2075.06806 1.31112
2073.01962 1.31171
2070.97118 1.31173
2068.92274 1.31131
2066.87430 1.31103
2064.82586 1.31136
2062.77743 1.31218
2060.72899 1.31246
2058.68055 1.31154
2056.63211 1.31004
2054.58367 1.30899
2052.53523 1.30891
2050.48680 1.30965
2048.43836 1.31037
2046.38992 1.31023
2044.34148 1.30952
2042.29304 1.30900
2040.24460 1.30868
2038.19617 1.30850
2036.14773 1.30841
2034.09929 1.30800
2032.05085 1.30710
2030.00241 1.30607
2027.95397 1.30585
2025.90554 1.30675
2023.85710 1.30767
2021.80866 1.30768
2019.76022 1.30723
2017.71178 1.30701
2015.66334 1.30687
2013.61491 1.30683
2011.56647 1.30729
2009.51803 1.30766
2007.46959 1.30720
2005.42115 1.30603
2003.37271 1.30483
2001.32428 1.30458
1999.27584 1.30540
1997.22740 1.30619
1995.17896 1.30629
1993.13052 1.30605
1991.08208 1.30582
1989.03365 1.30543
1986.98521 1.30510
1984.93677 1.30514
1982.88833 1.30523
1980.83989 1.30469
1978.79145 1.30365
1976.74302 1.30305
1974.69458 1.30326
1972.64614 1.30388
1970.59770 1.30429
1968.54926 1.30442
1966.50082 1.30449
1964.45239 1.30421
1962.40395 1.30362
1960.35551 1.30310
1958.30707 1.30283
1956.25863 1.30270
1954.21019 1.30223
1952.16176 1.30121
1950.11332 1.30007
1948.06488 1.29948
1946.01644 1.29961
1943.96800 1.30007
1941.91956 1.30005
1939.87112 1.29847
1937.82269 1.29620
1935.77425 1.29516
1933.72581 1.29580
1931.67737 1.29651
1929.62893 1.29588
1927.58049 1.29483
1925.53206 1.29500
1923.48362 1.29666
1921.43518 1.29769
1919.38674 1.29743
1917.33830 1.29732
1915.28986 1.29644
1913.24143 1.29487
1911.19299 1.29445
1909.14455 1.29536
1907.09611 1.29589
1905.04767 1.29512
1902.99923 1.29387
1900.95080 1.29332
1898.90236 1.29404
1896.85392 1.29533
1894.80548 1.29568
1892.75704 1.29479
1890.70860 1.29455
1888.66017 1.29554
1886.61173 1.29571
1884.56329 1.29486
1882.51485 1.29388
1880.46641 1.29327
1878.41797 1.29316
1876.36954 1.29344
1874.32110 1.29390
1872.27266 1.29392
1870.22422 1.29448
1868.17578 1.29650
1866.12734 1.29714
1864.07891 1.29642
1862.03047 1.29611
1859.98203 1.29552
1857.93359 1.29410
1855.88515 1.29284
1853.83671 1.29286
1851.78828 1.29393
1849.73984 1.29527
1847.69140 1.29632
1845.64296 1.29690
1843.59452 1.29781
1841.54608 1.29740
1839.49765 1.29602
1837.44921 1.29585
1835.40077 1.29620
1833.35233 1.29564
1831.30389 1.29540
1829.25545 1.29650
1827.20702 1.29691
1825.15858 1.29745
1823.11014 1.29820
1821.06170 1.29707
1819.01326 1.29514
1816.96482 1.29405
1814.91639 1.29397
1812.86795 1.29510
1810.81951 1.29740
1808.77107 1.29851
1806.72263 1.29763
1804.67419 1.29660
1802.62575 1.29709
1800.57732 1.29970
1798.52888 1.30224
1796.48044 1.30319
1794.43200 1.30345
1792.38356 1.30452
1790.33512 1.30481
1788.28669 1.30312
1786.23825 1.30252
1784.18981 1.30418
1782.14137 1.30591
1780.09293 1.30627
1778.04449 1.30544
1775.99606 1.30503
1773.94762 1.30741
1771.89918 1.31278
1769.85074 1.31459
1767.80230 1.31208
1765.75386 1.30906
1763.70543 1.30830
1761.65699 1.31183
1759.60855 1.31559
1757.56011 1.31733
1755.51167 1.31888
1753.46323 1.32027
1751.41480 1.32481
1749.36636 1.33355
1747.31792 1.33943
1745.26948 1.34178
1743.22104 1.34314
1741.17260 1.34415
1739.12417 1.34512
1737.07573 1.34499
1735.02729 1.34492
1732.97885 1.34544
1730.93041 1.34219
1728.88197 1.33715
1726.83354 1.33350
1724.78510 1.33196
1722.73666 1.33115
1720.68822 1.33015
1718.63978 1.33208
1716.59134 1.33832
1714.54291 1.33800
1712.49447 1.33380
1710.44603 1.33156
1708.39759 1.33182
1706.34915 1.33416
1704.30071 1.33597
1702.25228 1.33560
1700.20384 1.33743
1698.15540 1.34057
1696.10696 1.33953
1694.05852 1.33627
1692.01008 1.33367
1689.96165 1.33324
1687.91321 1.33351
1685.86477 1.33402
1683.81633 1.33894
1681.76789 1.34055
1679.71945 1.33731
1677.67102 1.33479
1675.62258 1.33554
1673.57414 1.33780
1671.52570 1.33912
1669.47726 1.34116
1667.42882 1.34042
1665.38038 1.33781
1663.33195 1.33784
1661.28351 1.33918
1659.23507 1.33861
1657.18663 1.33820
1655.13819 1.34032
1653.08975 1.34804
1651.04132 1.35024
1648.99288 1.34849
1646.94444 1.34901
1644.89600 1.34673
1642.84756 1.34273
1640.79912 1.34113
1638.75069 1.34194
1636.70225 1.34470
1634.65381 1.34575
1632.60537 1.34299
1630.55693 1.34136
1628.50849 1.34249
1626.46006 1.34418
1624.41162 1.34526
1622.36318 1.34604
1620.31474 1.34495
1618.26630 1.34451
1616.21786 1.34641
1614.16943 1.34571
1612.12099 1.34380
1610.07255 1.34423
1608.02411 1.34553
1605.97567 1.34517
1603.92723 1.34452
1601.87880 1.34438
1599.83036 1.34357
1597.78192 1.34268
1595.73348 1.34268
1593.68504 1.34267
1591.63660 1.34240
1589.58817 1.34233
1587.53973 1.34196
1585.49129 1.34160
1583.44285 1.34179
1581.39441 1.34199
1579.34597 1.34236
1577.29754 1.34465
1575.24910 1.34681
1573.20066 1.34472
1571.15222 1.34346
1569.10378 1.34525
1567.05534 1.34590
1565.00691 1.34555
1562.95847 1.34517
1560.91003 1.34560
1558.86159 1.35387
1556.81315 1.35783
1554.76471 1.35355
1552.71628 1.35035
1550.66784 1.34839
1548.61940 1.34660
1546.57096 1.34608
1544.52252 1.34946
1542.47408 1.35641
1540.42565 1.36226
1538.37721 1.35845
1536.32877 1.35255
1534.28033 1.35012
1532.23189 1.34894
1530.18345 1.34590
1528.13501 1.34469
1526.08658 1.34672
1524.03814 1.34892
1521.98970 1.35138
1519.94126 1.35189
1517.89282 1.34995
1515.84438 1.34757
1513.79595 1.34473
1511.74751 1.34348
1509.69907 1.34537
1507.65063 1.35064
1505.60219 1.34871
1503.55375 1.34124
1501.50532 1.33664
1499.45688 1.33583
1497.40844 1.33749
1495.36000 1.33635
1493.31156 1.33319
1491.26312 1.33334
1489.21469 1.33783
1487.16625 1.33817
1485.11781 1.33461
1483.06937 1.33205
1481.02093 1.33096
1478.97249 1.33090
1476.92406 1.33338
1474.87562 1.33959
1472.82718 1.34761
1470.77874 1.35060
1468.73030 1.34966
1466.68186 1.34983
1464.63343 1.35152
1462.58499 1.35202
1460.53655 1.35285
1458.48811 1.35755
1456.43967 1.36026
1454.39123 1.35432
1452.34280 1.34965
1450.29436 1.34816
1448.24592 1.34848
1446.19748 1.34802
1444.14904 1.34622
1442.10060 1.34480
1440.05217 1.34458
1438.00373 1.34608
1435.95529 1.34832
1433.90685 1.34771
1431.85841 1.34636
1429.80997 1.34558
1427.76154 1.34387
1425.71310 1.34274
1423.66466 1.34316
1421.61622 1.34360
1419.56778 1.34497
1417.51934 1.34539
1415.47091 1.34205
1413.42247 1.33909
1411.37403 1.33814
1409.32559 1.33757
1407.27715 1.33699
1405.22871 1.33688
1403.18028 1.33630
1401.13184 1.33580
1399.08340 1.33670
1397.03496 1.33788
1394.98652 1.33712
1392.93808 1.33386
1390.88965 1.33101
1388.84121 1.33118
1386.79277 1.33299
1384.74433 1.33252
1382.69589 1.33096
1380.64745 1.33075
1378.59901 1.33165
1376.55058 1.33275
1374.50214 1.33279
1372.45370 1.33025
1370.40526 1.32734
1368.35682 1.32559
1366.30838 1.32436
1364.25995 1.32470
1362.21151 1.32621
1360.16307 1.32481
1358.11463 1.32152
1356.06619 1.31964
1354.01775 1.31956
1351.96932 1.32008
1349.92088 1.32030
1347.87244 1.31907
1345.82400 1.31634
1343.77556 1.31424
1341.72712 1.31503
1339.67869 1.31795
1337.63025 1.31840
1335.58181 1.31546
1333.53337 1.31171
1331.48493 1.30872
1329.43649 1.30745
1327.38806 1.30779
1325.33962 1.30862
1323.29118 1.30895
1321.24274 1.30911
1319.19430 1.30933
1317.14586 1.30928
1315.09743 1.30979
1313.04899 1.31130
1311.00055 1.31259
1308.95211 1.31287
1306.90367 1.31224
1304.85523 1.31151
1302.80680 1.31183
1300.75836 1.31364
1298.70992 1.31614
1296.66148 1.31768
1294.61304 1.31738
1292.56460 1.31628
1290.51617 1.31605
1288.46773 1.31688
1286.41929 1.31793
1284.37085 1.31853
1282.32241 1.31855
1280.27397 1.31815
1278.22554 1.31787
1276.17710 1.31857
1274.12866 1.32054
1272.08022 1.32333
1270.03178 1.32639
1267.98334 1.32925
1265.93491 1.33134
1263.88647 1.33297
1261.83803 1.33469
1259.78959 1.33544
1257.74115 1.33455
1255.69271 1.33294
1253.64428 1.33140
1251.59584 1.33065
1249.54740 1.33105
1247.49896 1.33229
1245.45052 1.33366
1243.40208 1.33434
1241.35364 1.33454
1239.30521 1.33461
1237.25677 1.33428
1235.20833 1.33410
1233.15989 1.33468
1231.11145 1.33551
1229.06301 1.33627
1227.01458 1.33626
1224.96614 1.33489
1222.91770 1.33358
1220.86926 1.33398
1218.82082 1.33577
1216.77238 1.33751
1214.72395 1.33799
1212.67551 1.33734
1210.62707 1.33728
1208.57863 1.33845
1206.53019 1.33992
1204.48175 1.34138
1202.43332 1.34255
1200.38488 1.34267
1198.33644 1.34203
1196.28800 1.34178
1194.23956 1.34219
1192.19112 1.34283
1190.14269 1.34298
1188.09425 1.34209
1186.04581 1.34056
1183.99737 1.33926
1181.94893 1.33890
1179.90049 1.33923
1177.85206 1.33886
1175.80362 1.33697
1173.75518 1.33442
1171.70674 1.33301
1169.65830 1.33301
1167.60986 1.33292
1165.56143 1.33165
1163.51299 1.32948
1161.46455 1.32775
1159.41611 1.32784
1157.36767 1.32926
1155.31923 1.32964
1153.27080 1.32812
1151.22236 1.32629
1149.17392 1.32570
1147.12548 1.32722
1145.07704 1.33009
1143.02860 1.33154
1140.98017 1.33037
1138.93173 1.32854
1136.88329 1.32831
1134.83485 1.33010
1132.78641 1.33245
1130.73797 1.33366
1128.68954 1.33367
1126.64110 1.33295
1124.59266 1.33230
1122.54422 1.33325
1120.49578 1.33616
1118.44734 1.33907
1116.39891 1.33976
1114.35047 1.33845
1112.30203 1.33722
1110.25359 1.33741
1108.20515 1.33932
1106.15671 1.34184
1104.10827 1.34269
1102.05984 1.34122
1100.01140 1.33925
1097.96296 1.33840
1095.91452 1.33854
1093.86608 1.33941
1091.81764 1.34097
1089.76921 1.34179
1087.72077 1.34058
1085.67233 1.33835
1083.62389 1.33693
1081.57545 1.33709
1079.52701 1.33795
1077.47858 1.33775
1075.43014 1.33640
1073.38170 1.33498
1071.33326 1.33430
1069.28482 1.33474
1067.23638 1.33540
1065.18795 1.33545
1063.13951 1.33498
1061.09107 1.33497
1059.04263 1.33675
1056.99419 1.33960
1054.94575 1.34102
1052.89732 1.34018
1050.84888 1.33871
1048.80044 1.33835
1046.75200 1.33936
1044.70356 1.34061
1042.65512 1.34016
1040.60669 1.33780
1038.55825 1.33533
1036.50981 1.33378
1034.46137 1.33319
1032.41293 1.33317
1030.36449 1.33336
1028.31606 1.33344
1026.26762 1.33268
1024.21918 1.33105
1022.17074 1.33003
1020.12230 1.33073
1018.07386 1.33204
1016.02543 1.33263
1013.97699 1.33247
1011.92855 1.33150
1009.88011 1.33031
1007.83167 1.33048
1005.78323 1.33167
1003.73480 1.33187
1001.68636 1.33070
999.63792 1.32940
997.58948 1.32907
995.54104 1.32951
993.49260 1.32916
991.44417 1.32724
989.39573 1.32548
987.34729 1.32604
985.29885 1.32792
983.25041 1.32815
981.20197 1.32577
979.15354 1.32297
977.10510 1.32252
975.05666 1.32495
973.00822 1.32808
970.95978 1.32896
968.91134 1.32647
966.86290 1.32283
964.81447 1.32208
962.76603 1.32517
960.71759 1.32800
958.66915 1.32725
956.62071 1.32388
954.57227 1.32055
952.52384 1.32018
950.47540 1.32318
948.42696 1.32597
946.37852 1.32588
944.33008 1.32457
942.28164 1.32449
940.23321 1.32577
938.18477 1.32660
936.13633 1.32569
934.08789 1.32414
932.03945 1.32413
929.99101 1.32607
927.94258 1.32756
925.89414 1.32648
923.84570 1.32402
921.79726 1.32371
919.74882 1.32732
917.70038 1.33247
915.65195 1.33527
913.60351 1.33358
911.55507 1.32977
909.50663 1.32904
907.45819 1.33370
905.40975 1.34091
903.36132 1.34456
901.31288 1.34163
899.26444 1.33683
897.21600 1.33726
895.16756 1.34386
893.11912 1.35054
891.07069 1.35157
889.02225 1.34791
886.97381 1.34498
884.92537 1.34657
882.87693 1.35164
880.82849 1.35596
878.78006 1.35619
876.73162 1.35276
874.68318 1.34937
872.63474 1.34976
870.58630 1.35346
868.53786 1.35543
866.48943 1.35297
864.44099 1.34902
862.39255 1.34770
860.34411 1.35060
858.29567 1.35592
856.24723 1.36051
854.19880 1.36153
852.15036 1.35897
850.10192 1.35752
848.05348 1.36002
846.00504 1.36442
843.95660 1.36849
841.90817 1.37041
839.85973 1.36917
837.81129 1.36729
835.76285 1.36738
833.71441 1.36873
831.66597 1.37015
829.61753 1.37154
827.56910 1.37089
825.52066 1.36575
823.47222 1.35975
821.42378 1.35942
819.37534 1.36573
817.32690 1.37169
815.27847 1.36914
813.23003 1.36023
811.18159 1.35559
809.13315 1.36096
807.08471 1.37271
805.03627 1.38164
802.98784 1.37993
800.93940 1.37145
798.89096 1.36905
796.84252 1.37948
794.79408 1.39718
792.74564 1.40923
790.69721 1.40717
788.64877 1.39686
786.60033 1.39238
784.55189 1.40230
782.50345 1.42159
780.45501 1.43525
778.40658 1.43375
776.35814 1.42354
774.30970 1.41842
772.26126 1.42440
770.21282 1.43689
768.16438 1.44779
766.11595 1.45334
764.06751 1.45544
762.01907 1.45768
759.97063 1.46311
757.92219 1.47358
755.87375 1.48859
753.82532 1.50358
751.77688 1.51048
749.72844 1.50478
747.68000 1.49499
745.63156 1.49484
743.58312 1.50581
741.53469 1.51813
739.48625 1.52379
737.43781 1.52065
735.38937 1.51218
733.34093 1.50794
731.29249 1.51383
729.24406 1.52435
727.19562 1.53208
725.14718 1.53643
723.09874 1.54000
721.05030 1.54658
719.00186 1.55805
716.95343 1.56719
714.90499 1.56653
712.85655 1.56183
710.80811 1.56420
708.75967 1.57575
706.71123 1.58806
704.66280 1.59121
702.61436 1.58642
700.56592 1.58149
698.51748 1.58037
696.46904 1.58315
694.42060 1.58586
692.37216 1.58435
690.32373 1.57655
688.27529 1.56160
686.22685 1.54545
684.17841 1.53764
682.12997 1.53970
680.08153 1.54258
678.03310 1.53879
675.98466 1.53145
673.93622 1.52519
671.88778 1.52346
669.83934 1.52672
667.79090 1.52842
665.74247 1.52558
663.69403 1.52410
661.64559 1.52628
659.59715 1.53321
657.54871 1.54364
655.50027 1.55192
653.45184 1.55455
651.40340 1.55782
649.35496 1.56321
647.30652 1.56631
645.25808 1.56474
643.20964 1.55419
641.16121 1.53630
639.11277 1.52128
637.06433 1.51386
635.01589 1.50362
632.96745 1.48085
630.91901 1.45797
628.87058 1.45045
626.82214 1.45397
624.77370 1.45697
622.72526 1.45541
620.67682 1.44626
618.62838 1.42703
616.57995 1.40753
614.53151 1.39955
612.48307 1.39999
610.43463 1.40276
608.38619 1.40647
606.33775 1.40339
604.28932 1.39050
602.24088 1.38292
600.19244 1.38156
598.14400 1.37598
