3997.26563 0.09289
3995.50781 0.09292
3993.75000 0.09312
3991.99219 0.09335
3990.23438 0.09349
3988.47656 0.09360
3986.71875 0.09363
3984.96094 0.09353
3983.20313 0.09339
3981.44531 0.09334
3979.68750 0.09334
3977.92969 0.09337
3976.17188 0.09357
3974.41406 0.09389
3972.65625 0.09391
3970.89844 0.09357
3969.14063 0.09336
3967.38281 0.09350
3965.62500 0.09375
3963.86719 0.09405
3962.10938 0.09442
3960.35156 0.09447
3958.59375 0.09409
3956.83594 0.09388
3955.07813 0.09408
3953.32031 0.09419
3951.56250 0.09403
3949.80469 0.09390
3948.04688 0.09398
3946.28906 0.09439
3944.53125 0.09495
3942.77344 0.09503
3941.01563 0.09456
3939.25781 0.09430
3937.50000 0.09458
3935.74219 0.09474
3933.98438 0.09439
3932.22656 0.09421
3930.46875 0.09448
3928.71094 0.09456
3926.95313 0.09413
3925.19531 0.09362
3923.43750 0.09335
3921.67969 0.09339
3919.92188 0.09397
3918.16406 0.09519
3916.40625 0.09645
3914.64844 0.09674
3912.89063 0.09616
3911.13281 0.09539
3909.37500 0.09469
3907.61719 0.09426
3905.85938 0.09432
3904.10156 0.09477
3902.34375 0.09491
3900.58594 0.09482
3898.82813 0.09521
3897.07031 0.09584
3895.31250 0.09593
3893.55469 0.09576
3891.79688 0.09539
3890.03906 0.09469
3888.28125 0.09439
3886.52344 0.09491
3884.76563 0.09574
3883.00781 0.09640
3881.25000 0.09656
3879.49219 0.09629
3877.73438 0.09635
3875.97656 0.09660
3874.21875 0.09606
3872.46094 0.09523
3870.70313 0.09505
3868.94531 0.09566
3867.18750 0.09708
3865.42969 0.09838
3863.67188 0.09745
3861.91406 0.09594
3860.15625 0.09511
3858.39844 0.09487
3856.64063 0.09506
3854.88281 0.09562
3853.12500 0.09647
3851.36719 0.09729
3849.60938 0.09741
3847.85156 0.09687
3846.09375 0.09621
3844.33594 0.09548
3842.57813 0.09478
3840.82031 0.09461
3839.06250 0.09500
3837.30469 0.09528
3835.54688 0.09546
3833.78906 0.09634
3832.03125 0.09712
3830.27344 0.09671
3828.51563 0.09611
3826.75781 0.09552
3825.00000 0.09479
3823.24219 0.09431
3821.48438 0.09446
3819.72656 0.09531
3817.96875 0.09600
3816.21094 0.09617
3814.45313 0.09670
3812.69531 0.09714
3810.93750 0.09654
3809.17969 0.09577
3807.42188 0.09510
3805.66406 0.09440
3803.90625 0.09396
3802.14844 0.09385
3800.39063 0.09390
3798.63281 0.09407
3796.87500 0.09423
3795.11719 0.09414
3793.35938 0.09401
3791.60156 0.09413
3789.84375 0.09406
3788.08594 0.09361
3786.32813 0.09333
3784.57031 0.09364
3782.81250 0.09439
3781.05469 0.09491
3779.29688 0.09483
3777.53906 0.09455
3775.78125 0.09429
3774.02344 0.09431
3772.26563 0.09489
3770.50781 0.09554
3768.75000 0.09553
3766.99219 0.09549
3765.23438 0.09639
3763.47656 0.09845
3761.71875 0.09966
3759.96094 0.09875
3758.20313 0.09769
3756.44531 0.09739
3754.68750 0.09723
3752.92969 0.09669
3751.17188 0.09643
3749.41406 0.09708
3747.65625 0.09840
3745.89844 0.09858
3744.14063 0.09715
3742.38281 0.09568
3740.62500 0.09497
3738.86719 0.09506
3737.10938 0.09549
3735.35156 0.09555
3733.59375 0.09523
3731.83594 0.09497
3730.07813 0.09486
3728.32031 0.09481
3726.56250 0.09495
3724.80469 0.09564
3723.04688 0.09657
3721.28906 0.09629
3719.53125 0.09509
3717.77344 0.09407
3716.01563 0.09363
3714.25781 0.09384
3712.50000 0.09417
3710.74219 0.09409
3708.98438 0.09390
3707.22656 0.09394
3705.46875 0.09436
3703.71094 0.09544
3701.95313 0.09696
3700.19531 0.09733
3698.43750 0.09619
3696.67969 0.09493
3694.92188 0.09420
3693.16406 0.09422
3691.40625 0.09492
3689.64844 0.09601
3687.89063 0.09738
3686.13281 0.09796
3684.37500 0.09740
3682.61719 0.09711
3680.85938 0.09684
3679.10156 0.09572
3677.34375 0.09456
3675.58594 0.09399
3673.82813 0.09396
3672.07031 0.09422
3670.31250 0.09482
3668.55469 0.09570
3666.79688 0.09612
3665.03906 0.09599
3663.28125 0.09654
3661.52344 0.09852
3659.76563 0.09962
3658.00781 0.09812
3656.25000 0.09642
3654.49219 0.09545
3652.73438 0.09509
3650.97656 0.09493
3649.21875 0.09475
3647.46094 0.09469
3645.70313 0.09491
3643.94531 0.09536
3642.18750 0.09631
3640.42969 0.09769
3638.67188 0.09764
3636.91406 0.09649
3635.15625 0.09578
3633.39844 0.09588
3631.64063 0.09671
3629.88281 0.09757
3628.12500 0.09771
3626.36719 0.09762
3624.60938 0.09746
3622.85156 0.09701
3621.09375 0.09659
3619.33594 0.09632
3617.57813 0.09586
3615.82031 0.09549
3614.06250 0.09571
3612.30469 0.09632
3610.54688 0.09662
3608.78906 0.09654
3607.03125 0.09646
3605.27344 0.09628
3603.51563 0.09592
3601.75781 0.09598
3600.00000 0.09698
3598.24219 0.09787
3596.48438 0.09713
3594.72656 0.09597
3592.96875 0.09556
3591.21094 0.09576
3589.45313 0.09595
3587.69531 0.09591
3585.93750 0.09583
3584.17969 0.09587
3582.42188 0.09619
3580.66406 0.09712
3578.90625 0.09856
3577.14844 0.09899
3575.39063 0.09794
3573.63281 0.09684
3571.87500 0.09623
3570.11719 0.09594
3568.35938 0.09588
3566.60156 0.09619
3564.84375 0.09673
3563.08594 0.09696
3561.32813 0.09682
3559.57031 0.09698
3557.81250 0.09743
3556.05469 0.09736
3554.29688 0.09671
3552.53906 0.09613
3550.78125 0.09590
3549.02344 0.09603
3547.26563 0.09621
3545.50781 0.09612
3543.75000 0.09603
3541.99219 0.09634
3540.23438 0.09687
3538.47656 0.09705
3536.71875 0.09689
3534.96094 0.09682
3533.20313 0.09668
3531.44531 0.09620
3529.68750 0.09569
3527.92969 0.09559
3526.17188 0.09585
3524.41406 0.09613
3522.65625 0.09627
3520.89844 0.09626
3519.14063 0.09620
3517.38281 0.09642
3515.62500 0.09686
3513.86719 0.09697
3512.10938 0.09664
3510.35156 0.09640
3508.59375 0.09648
3506.83594 0.09665
3505.07813 0.09662
3503.32031 0.09645
3501.56250 0.09645
3499.80469 0.09662
3498.04688 0.09661
3496.28906 0.09649
3494.53125 0.09673
3492.77344 0.09734
3491.01563 0.09761
3489.25781 0.09732
3487.50000 0.09696
3485.74219 0.09674
3483.98438 0.09671
3482.22656 0.09698
3480.46875 0.09731
3478.71094 0.09749
3476.95313 0.09763
3475.19531 0.09791
3473.43750 0.09821
3471.67969 0.09830
3469.92188 0.09818
3468.16406 0.09807
3466.40625 0.09796
3464.64844 0.09786
3462.89063 0.09800
3461.13281 0.09847
3459.37500 0.09905
3457.61719 0.09933
3455.85938 0.09920
3454.10156 0.09901
3452.34375 0.09901
3450.58594 0.09917
3448.82813 0.09940
3447.07031 0.09967
3445.31250 0.10003
3443.55469 0.10056
3441.79688 0.10117
3440.03906 0.10168
3438.28125 0.10198
3436.52344 0.10190
3434.76563 0.10156
3433.00781 0.10126
3431.25000 0.10104
3429.49219 0.10065
3427.73438 0.10016
3425.97656 0.09981
3424.21875 0.09972
3422.46094 0.09971
3420.70313 0.09955
3418.94531 0.09931
3417.18750 0.09921
3415.42969 0.09925
3413.67188 0.09927
3411.91406 0.09924
3410.15625 0.09915
3408.39844 0.09894
3406.64063 0.09876
3404.88281 0.09876
3403.12500 0.09870
3401.36719 0.09841
3399.60938 0.09818
3397.85156 0.09825
3396.09375 0.09839
3394.33594 0.09831
3392.57813 0.09798
3390.82031 0.09759
3389.06250 0.09747
3387.30469 0.09774
3385.54688 0.09810
3383.78906 0.09834
3382.03125 0.09851
3380.27344 0.09868
3378.51563 0.09869
3376.75781 0.09845
3375.00000 0.09820
3373.24219 0.09830
3371.48438 0.09856
3369.72656 0.09856
3367.96875 0.09828
3366.21094 0.09807
3364.45313 0.09816
3362.69531 0.09850
3360.93750 0.09875
3359.17969 0.09871
3357.42188 0.09851
3355.66406 0.09825
3353.90625 0.09797
3352.14844 0.09791
3350.39063 0.09812
3348.63281 0.09831
3346.87500 0.09825
3345.11719 0.09797
3343.35938 0.09766
3341.60156 0.09748
3339.84375 0.09743
3338.08594 0.09748
3336.32813 0.09761
3334.57031 0.09767
3332.81250 0.09750
3331.05469 0.09723
3329.29688 0.09722
3327.53906 0.09740
3325.78125 0.09753
3324.02344 0.09762
3322.26563 0.09764
3320.50781 0.09759
3318.75000 0.09764
3316.99219 0.09781
3315.23438 0.09791
3313.47656 0.09783
3311.71875 0.09772
3309.96094 0.09773
3308.20313 0.09775
3306.44531 0.09772
3304.68750 0.09774
3302.92969 0.09776
3301.17188 0.09762
3299.41406 0.09744
3297.65625 0.09739
3295.89844 0.09746
3294.14063 0.09756
3292.38281 0.09762
3290.62500 0.09765
3288.86719 0.09763
3287.10938 0.09759
3285.35156 0.09766
3283.59375 0.09795
3281.83594 0.09832
3280.07813 0.09840
3278.32031 0.09814
3276.56250 0.09788
3274.80469 0.09785
3273.04688 0.09789
3271.28906 0.09781
3269.53125 0.09778
3267.77344 0.09789
3266.01563 0.09801
3264.25781 0.09807
3262.50000 0.09805
3260.74219 0.09790
3258.98438 0.09768
3257.22656 0.09755
3255.46875 0.09747
3253.71094 0.09740
3251.95313 0.09756
3250.19531 0.09790
3248.43750 0.09794
3246.67969 0.09760
3244.92188 0.09728
3243.16406 0.09718
3241.40625 0.09721
3239.64844 0.09728
3237.89063 0.09742
3236.13281 0.09756
3234.37500 0.09757
3232.61719 0.09747
3230.85938 0.09749
3229.10156 0.09773
3227.34375 0.09786
3225.58594 0.09766
3223.82813 0.09732
3222.07031 0.09714
3220.31250 0.09713
3218.55469 0.09710
3216.79688 0.09694
3215.03906 0.09674
3213.28125 0.09667
3211.52344 0.09683
3209.76563 0.09708
3208.00781 0.09712
3206.25000 0.09703
3204.49219 0.09702
3202.73438 0.09708
3200.97656 0.09711
3199.21875 0.09713
3197.46094 0.09716
3195.70313 0.09716
3193.94531 0.09708
3192.18750 0.09698
3190.42969 0.09694
3188.67188 0.09698
3186.91406 0.09703
3185.15625 0.09697
3183.39844 0.09685
3181.64063 0.09676
3179.88281 0.09662
3178.12500 0.09639
3176.36719 0.09622
3174.60938 0.09621
3172.85156 0.09629
3171.09375 0.09635
3169.33594 0.09630
3167.57813 0.09622
3165.82031 0.09619
3164.06250 0.09618
3162.30469 0.09617
3160.54688 0.09622
3158.78906 0.09628
3157.03125 0.09630
3155.27344 0.09629
3153.51563 0.09621
3151.75781 0.09610
3150.00000 0.09607
3148.24219 0.09615
3146.48438 0.09626
3144.72656 0.09624
3142.96875 0.09607
3141.21094 0.09583
3139.45313 0.09567
3137.69531 0.09565
3135.93750 0.09568
3134.17969 0.09575
3132.42188 0.09589
3130.66406 0.09603
3128.90625 0.09600
3127.14844 0.09580
3125.39063 0.09561
3123.63281 0.09552
3121.87500 0.09544
3120.11719 0.09538
3118.35938 0.09543
3116.60156 0.09548
3114.84375 0.09539
3113.08594 0.09524
3111.32813 0.09515
3109.57031 0.09505
3107.81250 0.09496
3106.05469 0.09499
3104.29688 0.09520
3102.53906 0.09540
3100.78125 0.09541
3099.02344 0.09534
3097.26563 0.09526
3095.50781 0.09511
3093.75000 0.09492
3091.99219 0.09489
3090.23438 0.09500
3088.47656 0.09506
3086.71875 0.09500
3084.96094 0.09495
3083.20313 0.09494
3081.44531 0.09490
3079.68750 0.09482
3077.92969 0.09484
3076.17188 0.09490
3074.41406 0.09487
3072.65625 0.09478
3070.89844 0.09473
3069.14063 0.09477
3067.38281 0.09480
3065.62500 0.09477
3063.86719 0.09468
3062.10938 0.09465
3060.35156 0.09467
3058.59375 0.09462
3056.83594 0.09457
3055.07813 0.09462
3053.32031 0.09475
3051.56250 0.09487
3049.80469 0.09496
3048.04688 0.09493
3046.28906 0.09480
3044.53125 0.09472
3042.77344 0.09473
3041.01563 0.09469
3039.25781 0.09461
3037.50000 0.09457
3035.74219 0.09462
3033.98438 0.09466
3032.22656 0.09462
3030.46875 0.09455
3028.71094 0.09458
3026.95313 0.09476
3025.19531 0.09509
3023.43750 0.09540
3021.67969 0.09548
3019.92188 0.09538
3018.16406 0.09527
3016.40625 0.09518
3014.64844 0.09507
3012.89063 0.09499
3011.13281 0.09497
3009.37500 0.09507
3007.61719 0.09526
3005.85938 0.09542
3004.10156 0.09548
3002.34375 0.09551
3000.58594 0.09559
2998.82813 0.09567
2997.07031 0.09568
2995.31250 0.09568
2993.55469 0.09576
2991.79688 0.09587
2990.03906 0.09600
2988.28125 0.09617
2986.52344 0.09640
2984.76563 0.09667
2983.00781 0.09697
2981.25000 0.09729
2979.49219 0.09761
2977.73438 0.09800
2975.97656 0.09850
2974.21875 0.09909
2972.46094 0.09963
2970.70313 0.10000
2968.94531 0.10022
2967.18750 0.10034
2965.42969 0.10033
2963.67188 0.10019
2961.91406 0.10003
2960.15625 0.09996
2958.39844 0.10005
2956.64063 0.10024
2954.88281 0.10041
2953.12500 0.10060
2951.36719 0.10096
2949.60938 0.10153
2947.85156 0.10222
2946.09375 0.10296
2944.33594 0.10374
2942.57813 0.10455
2940.82031 0.10536
2939.06250 0.10610
2937.30469 0.10665
2935.54688 0.10688
2933.78906 0.10682
2932.03125 0.10653
2930.27344 0.10602
2928.51563 0.10533
2926.75781 0.10452
2925.00000 0.10371
2923.24219 0.10307
2921.48438 0.10260
2919.72656 0.10208
2917.96875 0.10147
2916.21094 0.10095
2914.45313 0.10061
2912.69531 0.10038
2910.93750 0.10016
2909.17969 0.09989
2907.42188 0.09960
2905.66406 0.09929
2903.90625 0.09899
2902.14844 0.09874
2900.39063 0.09850
2898.63281 0.09824
2896.87500 0.09801
2895.11719 0.09789
2893.35938 0.09784
2891.60156 0.09773
2889.84375 0.09758
2888.08594 0.09755
2886.32813 0.09769
2884.57031 0.09791
2882.81250 0.09811
2881.05469 0.09832
2879.29688 0.09846
2877.53906 0.09847
2875.78125 0.09844
2874.02344 0.09863
2872.26563 0.09911
2870.50781 0.09967
2868.75000 0.10015
2866.99219 0.10056
2865.23438 0.10084
2863.47656 0.10088
2861.71875 0.10066
2859.96094 0.10025
2858.20313 0.09972
2856.44531 0.09913
2854.68750 0.09845
2852.92969 0.09773
2851.17188 0.09716
2849.41406 0.09673
2847.65625 0.09634
2845.89844 0.09598
2844.14063 0.09566
2842.38281 0.09536
2840.62500 0.09516
2838.86719 0.09510
2837.10938 0.09506
2835.35156 0.09500
2833.59375 0.09498
2831.83594 0.09496
2830.07813 0.09487
2828.32031 0.09471
2826.56250 0.09450
2824.80469 0.09430
2823.04688 0.09424
2821.28906 0.09426
2819.53125 0.09421
2817.77344 0.09409
2816.01563 0.09404
2814.25781 0.09411
2812.50000 0.09419
2810.74219 0.09412
2808.98438 0.09396
2807.22656 0.09384
2805.46875 0.09383
2803.71094 0.09390
2801.95313 0.09402
2800.19531 0.09414
2798.43750 0.09422
2796.67969 0.09420
2794.92188 0.09411
2793.16406 0.09403
2791.40625 0.09397
2789.64844 0.09392
2787.89063 0.09385
2786.13281 0.09377
2784.37500 0.09371
2782.61719 0.09369
2780.85938 0.09374
2779.10156 0.09382
2777.34375 0.09379
2775.58594 0.09365
2773.82813 0.09350
2772.07031 0.09341
2770.31250 0.09339
2768.55469 0.09344
2766.79688 0.09354
2765.03906 0.09362
2763.28125 0.09364
2761.52344 0.09361
2759.76563 0.09352
2758.00781 0.09345
2756.25000 0.09346
2754.49219 0.09349
2752.73438 0.09350
2750.97656 0.09351
2749.21875 0.09351
2747.46094 0.09348
2745.70313 0.09342
2743.94531 0.09338
2742.18750 0.09343
2740.42969 0.09352
2738.67188 0.09357
2736.91406 0.09360
2735.15625 0.09361
2733.39844 0.09359
2731.64063 0.09359
2729.88281 0.09365
2728.12500 0.09364
2726.36719 0.09352
2724.60938 0.09340
2722.85156 0.09333
2721.09375 0.09330
2719.33594 0.09328
2717.57813 0.09326
2715.82031 0.09324
2714.06250 0.09321
2712.30469 0.09320
2710.54688 0.09323
2708.78906 0.09327
2707.03125 0.09327
2705.27344 0.09323
2703.51563 0.09316
2701.75781 0.09316
2700.00000 0.09325
2698.24219 0.09331
2696.48438 0.09325
2694.72656 0.09310
2692.96875 0.09301
2691.21094 0.09300
2689.45313 0.09302
2687.69531 0.09303
2685.93750 0.09310
2684.17969 0.09318
2682.42188 0.09316
2680.66406 0.09301
2678.90625 0.09287
2677.14844 0.09287
2675.39063 0.09304
2673.63281 0.09325
2671.87500 0.09327
2670.11719 0.09310
2668.35938 0.09293
2666.60156 0.09286
2664.84375 0.09284
2663.08594 0.09281
2661.32813 0.09281
2659.57031 0.09283
2657.81250 0.09284
2656.05469 0.09283
2654.29688 0.09283
2652.53906 0.09284
2650.78125 0.09289
2649.02344 0.09296
2647.26563 0.09303
2645.50781 0.09300
2643.75000 0.09290
2641.99219 0.09286
2640.23438 0.09287
2638.47656 0.09278
2636.71875 0.09270
2634.96094 0.09271
2633.20313 0.09275
2631.44531 0.09271
2629.68750 0.09267
2627.92969 0.09271
2626.17188 0.09277
2624.41406 0.09273
2622.65625 0.09257
2620.89844 0.09242
2619.14063 0.09238
2617.38281 0.09246
2615.62500 0.09261
2613.86719 0.09268
2612.10938 0.09262
2610.35156 0.09253
2608.59375 0.09249
2606.83594 0.09253
2605.07813 0.09257
2603.32031 0.09254
2601.56250 0.09246
2599.80469 0.09241
2598.04688 0.09241
2596.28906 0.09246
2594.53125 0.09254
2592.77344 0.09259
2591.01563 0.09257
2589.25781 0.09256
2587.50000 0.09261
2585.74219 0.09267
2583.98438 0.09260
2582.22656 0.09240
2580.46875 0.09224
2578.71094 0.09222
2576.95313 0.09231
2575.19531 0.09243
2573.43750 0.09255
2571.67969 0.09266
2569.92188 0.09270
2568.16406 0.09264
2566.40625 0.09257
2564.64844 0.09254
2562.89063 0.09251
2561.13281 0.09245
2559.37500 0.09239
2557.61719 0.09232
2555.85938 0.09222
2554.10156 0.09210
2552.34375 0.09203
2550.58594 0.09203
2548.82813 0.09212
2547.07031 0.09225
2545.31250 0.09233
2543.55469 0.09232
2541.79688 0.09230
2540.03906 0.09235
2538.28125 0.09239
2536.52344 0.09237
2534.76563 0.09232
2533.00781 0.09227
2531.25000 0.09221
2529.49219 0.09217
2527.73438 0.09214
2525.97656 0.09209
2524.21875 0.09202
2522.46094 0.09203
2520.70313 0.09213
2518.94531 0.09222
2517.18750 0.09225
2515.42969 0.09228
2513.67188 0.09232
2511.91406 0.09234
2510.15625 0.09237
2508.39844 0.09243
2506.64063 0.09249
2504.88281 0.09250
2503.12500 0.09243
2501.36719 0.09232
2499.60938 0.09226
2497.85156 0.09227
2496.09375 0.09231
2494.33594 0.09233
2492.57813 0.09229
2490.82031 0.09223
2489.06250 0.09219
2487.30469 0.09217
2485.54688 0.09216
2483.78906 0.09218
2482.03125 0.09221
2480.27344 0.09222
2478.51563 0.09219
2476.75781 0.09211
2475.00000 0.09202
2473.24219 0.09196
2471.48438 0.09194
2469.72656 0.09198
2467.96875 0.09198
2466.21094 0.09187
2464.45313 0.09172
2462.69531 0.09167
2460.93750 0.09175
2459.17969 0.09187
2457.42188 0.09197
2455.66406 0.09202
2453.90625 0.09199
2452.14844 0.09191
2450.39063 0.09188
2448.63281 0.09190
2446.87500 0.09191
2445.11719 0.09189
2443.35938 0.09185
2441.60156 0.09186
2439.84375 0.09190
2438.08594 0.09195
2436.32813 0.09196
2434.57031 0.09194
2432.81250 0.09190
2431.05469 0.09188
2429.29688 0.09189
2427.53906 0.09189
2425.78125 0.09186
2424.02344 0.09180
2422.26563 0.09171
2420.50781 0.09156
2418.75000 0.09148
2416.99219 0.09160
2415.23438 0.09180
2413.47656 0.09188
2411.71875 0.09180
2409.96094 0.09174
2408.20313 0.09179
2406.44531 0.09189
2404.68750 0.09189
2402.92969 0.09178
2401.17188 0.09164
2399.41406 0.09158
2397.65625 0.09158
2395.89844 0.09158
2394.14063 0.09156
2392.38281 0.09148
2390.62500 0.09127
2388.86719 0.09093
2387.10938 0.09058
2385.35156 0.09019
2383.59375 0.08966
2381.83594 0.08901
2380.07813 0.08830
2378.32031 0.08756
2376.56250 0.08697
2374.80469 0.08663
2373.04688 0.08626
2371.28906 0.08555
2369.53125 0.08465
2367.77344 0.08408
2366.01563 0.08441
2364.25781 0.08561
2362.50000 0.08692
2360.74219 0.08795
2358.98438 0.08866
2357.22656 0.08893
2355.46875 0.08881
2353.71094 0.08840
2351.95313 0.08784
2350.19531 0.08753
2348.43750 0.08755
2346.67969 0.08744
2344.92188 0.08707
2343.16406 0.08687
2341.40625 0.08696
2339.64844 0.08704
2337.89063 0.08712
2336.13281 0.08747
2334.37500 0.08796
2332.61719 0.08831
2330.85938 0.08852
2329.10156 0.08872
2327.34375 0.08898
2325.58594 0.08920
2323.82813 0.08937
2322.07031 0.08954
2320.31250 0.08976
2318.55469 0.09000
2316.79688 0.09025
2315.03906 0.09058
2313.28125 0.09100
2311.52344 0.09138
2309.76563 0.09155
2308.00781 0.09146
2306.25000 0.09124
2304.49219 0.09103
2302.73438 0.09095
2300.97656 0.09103
2299.21875 0.09115
2297.46094 0.09117
2295.70313 0.09112
2293.94531 0.09114
2292.18750 0.09122
2290.42969 0.09130
2288.67188 0.09136
2286.91406 0.09143
2285.15625 0.09145
2283.39844 0.09138
2281.64063 0.09128
2279.88281 0.09122
2278.12500 0.09118
2276.36719 0.09112
2274.60938 0.09112
2272.85156 0.09119
2271.09375 0.09122
2269.33594 0.09122
2267.57813 0.09125
2265.82031 0.09131
2264.06250 0.09131
2262.30469 0.09120
2260.54688 0.09110
2258.78906 0.09112
2257.03125 0.09117
2255.27344 0.09123
2253.51563 0.09132
2251.75781 0.09139
2250.00000 0.09137
2248.24219 0.09129
2246.48438 0.09123
2244.72656 0.09122
2242.96875 0.09124
2241.21094 0.09124
2239.45313 0.09120
2237.69531 0.09121
2235.93750 0.09132
2234.17969 0.09143
2232.42188 0.09147
2230.66406 0.09141
2228.90625 0.09130
2227.14844 0.09120
2225.39063 0.09119
2223.63281 0.09129
2221.87500 0.09140
2220.11719 0.09136
2218.35938 0.09122
2216.60156 0.09111
2214.84375 0.09108
2213.08594 0.09110
2211.32813 0.09113
2209.57031 0.09114
2207.81250 0.09117
2206.05469 0.09121
2204.29688 0.09126
2202.53906 0.09131
2200.78125 0.09137
2199.02344 0.09135
2197.26563 0.09125
2195.50781 0.09118
2193.75000 0.09121
2191.99219 0.09122
2190.23438 0.09110
2188.47656 0.09094
2186.71875 0.09094
2184.96094 0.09107
2183.20313 0.09118
2181.44531 0.09121
2179.68750 0.09118
2177.92969 0.09118
2176.17188 0.09122
2174.41406 0.09120
2172.65625 0.09111
2170.89844 0.09110
2169.14063 0.09123
2167.38281 0.09139
2165.62500 0.09144
2163.86719 0.09140
2162.10938 0.09133
2160.35156 0.09129
2158.59375 0.09128
2156.83594 0.09126
2155.07813 0.09126
2153.32031 0.09127
2151.56250 0.09130
2149.80469 0.09135
2148.04688 0.09141
2146.28906 0.09143
2144.53125 0.09146
2142.77344 0.09158
2141.01563 0.09168
2139.25781 0.09162
2137.50000 0.09146
2135.74219 0.09135
2133.98438 0.09131
2132.22656 0.09127
2130.46875 0.09125
2128.71094 0.09125
2126.95313 0.09127
2125.19531 0.09129
2123.43750 0.09134
2121.67969 0.09142
2119.92188 0.09145
2118.16406 0.09136
2116.40625 0.09124
2114.64844 0.09121
2112.89063 0.09128
2111.13281 0.09135
2109.37500 0.09138
2107.61719 0.09135
2105.85938 0.09130
2104.10156 0.09126
2102.34375 0.09128
2100.58594 0.09132
2098.82813 0.09140
2097.07031 0.09150
2095.31250 0.09151
2093.55469 0.09142
2091.79688 0.09136
2090.03906 0.09139
2088.28125 0.09145
2086.52344 0.09147
2084.76563 0.09141
2083.00781 0.09137
2081.25000 0.09143
2079.49219 0.09155
2077.73438 0.09165
2075.97656 0.09166
2074.21875 0.09169
2072.46094 0.09178
2070.70313 0.09179
2068.94531 0.09170
2067.18750 0.09162
2065.42969 0.09161
2063.67188 0.09158
2061.91406 0.09156
2060.15625 0.09163
2058.39844 0.09173
2056.64063 0.09179
2054.88281 0.09181
2053.12500 0.09182
2051.36719 0.09183
2049.60938 0.09185
2047.85156 0.09184
2046.09375 0.09178
2044.33594 0.09171
2042.57813 0.09167
2040.82031 0.09166
2039.06250 0.09164
2037.30469 0.09163
2035.54688 0.09168
2033.78906 0.09177
2032.03125 0.09188
2030.27344 0.09200
2028.51563 0.09209
2026.75781 0.09215
2025.00000 0.09217
2023.24219 0.09210
2021.48438 0.09190
2019.72656 0.09174
2017.96875 0.09172
2016.21094 0.09179
2014.45313 0.09185
2012.69531 0.09186
2010.93750 0.09183
2009.17969 0.09181
2007.42188 0.09186
2005.66406 0.09196
2003.90625 0.09203
2002.14844 0.09211
2000.39063 0.09230
1998.63281 0.09254
1996.87500 0.09259
1995.11719 0.09241
1993.35938 0.09218
1991.60156 0.09203
1989.84375 0.09197
1988.08594 0.09191
1986.32813 0.09185
1984.57031 0.09184
1982.81250 0.09188
1981.05469 0.09198
1979.29688 0.09209
1977.53906 0.09213
1975.78125 0.09224
1974.02344 0.09249
1972.26563 0.09260
1970.50781 0.09240
1968.75000 0.09216
1966.99219 0.09206
1965.23438 0.09200
1963.47656 0.09198
1961.71875 0.09207
1959.96094 0.09216
1958.20313 0.09214
1956.44531 0.09213
1954.68750 0.09229
1952.92969 0.09257
1951.17188 0.09296
1949.41406 0.09334
1947.65625 0.09335
1945.89844 0.09296
1944.14063 0.09259
1942.38281 0.09245
1940.62500 0.09243
1938.86719 0.09235
1937.10938 0.09224
1935.35156 0.09222
1933.59375 0.09234
1931.83594 0.09259
1930.07813 0.09293
1928.32031 0.09314
1926.56250 0.09314
1924.80469 0.09312
1923.04688 0.09303
1921.28906 0.09278
1919.53125 0.09261
1917.77344 0.09276
1916.01563 0.09307
1914.25781 0.09316
1912.50000 0.09295
1910.74219 0.09270
1908.98438 0.09259
1907.22656 0.09253
1905.46875 0.09250
1903.71094 0.09262
1901.95313 0.09286
1900.19531 0.09298
1898.43750 0.09300
1896.67969 0.09312
1894.92188 0.09321
1893.16406 0.09311
1891.40625 0.09303
1889.64844 0.09301
1887.89063 0.09292
1886.13281 0.09283
1884.37500 0.09279
1882.61719 0.09276
1880.85938 0.09273
1879.10156 0.09285
1877.34375 0.09335
1875.58594 0.09424
1873.82813 0.09473
1872.07031 0.09421
1870.31250 0.09337
1868.55469 0.09286
1866.79688 0.09278
1865.03906 0.09289
1863.28125 0.09298
1861.52344 0.09300
1859.76563 0.09304
1858.00781 0.09312
1856.25000 0.09328
1854.49219 0.09354
1852.73438 0.09394
1850.97656 0.09448
1849.21875 0.09465
1847.46094 0.09415
1845.70313 0.09367
1843.94531 0.09358
1842.18750 0.09359
1840.42969 0.09351
1838.67188 0.09367
1836.91406 0.09425
1835.15625 0.09471
1833.39844 0.09456
1831.64063 0.09431
1829.88281 0.09413
1828.12500 0.09380
1826.36719 0.09345
1824.60938 0.09331
1822.85156 0.09330
1821.09375 0.09333
1819.33594 0.09349
1817.57813 0.09389
1815.82031 0.09419
1814.06250 0.09404
1812.30469 0.09369
1810.54688 0.09357
1808.78906 0.09386
1807.03125 0.09435
1805.27344 0.09457
1803.51563 0.09457
1801.75781 0.09470
1800.00000 0.09506
1798.24219 0.09545
1796.48438 0.09523
1794.72656 0.09452
1792.96875 0.09403
1791.21094 0.09394
1789.45313 0.09406
1787.69531 0.09428
1785.93750 0.09445
1784.17969 0.09441
1782.42188 0.09440
1780.66406 0.09486
1778.90625 0.09585
1777.14844 0.09647
1775.39063 0.09605
1773.63281 0.09536
1771.87500 0.09492
1770.11719 0.09483
1768.35938 0.09518
1766.60156 0.09557
1764.84375 0.09569
1763.08594 0.09579
1761.32813 0.09594
1759.57031 0.09618
1757.81250 0.09697
1756.05469 0.09843
1754.29688 0.09950
1752.53906 0.09952
1750.78125 0.09915
1749.02344 0.09884
1747.26563 0.09867
1745.50781 0.09859
1743.75000 0.09842
1741.99219 0.09839
1740.23438 0.09896
1738.47656 0.09938
1736.71875 0.09859
1734.96094 0.09737
1733.20313 0.09641
1731.44531 0.09597
1729.68750 0.09596
1727.92969 0.09607
1726.17188 0.09635
1724.41406 0.09734
1722.65625 0.09896
1720.89844 0.09913
1719.14063 0.09781
1717.38281 0.09654
1715.62500 0.09586
1713.86719 0.09589
1712.10938 0.09656
1710.35156 0.09718
1708.59375 0.09729
1706.83594 0.09756
1705.07813 0.09843
1703.32031 0.09887
1701.56250 0.09816
1699.80469 0.09684
1698.04688 0.09595
1696.28906 0.09585
1694.53125 0.09624
1692.77344 0.09673
1691.01563 0.09758
1689.25781 0.09870
1687.50000 0.09844
1685.74219 0.09739
1683.98438 0.09659
1682.22656 0.09636
1680.46875 0.09665
1678.71094 0.09699
1676.95313 0.09736
1675.19531 0.09765
1673.43750 0.09699
1671.67969 0.09600
1669.92188 0.09571
1668.16406 0.09594
1666.40625 0.09574
1664.64844 0.09525
1662.89063 0.09525
1661.13281 0.09600
1659.37500 0.09754
1657.61719 0.09833
1655.85938 0.09770
1654.10156 0.09760
1652.34375 0.09782
1650.58594 0.09683
1648.82813 0.09537
1647.07031 0.09457
1645.31250 0.09454
1643.55469 0.09524
1641.79688 0.09630
1640.03906 0.09600
1638.28125 0.09448
1636.52344 0.09352
1634.76563 0.09338
1633.00781 0.09368
1631.25000 0.09393
1629.49219 0.09415
1627.73438 0.09409
1625.97656 0.09361
1624.21875 0.09344
1622.46094 0.09398
1620.70313 0.09446
1618.94531 0.09435
1617.18750 0.09444
1615.42969 0.09509
1613.67188 0.09602
1611.91406 0.09685
1610.15625 0.09755
1608.39844 0.09822
1606.64063 0.09874
1604.88281 0.09908
1603.12500 0.09948
1601.36719 0.10005
1599.60938 0.10056
1597.85156 0.10078
1596.09375 0.10081
1594.33594 0.10078
1592.57813 0.10076
1590.82031 0.10083
1589.06250 0.10106
1587.30469 0.10138
1585.54688 0.10175
1583.78906 0.10242
1582.03125 0.10360
1580.27344 0.10417
1578.51563 0.10371
1576.75781 0.10365
1575.00000 0.10435
1573.24219 0.10478
1571.48438 0.10462
1569.72656 0.10455
1567.96875 0.10469
1566.21094 0.10530
1564.45313 0.10723
1562.69531 0.10872
1560.93750 0.10783
1559.17969 0.10689
1557.42188 0.10647
1555.66406 0.10648
1553.90625 0.10659
1552.14844 0.10688
1550.39063 0.10790
1548.63281 0.10991
1546.87500 0.11221
1545.11719 0.11296
1543.35938 0.11126
1541.60156 0.11002
1539.84375 0.11000
1538.08594 0.11042
1536.32813 0.11023
1534.57031 0.11006
1532.81250 0.11076
1531.05469 0.11207
1529.29688 0.11320
1527.53906 0.11435
1525.78125 0.11533
1524.02344 0.11546
1522.26563 0.11530
1520.50781 0.11498
1518.75000 0.11462
1516.99219 0.11481
1515.23438 0.11592
1513.47656 0.11801
1511.71875 0.11946
1509.96094 0.11764
1508.20313 0.11595
1506.44531 0.11553
1504.68750 0.11601
1502.92969 0.11695
1501.17188 0.11732
1499.41406 0.11681
1497.65625 0.11656
1495.89844 0.11739
1494.14063 0.11875
1492.38281 0.11872
1490.62500 0.11761
1488.86719 0.11679
1487.10938 0.11651
1485.35156 0.11644
1483.59375 0.11647
1481.83594 0.11689
1480.07813 0.11791
1478.32031 0.11906
1476.56250 0.11911
1474.80469 0.11826
1473.04688 0.11786
1471.28906 0.11824
1469.53125 0.11872
1467.77344 0.11849
1466.01563 0.11815
1464.25781 0.11868
1462.50000 0.12023
1460.74219 0.12051
1458.98438 0.11915
1457.22656 0.11818
1455.46875 0.11798
1453.71094 0.11842
1451.95313 0.11902
1450.19531 0.11930
1448.43750 0.11949
1446.67969 0.11993
1444.92188 0.12063
1443.16406 0.12173
1441.40625 0.12325
1439.64844 0.12416
1437.89063 0.12429
1436.13281 0.12453
1434.37500 0.12498
1432.61719 0.12529
1430.85938 0.12562
1429.10156 0.12623
1427.34375 0.12682
1425.58594 0.12730
1423.82813 0.12788
1422.07031 0.12781
1420.31250 0.12686
1418.55469 0.12589
1416.79688 0.12514
1415.03906 0.12431
1413.28125 0.12327
1411.52344 0.12232
1409.76563 0.12140
1408.00781 0.12027
1406.25000 0.11925
1404.49219 0.11865
1402.73438 0.11816
1400.97656 0.11732
1399.21875 0.11589
1397.46094 0.11414
1395.70313 0.11281
1393.94531 0.11216
1392.18750 0.11182
1390.42969 0.11107
1388.67188 0.10994
1386.91406 0.10896
1385.15625 0.10834
1383.39844 0.10794
1381.64063 0.10766
1379.88281 0.10740
1378.12500 0.10678
1376.36719 0.10577
1374.60938 0.10488
1372.85156 0.10431
1371.09375 0.10391
1369.33594 0.10378
1367.57813 0.10385
1365.82031 0.10353
1364.06250 0.10269
1362.30469 0.10193
1360.54688 0.10151
1358.78906 0.10128
1357.03125 0.10107
1355.27344 0.10083
1353.51563 0.10058
1351.75781 0.10037
1350.00000 0.10022
1348.24219 0.10019
1346.48438 0.10042
1344.72656 0.10089
1342.96875 0.10100
1341.21094 0.10044
1339.45313 0.09967
1337.69531 0.09900
1335.93750 0.09844
1334.17969 0.09795
1332.42188 0.09752
1330.66406 0.09714
1328.90625 0.09681
1327.14844 0.09656
1325.39063 0.09647
1323.63281 0.09645
1321.87500 0.09635
1320.11719 0.09630
1318.35938 0.09655
1316.60156 0.09706
1314.84375 0.09758
1313.08594 0.09799
1311.32813 0.09829
1309.57031 0.09846
1307.81250 0.09853
1306.05469 0.09857
1304.29688 0.09859
1302.53906 0.09854
1300.78125 0.09849
1299.02344 0.09846
1297.26563 0.09846
1295.50781 0.09853
1293.75000 0.09864
1291.99219 0.09868
1290.23438 0.09857
1288.47656 0.09843
1286.71875 0.09839
1284.96094 0.09843
1283.20313 0.09848
1281.44531 0.09855
1279.68750 0.09866
1277.92969 0.09885
1276.17188 0.09914
1274.41406 0.09947
1272.65625 0.09982
1270.89844 0.10026
1269.14063 0.10082
1267.38281 0.10135
1265.62500 0.10169
1263.86719 0.10170
1262.10938 0.10137
1260.35156 0.10086
1258.59375 0.10033
1256.83594 0.09994
1255.07813 0.09976
1253.32031 0.09966
1251.56250 0.09954
1249.80469 0.09937
1248.04688 0.09918
1246.28906 0.09900
1244.53125 0.09891
1242.77344 0.09893
1241.01563 0.09902
1239.25781 0.09915
1237.50000 0.09931
1235.74219 0.09942
1233.98438 0.09947
1232.22656 0.09950
1230.46875 0.09953
1228.71094 0.09952
1226.95313 0.09946
1225.19531 0.09937
1223.43750 0.09935
1221.67969 0.09937
1219.92188 0.09936
1218.16406 0.09932
1216.40625 0.09936
1214.64844 0.09948
1212.89063 0.09958
1211.13281 0.09963
1209.37500 0.09968
1207.61719 0.09975
1205.85938 0.09981
1204.10156 0.09985
1202.34375 0.09987
1200.58594 0.09989
1198.82813 0.09995
1197.07031 0.10004
1195.31250 0.10015
1193.55469 0.10027
1191.79688 0.10034
1190.03906 0.10038
1188.28125 0.10046
1186.52344 0.10066
1184.76563 0.10097
1183.00781 0.10126
1181.25000 0.10144
1179.49219 0.10161
1177.73438 0.10189
1175.97656 0.10218
1174.21875 0.10236
1172.46094 0.10247
1170.70313 0.10260
1168.94531 0.10277
1167.18750 0.10297
1165.42969 0.10315
1163.67188 0.10327
1161.91406 0.10336
1160.15625 0.10351
1158.39844 0.10371
1156.64063 0.10391
1154.88281 0.10410
1153.12500 0.10432
1151.36719 0.10460
1149.60938 0.10488
1147.85156 0.10514
1146.09375 0.10536
1144.33594 0.10552
1142.57813 0.10562
1140.82031 0.10574
1139.06250 0.10592
1137.30469 0.10612
1135.54688 0.10629
1133.78906 0.10647
1132.03125 0.10670
1130.27344 0.10698
1128.51563 0.10728
1126.75781 0.10759
1125.00000 0.10794
1123.24219 0.10836
1121.48438 0.10883
1119.72656 0.10929
1117.96875 0.10970
1116.21094 0.11007
1114.45313 0.11036
1112.69531 0.11058
1110.93750 0.11080
1109.17969 0.11107
1107.42188 0.11135
1105.66406 0.11163
1103.90625 0.11193
1102.14844 0.11219
1100.39063 0.11235
1098.63281 0.11241
1096.87500 0.11244
1095.11719 0.11240
1093.35938 0.11225
1091.60156 0.11211
1089.84375 0.11207
1088.08594 0.11208
1086.32813 0.11212
1084.57031 0.11219
1082.81250 0.11225
1081.05469 0.11224
1079.29688 0.11220
1077.53906 0.11219
1075.78125 0.11220
1074.02344 0.11223
1072.26563 0.11231
1070.50781 0.11253
1068.75000 0.11279
1066.99219 0.11299
1065.23438 0.11322
1063.47656 0.11353
1061.71875 0.11382
1059.96094 0.11403
1058.20313 0.11429
1056.44531 0.11464
1054.68750 0.11487
1052.92969 0.11486
1051.17188 0.11481
1049.41406 0.11488
1047.65625 0.11498
1045.89844 0.11512
1044.14063 0.11541
1042.38281 0.11575
1040.62500 0.11601
1038.86719 0.11624
1037.10938 0.11659
1035.35156 0.11701
1033.59375 0.11739
1031.83594 0.11774
1030.07813 0.11806
1028.32031 0.11831
1026.56250 0.11850
1024.80469 0.11868
1023.04688 0.11888
1021.28906 0.11919
1019.53125 0.11973
1017.77344 0.12044
1016.01563 0.12119
1014.25781 0.12199
1012.50000 0.12289
1010.74219 0.12383
1008.98438 0.12474
1007.22656 0.12564
1005.46875 0.12665
1003.71094 0.12782
1001.95313 0.12908
1000.19531 0.13035
998.43750 0.13165
996.67969 0.13301
994.92188 0.13440
993.16406 0.13590
991.40625 0.13759
989.64844 0.13943
987.89063 0.14127
986.13281 0.14305
984.37500 0.14487
982.61719 0.14680
980.85938 0.14877
979.10156 0.15062
977.34375 0.15233
975.58594 0.15398
973.82813 0.15556
972.07031 0.15701
970.31250 0.15828
968.55469 0.15935
966.79688 0.16021
965.03906 0.16082
963.28125 0.16119
961.52344 0.16130
959.76563 0.16124
958.00781 0.16101
956.25000 0.16048
954.49219 0.15962
952.73438 0.15857
950.97656 0.15748
949.21875 0.15638
947.46094 0.15528
945.70313 0.15417
943.94531 0.15304
942.18750 0.15192
940.42969 0.15083
938.67188 0.14979
936.91406 0.14877
935.15625 0.14773
933.39844 0.14675
931.64063 0.14597
929.88281 0.14536
928.12500 0.14481
926.36719 0.14429
924.60938 0.14387
922.85156 0.14346
921.09375 0.14289
919.33594 0.14224
917.57813 0.14169
915.82031 0.14125
914.06250 0.14079
912.30469 0.14017
910.54688 0.13944
908.78906 0.13879
907.03125 0.13829
905.27344 0.13777
903.51563 0.13720
901.75781 0.13675
900.00000 0.13648
898.24219 0.13629
896.48438 0.13612
894.72656 0.13606
892.96875 0.13617
891.21094 0.13635
889.45313 0.13637
887.69531 0.13617
885.93750 0.13593
884.17969 0.13585
882.42188 0.13592
880.66406 0.13594
878.90625 0.13562
877.14844 0.13492
875.39063 0.13408
873.63281 0.13343
871.87500 0.13312
870.11719 0.13303
868.35938 0.13295
866.60156 0.13290
864.84375 0.13310
863.08594 0.13363
861.32813 0.13424
859.57031 0.13468
857.81250 0.13496
856.05469 0.13518
854.29688 0.13539
852.53906 0.13573
850.78125 0.13624
849.02344 0.13679
847.26563 0.13738
845.50781 0.13797
843.75000 0.13817
841.99219 0.13757
840.23438 0.13624
838.47656 0.13470
836.71875 0.13337
834.96094 0.13249
833.20313 0.13187
831.44531 0.13113
829.68750 0.13022
827.92969 0.12957
826.17188 0.12937
824.41406 0.12933
822.65625 0.12914
820.89844 0.12868
819.14063 0.12781
817.38281 0.12668
815.62500 0.12571
813.86719 0.12503
812.10938 0.12443
810.35156 0.12380
808.59375 0.12318
806.83594 0.12275
805.07813 0.12257
803.32031 0.12232
801.56250 0.12175
799.80469 0.12095
798.04688 0.12017
796.28906 0.11957
794.53125 0.11918
792.77344 0.11885
791.01563 0.11834
789.25781 0.11769
787.50000 0.11718
785.74219 0.11681
783.98438 0.11648
782.22656 0.11639
780.46875 0.11668
778.71094 0.11722
776.95313 0.11777
775.19531 0.11821
773.43750 0.11852
771.67969 0.11866
769.92188 0.11850
768.16406 0.11797
766.40625 0.11713
764.64844 0.11627
762.89063 0.11581
761.13281 0.11578
759.37500 0.11582
757.61719 0.11585
755.85938 0.11602
754.10156 0.11638
752.34375 0.11684
750.58594 0.11710
748.82813 0.11688
747.07031 0.11647
745.31250 0.11626
743.55469 0.11612
741.79688 0.11579
740.03906 0.11545
738.28125 0.11526
736.52344 0.11511
734.76563 0.11478
733.00781 0.11425
731.25000 0.11370
729.49219 0.11327
727.73438 0.11287
725.97656 0.11245
724.21875 0.11235
722.46094 0.11253
720.70313 0.11240
718.94531 0.11191
717.18750 0.11151
715.42969 0.11128
713.67188 0.11119
711.91406 0.11133
710.15625 0.11145
708.39844 0.11115
706.64063 0.11046
704.88281 0.10997
703.12500 0.11009
701.36719 0.11061
699.60938 0.11089
697.85156 0.11050
696.09375 0.10965
694.33594 0.10893
692.57813 0.10859
690.82031 0.10848
689.06250 0.10881
687.30469 0.10970
685.54688 0.11059
683.78906 0.11100
682.03125 0.11063
680.27344 0.10894
678.51563 0.10637
676.75781 0.10483
675.00000 0.10509
673.24219 0.10570
671.48438 0.10503
669.72656 0.10391
667.96875 0.10510
666.21094 0.10682
664.45313 0.10658
662.69531 0.10437
660.93750 0.10280
659.17969 0.10267
657.42188 0.10218
655.66406 0.10035
653.90625 0.09731
652.14844 0.09467
650.39063 0.09477
648.63281 0.09699
646.87500 0.09916
645.11719 0.10065
643.35938 0.10128
641.60156 0.10081
639.84375 0.09920
638.08594 0.09697
636.32813 0.09643
634.57031 0.09831
632.81250 0.09945
631.05469 0.09847
629.29688 0.09793
627.53906 0.09976
625.78125 0.10354
624.02344 0.10777
622.26563 0.10940
620.50781 0.10608
618.75000 0.10031
616.99219 0.09708
615.23438 0.09723
613.47656 0.09792
611.71875 0.09749
609.96094 0.09642
608.20313 0.09554
606.44531 0.09472
604.68750 0.09406
602.92969 0.09469
601.17188 0.09676
599.41406 0.09818
