3997.26563 0.06816
3995.50781 0.06812
3993.75000 0.06813
3991.99219 0.06813
3990.23438 0.06814
3988.47656 0.06815
3986.71875 0.06807
3984.96094 0.06789
3983.20313 0.06779
3981.44531 0.06782
3979.68750 0.06789
3977.92969 0.06798
3976.17188 0.06805
3974.41406 0.06806
3972.65625 0.06800
3970.89844 0.06793
3969.14063 0.06793
3967.38281 0.06804
3965.62500 0.06822
3963.86719 0.06852
3962.10938 0.06891
3960.35156 0.06900
3958.59375 0.06863
3956.83594 0.06836
3955.07813 0.06846
3953.32031 0.06846
3951.56250 0.06811
3949.80469 0.06783
3948.04688 0.06796
3946.28906 0.06849
3944.53125 0.06910
3942.77344 0.06920
3941.01563 0.06874
3939.25781 0.06849
3937.50000 0.06883
3935.74219 0.06907
3933.98438 0.06875
3932.22656 0.06851
3930.46875 0.06876
3928.71094 0.06899
3926.95313 0.06871
3925.19531 0.06829
3923.43750 0.06803
3921.67969 0.06786
3919.92188 0.06786
3918.16406 0.06852
3916.40625 0.06982
3914.64844 0.07074
3912.89063 0.07078
3911.13281 0.07029
3909.37500 0.06950
3907.61719 0.06883
3905.85938 0.06881
3904.10156 0.06935
3902.34375 0.06945
3900.58594 0.06910
3898.82813 0.06922
3897.07031 0.06976
3895.31250 0.07000
3893.55469 0.07013
3891.79688 0.07002
3890.03906 0.06933
3888.28125 0.06892
3886.52344 0.06937
3884.76563 0.07006
3883.00781 0.07049
3881.25000 0.07056
3879.49219 0.07023
3877.73438 0.07012
3875.97656 0.07030
3874.21875 0.06989
3872.46094 0.06925
3870.70313 0.06915
3868.94531 0.06962
3867.18750 0.07081
3865.42969 0.07234
3863.67188 0.07182
3861.91406 0.07020
3860.15625 0.06903
3858.39844 0.06856
3856.64063 0.06873
3854.88281 0.06927
3853.12500 0.06997
3851.36719 0.07086
3849.60938 0.07145
3847.85156 0.07121
3846.09375 0.07048
3844.33594 0.06963
3842.57813 0.06895
3840.82031 0.06879
3839.06250 0.06909
3837.30469 0.06930
3835.54688 0.06945
3833.78906 0.07032
3832.03125 0.07108
3830.27344 0.07049
3828.51563 0.06974
3826.75781 0.06936
3825.00000 0.06886
3823.24219 0.06838
3821.48438 0.06841
3819.72656 0.06914
3817.96875 0.06967
3816.21094 0.06953
3814.45313 0.06983
3812.69531 0.07053
3810.93750 0.07030
3809.17969 0.06967
3807.42188 0.06907
3805.66406 0.06834
3803.90625 0.06773
3802.14844 0.06754
3800.39063 0.06770
3798.63281 0.06802
3796.87500 0.06829
3795.11719 0.06824
3793.35938 0.06810
3791.60156 0.06824
3789.84375 0.06825
3788.08594 0.06778
3786.32813 0.06735
3784.57031 0.06743
3782.81250 0.06809
3781.05469 0.06879
3779.29688 0.06887
3777.53906 0.06854
3775.78125 0.06818
3774.02344 0.06816
3772.26563 0.06882
3770.50781 0.06969
3768.75000 0.06978
3766.99219 0.06950
3765.23438 0.06981
3763.47656 0.07118
3761.71875 0.07225
3759.96094 0.07152
3758.20313 0.07064
3756.44531 0.07080
3754.68750 0.07102
3752.92969 0.07050
3751.17188 0.07015
3749.41406 0.07075
3747.65625 0.07207
3745.89844 0.07247
3744.14063 0.07130
3742.38281 0.06974
3740.62500 0.06873
3738.86719 0.06859
3737.10938 0.06899
3735.35156 0.06929
3733.59375 0.06942
3731.83594 0.06944
3730.07813 0.06933
3728.32031 0.06922
3726.56250 0.06932
3724.80469 0.07007
3723.04688 0.07143
3721.28906 0.07196
3719.53125 0.07157
3717.77344 0.07126
3716.01563 0.07150
3714.25781 0.07246
3712.50000 0.07343
3710.74219 0.07352
3708.98438 0.07305
3707.22656 0.07257
3705.46875 0.07240
3703.71094 0.07292
3701.95313 0.07413
3700.19531 0.07465
3698.43750 0.07367
3696.67969 0.07237
3694.92188 0.07154
3693.16406 0.07153
3691.40625 0.07231
3689.64844 0.07362
3687.89063 0.07549
3686.13281 0.07662
3684.37500 0.07620
3682.61719 0.07607
3680.85938 0.07646
3679.10156 0.07591
3677.34375 0.07494
3675.58594 0.07450
3673.82813 0.07470
3672.07031 0.07523
3670.31250 0.07592
3668.55469 0.07695
3666.79688 0.07791
3665.03906 0.07831
3663.28125 0.07909
3661.52344 0.08144
3659.76563 0.08350
3658.00781 0.08285
3656.25000 0.08162
3654.49219 0.08088
3652.73438 0.08060
3650.97656 0.08058
3649.21875 0.08076
3647.46094 0.08126
3645.70313 0.08202
3643.94531 0.08264
3642.18750 0.08333
3640.42969 0.08476
3638.67188 0.08553
3636.91406 0.08495
3635.15625 0.08442
3633.39844 0.08452
3631.64063 0.08508
3629.88281 0.08537
3628.12500 0.08511
3626.36719 0.08494
3624.60938 0.08476
3622.85156 0.08416
3621.09375 0.08357
3619.33594 0.08317
3617.57813 0.08251
3615.82031 0.08184
3614.06250 0.08169
3612.30469 0.08175
3610.54688 0.08130
3608.78906 0.08051
3607.03125 0.07990
3605.27344 0.07924
3603.51563 0.07837
3601.75781 0.07800
3600.00000 0.07871
3598.24219 0.07950
3596.48438 0.07873
3594.72656 0.07723
3592.96875 0.07609
3591.21094 0.07548
3589.45313 0.07520
3587.69531 0.07503
3585.93750 0.07476
3584.17969 0.07445
3582.42188 0.07442
3580.66406 0.07503
3578.90625 0.07618
3577.14844 0.07647
3575.39063 0.07545
3573.63281 0.07440
3571.87500 0.07377
3570.11719 0.07334
3568.35938 0.07298
3566.60156 0.07291
3564.84375 0.07324
3563.08594 0.07352
3561.32813 0.07328
3559.57031 0.07300
3557.81250 0.07315
3556.05469 0.07326
3554.29688 0.07285
3552.53906 0.07228
3550.78125 0.07205
3549.02344 0.07221
3547.26563 0.07243
3545.50781 0.07242
3543.75000 0.07234
3541.99219 0.07239
3540.23438 0.07249
3538.47656 0.07252
3536.71875 0.07255
3534.96094 0.07259
3533.20313 0.07234
3531.44531 0.07190
3529.68750 0.07173
3527.92969 0.07191
3526.17188 0.07205
3524.41406 0.07191
3522.65625 0.07171
3520.89844 0.07172
3519.14063 0.07193
3517.38281 0.07217
3515.62500 0.07251
3513.86719 0.07277
3512.10938 0.07259
3510.35156 0.07218
3508.59375 0.07200
3506.83594 0.07204
3505.07813 0.07203
3503.32031 0.07187
3501.56250 0.07168
3499.80469 0.07158
3498.04688 0.07165
3496.28906 0.07203
3494.53125 0.07262
3492.77344 0.07305
3491.01563 0.07304
3489.25781 0.07283
3487.50000 0.07269
3485.74219 0.07253
3483.98438 0.07235
3482.22656 0.07240
3480.46875 0.07262
3478.71094 0.07277
3476.95313 0.07286
3475.19531 0.07302
3473.43750 0.07312
3471.67969 0.07308
3469.92188 0.07309
3468.16406 0.07320
3466.40625 0.07318
3464.64844 0.07302
3462.89063 0.07302
3461.13281 0.07337
3459.37500 0.07390
3457.61719 0.07409
3455.85938 0.07374
3454.10156 0.07334
3452.34375 0.07324
3450.58594 0.07328
3448.82813 0.07331
3447.07031 0.07325
3445.31250 0.07310
3443.55469 0.07307
3441.79688 0.07326
3440.03906 0.07353
3438.28125 0.07368
3436.52344 0.07367
3434.76563 0.07373
3433.00781 0.07397
3431.25000 0.07404
3429.49219 0.07377
3427.73438 0.07350
3425.97656 0.07345
3424.21875 0.07358
3422.46094 0.07385
3420.70313 0.07407
3418.94531 0.07405
3417.18750 0.07400
3415.42969 0.07410
3413.67188 0.07420
3411.91406 0.07415
3410.15625 0.07406
3408.39844 0.07406
3406.64063 0.07421
3404.88281 0.07443
3403.12500 0.07447
3401.36719 0.07421
3399.60938 0.07402
3397.85156 0.07420
3396.09375 0.07440
3394.33594 0.07417
3392.57813 0.07364
3390.82031 0.07326
3389.06250 0.07330
3387.30469 0.07381
3385.54688 0.07444
3383.78906 0.07467
3382.03125 0.07450
3380.27344 0.07436
3378.51563 0.07441
3376.75781 0.07450
3375.00000 0.07460
3373.24219 0.07469
3371.48438 0.07470
3369.72656 0.07462
3367.96875 0.07450
3366.21094 0.07438
3364.45313 0.07434
3362.69531 0.07444
3360.93750 0.07459
3359.17969 0.07460
3357.42188 0.07447
3355.66406 0.07428
3353.90625 0.07410
3352.14844 0.07406
3350.39063 0.07416
3348.63281 0.07429
3346.87500 0.07437
3345.11719 0.07431
3343.35938 0.07413
3341.60156 0.07397
3339.84375 0.07395
3338.08594 0.07404
3336.32813 0.07411
3334.57031 0.07408
3332.81250 0.07402
3331.05469 0.07405
3329.29688 0.07422
3327.53906 0.07441
3325.78125 0.07453
3324.02344 0.07467
3322.26563 0.07481
3320.50781 0.07480
3318.75000 0.07462
3316.99219 0.07450
3315.23438 0.07453
3313.47656 0.07461
3311.71875 0.07466
3309.96094 0.07470
3308.20313 0.07472
3306.44531 0.07468
3304.68750 0.07459
3302.92969 0.07441
3301.17188 0.07417
3299.41406 0.07414
3297.65625 0.07436
3295.89844 0.07456
3294.14063 0.07453
3292.38281 0.07435
3290.62500 0.07414
3288.86719 0.07410
3287.10938 0.07433
3285.35156 0.07465
3283.59375 0.07478
3281.83594 0.07473
3280.07813 0.07462
3278.32031 0.07456
3276.56250 0.07456
3274.80469 0.07453
3273.04688 0.07447
3271.28906 0.07451
3269.53125 0.07466
3267.77344 0.07475
3266.01563 0.07467
3264.25781 0.07443
3262.50000 0.07420
3260.74219 0.07415
3258.98438 0.07424
3257.22656 0.07428
3255.46875 0.07416
3253.71094 0.07395
3251.95313 0.07387
3250.19531 0.07397
3248.43750 0.07399
3246.67969 0.07388
3244.92188 0.07386
3243.16406 0.07395
3241.40625 0.07396
3239.64844 0.07389
3237.89063 0.07388
3236.13281 0.07393
3234.37500 0.07387
3232.61719 0.07372
3230.85938 0.07378
3229.10156 0.07398
3227.34375 0.07393
3225.58594 0.07360
3223.82813 0.07333
3222.07031 0.07322
3220.31250 0.07324
3218.55469 0.07331
3216.79688 0.07328
3215.03906 0.07313
3213.28125 0.07298
3211.52344 0.07292
3209.76563 0.07294
3208.00781 0.07296
3206.25000 0.07291
3204.49219 0.07286
3202.73438 0.07292
3200.97656 0.07305
3199.21875 0.07308
3197.46094 0.07298
3195.70313 0.07279
3193.94531 0.07252
3192.18750 0.07230
3190.42969 0.07231
3188.67188 0.07245
3186.91406 0.07255
3185.15625 0.07257
3183.39844 0.07255
3181.64063 0.07252
3179.88281 0.07245
3178.12500 0.07231
3176.36719 0.07219
3174.60938 0.07214
3172.85156 0.07209
3171.09375 0.07203
3169.33594 0.07196
3167.57813 0.07189
3165.82031 0.07185
3164.06250 0.07181
3162.30469 0.07175
3160.54688 0.07166
3158.78906 0.07153
3157.03125 0.07138
3155.27344 0.07131
3153.51563 0.07137
3151.75781 0.07155
3150.00000 0.07164
3148.24219 0.07144
3146.48438 0.07108
3144.72656 0.07092
3142.96875 0.07106
3141.21094 0.07118
3139.45313 0.07105
3137.69531 0.07081
3135.93750 0.07073
3134.17969 0.07082
3132.42188 0.07095
3130.66406 0.07102
3128.90625 0.07099
3127.14844 0.07088
3125.39063 0.07075
3123.63281 0.07066
3121.87500 0.07059
3120.11719 0.07046
3118.35938 0.07036
3116.60156 0.07036
3114.84375 0.07036
3113.08594 0.07025
3111.32813 0.07012
3109.57031 0.07006
3107.81250 0.07008
3106.05469 0.07023
3104.29688 0.07045
3102.53906 0.07054
3100.78125 0.07044
3099.02344 0.07026
3097.26563 0.07014
3095.50781 0.07011
3093.75000 0.07012
3091.99219 0.07018
3090.23438 0.07026
3088.47656 0.07029
3086.71875 0.07028
3084.96094 0.07026
3083.20313 0.07016
3081.44531 0.07003
3079.68750 0.06996
3077.92969 0.06994
3076.17188 0.06989
3074.41406 0.06982
3072.65625 0.06981
3070.89844 0.06984
3069.14063 0.06983
3067.38281 0.06971
3065.62500 0.06950
3063.86719 0.06934
3062.10938 0.06932
3060.35156 0.06936
3058.59375 0.06929
3056.83594 0.06920
3055.07813 0.06925
3053.32031 0.06937
3051.56250 0.06934
3049.80469 0.06919
3048.04688 0.06914
3046.28906 0.06924
3044.53125 0.06934
3042.77344 0.06934
3041.01563 0.06929
3039.25781 0.06926
3037.50000 0.06930
3035.74219 0.06937
3033.98438 0.06941
3032.22656 0.06937
3030.46875 0.06930
3028.71094 0.06924
3026.95313 0.06927
3025.19531 0.06946
3023.43750 0.06968
3021.67969 0.06968
3019.92188 0.06950
3018.16406 0.06940
3016.40625 0.06951
3014.64844 0.06964
3012.89063 0.06962
3011.13281 0.06948
3009.37500 0.06939
3007.61719 0.06937
3005.85938 0.06931
3004.10156 0.06923
3002.34375 0.06918
3000.58594 0.06920
2998.82813 0.06927
2997.07031 0.06936
2995.31250 0.06942
2993.55469 0.06942
2991.79688 0.06938
2990.03906 0.06934
2988.28125 0.06937
2986.52344 0.06948
2984.76563 0.06958
2983.00781 0.06963
2981.25000 0.06971
2979.49219 0.06984
2977.73438 0.07000
2975.97656 0.07022
2974.21875 0.07048
2972.46094 0.07066
2970.70313 0.07071
2968.94531 0.07079
2967.18750 0.07095
2965.42969 0.07104
2963.67188 0.07090
2961.91406 0.07066
2960.15625 0.07053
2958.39844 0.07054
2956.64063 0.07062
2954.88281 0.07070
2953.12500 0.07077
2951.36719 0.07083
2949.60938 0.07095
2947.85156 0.07115
2946.09375 0.07139
2944.33594 0.07164
2942.57813 0.07190
2940.82031 0.07217
2939.06250 0.07245
2937.30469 0.07271
2935.54688 0.07284
2933.78906 0.07282
2932.03125 0.07269
2930.27344 0.07247
2928.51563 0.07220
2926.75781 0.07196
2925.00000 0.07181
2923.24219 0.07173
2921.48438 0.07160
2919.72656 0.07137
2917.96875 0.07118
2916.21094 0.07106
2914.45313 0.07094
2912.69531 0.07081
2910.93750 0.07067
2909.17969 0.07051
2907.42188 0.07036
2905.66406 0.07028
2903.90625 0.07017
2902.14844 0.06996
2900.39063 0.06972
2898.63281 0.06957
2896.87500 0.06954
2895.11719 0.06960
2893.35938 0.06966
2891.60156 0.06964
2889.84375 0.06953
2888.08594 0.06939
2886.32813 0.06933
2884.57031 0.06935
2882.81250 0.06939
2881.05469 0.06938
2879.29688 0.06934
2877.53906 0.06928
2875.78125 0.06924
2874.02344 0.06933
2872.26563 0.06950
2870.50781 0.06967
2868.75000 0.06984
2866.99219 0.06998
2865.23438 0.07001
2863.47656 0.06991
2861.71875 0.06979
2859.96094 0.06972
2858.20313 0.06964
2856.44531 0.06952
2854.68750 0.06935
2852.92969 0.06910
2851.17188 0.06887
2849.41406 0.06872
2847.65625 0.06854
2845.89844 0.06826
2844.14063 0.06799
2842.38281 0.06784
2840.62500 0.06776
2838.86719 0.06767
2837.10938 0.06758
2835.35156 0.06755
2833.59375 0.06753
2831.83594 0.06746
2830.07813 0.06734
2828.32031 0.06725
2826.56250 0.06717
2824.80469 0.06708
2823.04688 0.06705
2821.28906 0.06707
2819.53125 0.06705
2817.77344 0.06701
2816.01563 0.06702
2814.25781 0.06705
2812.50000 0.06705
2810.74219 0.06696
2808.98438 0.06681
2807.22656 0.06670
2805.46875 0.06668
2803.71094 0.06671
2801.95313 0.06672
2800.19531 0.06673
2798.43750 0.06670
2796.67969 0.06660
2794.92188 0.06650
2793.16406 0.06643
2791.40625 0.06644
2789.64844 0.06648
2787.89063 0.06646
2786.13281 0.06635
2784.37500 0.06620
2782.61719 0.06613
2780.85938 0.06616
2779.10156 0.06619
2777.34375 0.06614
2775.58594 0.06609
2773.82813 0.06609
2772.07031 0.06601
2770.31250 0.06587
2768.55469 0.06583
2766.79688 0.06589
2765.03906 0.06592
2763.28125 0.06588
2761.52344 0.06582
2759.76563 0.06573
2758.00781 0.06567
2756.25000 0.06570
2754.49219 0.06576
2752.73438 0.06578
2750.97656 0.06577
2749.21875 0.06573
2747.46094 0.06559
2745.70313 0.06541
2743.94531 0.06530
2742.18750 0.06533
2740.42969 0.06539
2738.67188 0.06534
2736.91406 0.06524
2735.15625 0.06521
2733.39844 0.06522
2731.64063 0.06522
2729.88281 0.06524
2728.12500 0.06527
2726.36719 0.06524
2724.60938 0.06515
2722.85156 0.06504
2721.09375 0.06492
2719.33594 0.06483
2717.57813 0.06479
2715.82031 0.06477
2714.06250 0.06476
2712.30469 0.06478
2710.54688 0.06484
2708.78906 0.06491
2707.03125 0.06494
2705.27344 0.06489
2703.51563 0.06480
2701.75781 0.06473
2700.00000 0.06472
2698.24219 0.06470
2696.48438 0.06466
2694.72656 0.06460
2692.96875 0.06454
2691.21094 0.06447
2689.45313 0.06440
2687.69531 0.06434
2685.93750 0.06433
2684.17969 0.06437
2682.42188 0.06432
2680.66406 0.06418
2678.90625 0.06410
2677.14844 0.06414
2675.39063 0.06420
2673.63281 0.06418
2671.87500 0.06404
2670.11719 0.06388
2668.35938 0.06379
2666.60156 0.06379
2664.84375 0.06381
2663.08594 0.06387
2661.32813 0.06395
2659.57031 0.06397
2657.81250 0.06389
2656.05469 0.06374
2654.29688 0.06361
2652.53906 0.06355
2650.78125 0.06355
2649.02344 0.06356
2647.26563 0.06351
2645.50781 0.06340
2643.75000 0.06331
2641.99219 0.06334
2640.23438 0.06346
2638.47656 0.06352
2636.71875 0.06351
2634.96094 0.06347
2633.20313 0.06344
2631.44531 0.06339
2629.68750 0.06335
2627.92969 0.06333
2626.17188 0.06333
2624.41406 0.06329
2622.65625 0.06319
2620.89844 0.06303
2619.14063 0.06286
2617.38281 0.06280
2615.62500 0.06289
2613.86719 0.06298
2612.10938 0.06301
2610.35156 0.06298
2608.59375 0.06294
2606.83594 0.06289
2605.07813 0.06282
2603.32031 0.06272
2601.56250 0.06264
2599.80469 0.06259
2598.04688 0.06254
2596.28906 0.06249
2594.53125 0.06253
2592.77344 0.06257
2591.01563 0.06253
2589.25781 0.06246
2587.50000 0.06245
2585.74219 0.06247
2583.98438 0.06245
2582.22656 0.06234
2580.46875 0.06217
2578.71094 0.06205
2576.95313 0.06205
2575.19531 0.06214
2573.43750 0.06225
2571.67969 0.06231
2569.92188 0.06228
2568.16406 0.06221
2566.40625 0.06215
2564.64844 0.06209
2562.89063 0.06205
2561.13281 0.06204
2559.37500 0.06202
2557.61719 0.06197
2555.85938 0.06194
2554.10156 0.06202
2552.34375 0.06213
2550.58594 0.06221
2548.82813 0.06228
2547.07031 0.06228
2545.31250 0.06221
2543.55469 0.06212
2541.79688 0.06208
2540.03906 0.06209
2538.28125 0.06210
2536.52344 0.06208
2534.76563 0.06205
2533.00781 0.06201
2531.25000 0.06195
2529.49219 0.06195
2527.73438 0.06197
2525.97656 0.06194
2524.21875 0.06187
2522.46094 0.06178
2520.70313 0.06170
2518.94531 0.06166
2517.18750 0.06168
2515.42969 0.06169
2513.67188 0.06165
2511.91406 0.06160
2510.15625 0.06163
2508.39844 0.06172
2506.64063 0.06180
2504.88281 0.06179
2503.12500 0.06171
2501.36719 0.06162
2499.60938 0.06157
2497.85156 0.06157
2496.09375 0.06163
2494.33594 0.06167
2492.57813 0.06163
2490.82031 0.06154
2489.06250 0.06150
2487.30469 0.06150
2485.54688 0.06149
2483.78906 0.06148
2482.03125 0.06151
2480.27344 0.06155
2478.51563 0.06153
2476.75781 0.06146
2475.00000 0.06138
2473.24219 0.06132
2471.48438 0.06133
2469.72656 0.06139
2467.96875 0.06139
2466.21094 0.06127
2464.45313 0.06117
2462.69531 0.06119
2460.93750 0.06121
2459.17969 0.06115
2457.42188 0.06109
2455.66406 0.06108
2453.90625 0.06109
2452.14844 0.06109
2450.39063 0.06110
2448.63281 0.06113
2446.87500 0.06111
2445.11719 0.06100
2443.35938 0.06087
2441.60156 0.06090
2439.84375 0.06104
2438.08594 0.06110
2436.32813 0.06103
2434.57031 0.06096
2432.81250 0.06091
2431.05469 0.06087
2429.29688 0.06087
2427.53906 0.06090
2425.78125 0.06087
2424.02344 0.06082
2422.26563 0.06083
2420.50781 0.06086
2418.75000 0.06088
2416.99219 0.06090
2415.23438 0.06095
2413.47656 0.06098
2411.71875 0.06096
2409.96094 0.06091
2408.20313 0.06087
2406.44531 0.06087
2404.68750 0.06092
2402.92969 0.06091
2401.17188 0.06082
2399.41406 0.06076
2397.65625 0.06076
2395.89844 0.06071
2394.14063 0.06054
2392.38281 0.06025
2390.62500 0.05984
2388.86719 0.05929
2387.10938 0.05869
2385.35156 0.05805
2383.59375 0.05728
2381.83594 0.05636
2380.07813 0.05538
2378.32031 0.05430
2376.56250 0.05314
2374.80469 0.05205
2373.04688 0.05110
2371.28906 0.05033
2369.53125 0.04996
2367.77344 0.05000
2366.01563 0.05016
2364.25781 0.05070
2362.50000 0.05209
2360.74219 0.05398
2358.98438 0.05548
2357.22656 0.05603
2355.46875 0.05570
2353.71094 0.05481
2351.95313 0.05382
2350.19531 0.05314
2348.43750 0.05283
2346.67969 0.05280
2344.92188 0.05302
2343.16406 0.05332
2341.40625 0.05347
2339.64844 0.05347
2337.89063 0.05359
2336.13281 0.05409
2334.37500 0.05481
2332.61719 0.05543
2330.85938 0.05585
2329.10156 0.05621
2327.34375 0.05666
2325.58594 0.05712
2323.82813 0.05743
2322.07031 0.05757
2320.31250 0.05766
2318.55469 0.05784
2316.79688 0.05810
2315.03906 0.05840
2313.28125 0.05872
2311.52344 0.05909
2309.76563 0.05945
2308.00781 0.05965
2306.25000 0.05967
2304.49219 0.05960
2302.73438 0.05957
2300.97656 0.05961
2299.21875 0.05974
2297.46094 0.05991
2295.70313 0.06004
2293.94531 0.06009
2292.18750 0.06009
2290.42969 0.06001
2288.67188 0.05993
2286.91406 0.05994
2285.15625 0.05997
2283.39844 0.05990
2281.64063 0.05971
2279.88281 0.05952
2278.12500 0.05944
2276.36719 0.05949
2274.60938 0.05960
2272.85156 0.05971
2271.09375 0.05974
2269.33594 0.05973
2267.57813 0.05968
2265.82031 0.05965
2264.06250 0.05967
2262.30469 0.05969
2260.54688 0.05973
2258.78906 0.05982
2257.03125 0.05989
2255.27344 0.05993
2253.51563 0.05992
2251.75781 0.05987
2250.00000 0.05977
2248.24219 0.05967
2246.48438 0.05960
2244.72656 0.05961
2242.96875 0.05970
2241.21094 0.05976
2239.45313 0.05973
2237.69531 0.05967
2235.93750 0.05963
2234.17969 0.05960
2232.42188 0.05955
2230.66406 0.05942
2228.90625 0.05926
2227.14844 0.05914
2225.39063 0.05908
2223.63281 0.05912
2221.87500 0.05922
2220.11719 0.05924
2218.35938 0.05917
2216.60156 0.05914
2214.84375 0.05918
2213.08594 0.05923
2211.32813 0.05920
2209.57031 0.05914
2207.81250 0.05909
2206.05469 0.05910
2204.29688 0.05915
2202.53906 0.05915
2200.78125 0.05911
2199.02344 0.05899
2197.26563 0.05885
2195.50781 0.05879
2193.75000 0.05887
2191.99219 0.05891
2190.23438 0.05882
2188.47656 0.05873
2186.71875 0.05875
2184.96094 0.05882
2183.20313 0.05885
2181.44531 0.05882
2179.68750 0.05874
2177.92969 0.05866
2176.17188 0.05863
2174.41406 0.05864
2172.65625 0.05865
2170.89844 0.05868
2169.14063 0.05870
2167.38281 0.05867
2165.62500 0.05860
2163.86719 0.05851
2162.10938 0.05840
2160.35156 0.05831
2158.59375 0.05826
2156.83594 0.05826
2155.07813 0.05828
2153.32031 0.05827
2151.56250 0.05827
2149.80469 0.05827
2148.04688 0.05823
2146.28906 0.05813
2144.53125 0.05806
2142.77344 0.05805
2141.01563 0.05809
2139.25781 0.05807
2137.50000 0.05795
2135.74219 0.05784
2133.98438 0.05779
2132.22656 0.05779
2130.46875 0.05778
2128.71094 0.05777
2126.95313 0.05775
2125.19531 0.05774
2123.43750 0.05776
2121.67969 0.05776
2119.92188 0.05764
2118.16406 0.05744
2116.40625 0.05730
2114.64844 0.05732
2112.89063 0.05742
2111.13281 0.05748
2109.37500 0.05743
2107.61719 0.05732
2105.85938 0.05723
2104.10156 0.05721
2102.34375 0.05720
2100.58594 0.05718
2098.82813 0.05721
2097.07031 0.05728
2095.31250 0.05731
2093.55469 0.05727
2091.79688 0.05721
2090.03906 0.05717
2088.28125 0.05717
2086.52344 0.05722
2084.76563 0.05729
2083.00781 0.05732
2081.25000 0.05731
2079.49219 0.05732
2077.73438 0.05738
2075.97656 0.05748
2074.21875 0.05758
2072.46094 0.05770
2070.70313 0.05777
2068.94531 0.05776
2067.18750 0.05771
2065.42969 0.05768
2063.67188 0.05771
2061.91406 0.05777
2060.15625 0.05783
2058.39844 0.05790
2056.64063 0.05801
2054.88281 0.05811
2053.12500 0.05807
2051.36719 0.05795
2049.60938 0.05789
2047.85156 0.05792
2046.09375 0.05797
2044.33594 0.05800
2042.57813 0.05801
2040.82031 0.05802
2039.06250 0.05807
2037.30469 0.05816
2035.54688 0.05818
2033.78906 0.05816
2032.03125 0.05820
2030.27344 0.05831
2028.51563 0.05841
2026.75781 0.05843
2025.00000 0.05837
2023.24219 0.05828
2021.48438 0.05822
2019.72656 0.05823
2017.96875 0.05830
2016.21094 0.05836
2014.45313 0.05837
2012.69531 0.05842
2010.93750 0.05848
2009.17969 0.05847
2007.42188 0.05846
2005.66406 0.05853
2003.90625 0.05862
2002.14844 0.05869
2000.39063 0.05884
1998.63281 0.05908
1996.87500 0.05915
1995.11719 0.05896
1993.35938 0.05867
1991.60156 0.05845
1989.84375 0.05831
1988.08594 0.05822
1986.32813 0.05816
1984.57031 0.05819
1982.81250 0.05827
1981.05469 0.05836
1979.29688 0.05839
1977.53906 0.05833
1975.78125 0.05833
1974.02344 0.05844
1972.26563 0.05843
1970.50781 0.05819
1968.75000 0.05795
1966.99219 0.05781
1965.23438 0.05771
1963.47656 0.05765
1961.71875 0.05768
1959.96094 0.05768
1958.20313 0.05757
1956.44531 0.05749
1954.68750 0.05760
1952.92969 0.05783
1951.17188 0.05809
1949.41406 0.05826
1947.65625 0.05815
1945.89844 0.05778
1944.14063 0.05748
1942.38281 0.05739
1940.62500 0.05736
1938.86719 0.05728
1937.10938 0.05716
1935.35156 0.05713
1933.59375 0.05720
1931.83594 0.05742
1930.07813 0.05773
1928.32031 0.05787
1926.56250 0.05776
1924.80469 0.05767
1923.04688 0.05765
1921.28906 0.05751
1919.53125 0.05741
1917.77344 0.05757
1916.01563 0.05790
1914.25781 0.05805
1912.50000 0.05789
1910.74219 0.05769
1908.98438 0.05772
1907.22656 0.05789
1905.46875 0.05804
1903.71094 0.05826
1901.95313 0.05856
1900.19531 0.05875
1898.43750 0.05882
1896.67969 0.05895
1894.92188 0.05904
1893.16406 0.05894
1891.40625 0.05882
1889.64844 0.05875
1887.89063 0.05867
1886.13281 0.05866
1884.37500 0.05871
1882.61719 0.05876
1880.85938 0.05881
1879.10156 0.05896
1877.34375 0.05938
1875.58594 0.06004
1873.82813 0.06033
1872.07031 0.05981
1870.31250 0.05904
1868.55469 0.05850
1866.79688 0.05822
1865.03906 0.05805
1863.28125 0.05786
1861.52344 0.05762
1859.76563 0.05740
1858.00781 0.05724
1856.25000 0.05724
1854.49219 0.05745
1852.73438 0.05777
1850.97656 0.05804
1849.21875 0.05794
1847.46094 0.05742
1845.70313 0.05698
1843.94531 0.05684
1842.18750 0.05679
1840.42969 0.05667
1838.67188 0.05672
1836.91406 0.05711
1835.15625 0.05749
1833.39844 0.05745
1831.64063 0.05728
1829.88281 0.05714
1828.12500 0.05691
1826.36719 0.05665
1824.60938 0.05648
1822.85156 0.05641
1821.09375 0.05645
1819.33594 0.05671
1817.57813 0.05715
1815.82031 0.05744
1814.06250 0.05730
1812.30469 0.05694
1810.54688 0.05672
1808.78906 0.05686
1807.03125 0.05726
1805.27344 0.05748
1803.51563 0.05747
1801.75781 0.05753
1800.00000 0.05786
1798.24219 0.05823
1796.48438 0.05800
1794.72656 0.05727
1792.96875 0.05678
1791.21094 0.05671
1789.45313 0.05679
1787.69531 0.05687
1785.93750 0.05696
1784.17969 0.05696
1782.42188 0.05693
1780.66406 0.05718
1778.90625 0.05777
1777.14844 0.05803
1775.39063 0.05743
1773.63281 0.05661
1771.87500 0.05605
1770.11719 0.05586
1768.35938 0.05606
1766.60156 0.05626
1764.84375 0.05617
1763.08594 0.05605
1761.32813 0.05599
1759.57031 0.05607
1757.81250 0.05663
1756.05469 0.05777
1754.29688 0.05857
1752.53906 0.05848
1750.78125 0.05806
1749.02344 0.05773
1747.26563 0.05760
1745.50781 0.05760
1743.75000 0.05750
1741.99219 0.05745
1740.23438 0.05802
1738.47656 0.05860
1736.71875 0.05805
1734.96094 0.05708
1733.20313 0.05634
1731.44531 0.05599
1729.68750 0.05600
1727.92969 0.05620
1726.17188 0.05663
1724.41406 0.05775
1722.65625 0.05938
1720.89844 0.05943
1719.14063 0.05811
1717.38281 0.05699
1715.62500 0.05642
1713.86719 0.05641
1712.10938 0.05688
1710.35156 0.05739
1708.59375 0.05752
1706.83594 0.05781
1705.07813 0.05866
1703.32031 0.05916
1701.56250 0.05854
1699.80469 0.05728
1698.04688 0.05635
1696.28906 0.05612
1694.53125 0.05638
1692.77344 0.05679
1691.01563 0.05748
1689.25781 0.05830
1687.50000 0.05788
1685.74219 0.05685
1683.98438 0.05607
1682.22656 0.05570
1680.46875 0.05571
1678.71094 0.05584
1676.95313 0.05605
1675.19531 0.05623
1673.43750 0.05565
1671.67969 0.05477
1669.92188 0.05444
1668.16406 0.05459
1666.40625 0.05446
1664.64844 0.05406
1662.89063 0.05399
1661.13281 0.05458
1659.37500 0.05609
1657.61719 0.05720
1655.85938 0.05675
1654.10156 0.05663
1652.34375 0.05688
1650.58594 0.05607
1648.82813 0.05479
1647.07031 0.05413
1645.31250 0.05413
1643.55469 0.05470
1641.79688 0.05562
1640.03906 0.05558
1638.28125 0.05448
1636.52344 0.05367
1634.76563 0.05345
1633.00781 0.05364
1631.25000 0.05387
1629.49219 0.05407
1627.73438 0.05398
1625.97656 0.05354
1624.21875 0.05336
1622.46094 0.05374
1620.70313 0.05392
1618.94531 0.05359
1617.18750 0.05351
1615.42969 0.05397
1613.67188 0.05461
1611.91406 0.05507
1610.15625 0.05542
1608.39844 0.05578
1606.64063 0.05604
1604.88281 0.05617
1603.12500 0.05626
1601.36719 0.05643
1599.60938 0.05655
1597.85156 0.05649
1596.09375 0.05626
1594.33594 0.05596
1592.57813 0.05566
1590.82031 0.05551
1589.06250 0.05553
1587.30469 0.05555
1585.54688 0.05553
1583.78906 0.05580
1582.03125 0.05652
1580.27344 0.05674
1578.51563 0.05610
1576.75781 0.05571
1575.00000 0.05593
1573.24219 0.05613
1571.48438 0.05592
1569.72656 0.05572
1567.96875 0.05565
1566.21094 0.05590
1564.45313 0.05716
1562.69531 0.05822
1560.93750 0.05734
1559.17969 0.05623
1557.42188 0.05550
1555.66406 0.05521
1553.90625 0.05514
1552.14844 0.05532
1550.39063 0.05607
1548.63281 0.05737
1546.87500 0.05869
1545.11719 0.05889
1543.35938 0.05742
1541.60156 0.05631
1539.84375 0.05616
1538.08594 0.05636
1536.32813 0.05604
1534.57031 0.05568
1532.81250 0.05599
1531.05469 0.05674
1529.29688 0.05736
1527.53906 0.05799
1525.78125 0.05836
1524.02344 0.05804
1522.26563 0.05749
1520.50781 0.05675
1518.75000 0.05603
1516.99219 0.05591
1515.23438 0.05664
1513.47656 0.05818
1511.71875 0.05902
1509.96094 0.05732
1508.20313 0.05593
1506.44531 0.05556
1504.68750 0.05585
1502.92969 0.05637
1501.17188 0.05634
1499.41406 0.05568
1497.65625 0.05532
1495.89844 0.05583
1494.14063 0.05668
1492.38281 0.05635
1490.62500 0.05524
1488.86719 0.05448
1487.10938 0.05426
1485.35156 0.05434
1483.59375 0.05458
1481.83594 0.05517
1480.07813 0.05637
1478.32031 0.05794
1476.56250 0.05857
1474.80469 0.05801
1473.04688 0.05765
1471.28906 0.05811
1469.53125 0.05901
1467.77344 0.05948
1466.01563 0.05978
1464.25781 0.06078
1462.50000 0.06281
1460.74219 0.06373
1458.98438 0.06277
1457.22656 0.06186
1455.46875 0.06156
1453.71094 0.06180
1451.95313 0.06213
1450.19531 0.06219
1448.43750 0.06218
1446.67969 0.06231
1444.92188 0.06260
1443.16406 0.06323
1441.40625 0.06412
1439.64844 0.06439
1437.89063 0.06398
1436.13281 0.06369
1434.37500 0.06362
1432.61719 0.06350
1430.85938 0.06343
1429.10156 0.06358
1427.34375 0.06374
1425.58594 0.06397
1423.82813 0.06448
1422.07031 0.06451
1420.31250 0.06375
1418.55469 0.06308
1416.79688 0.06283
1415.03906 0.06277
1413.28125 0.06267
1411.52344 0.06263
1409.76563 0.06268
1408.00781 0.06259
1406.25000 0.06251
1404.49219 0.06280
1402.73438 0.06324
1400.97656 0.06327
1399.21875 0.06269
1397.46094 0.06181
1395.70313 0.06111
1393.94531 0.06085
1392.18750 0.06087
1390.42969 0.06060
1388.67188 0.05998
1386.91406 0.05948
1385.15625 0.05924
1383.39844 0.05916
1381.64063 0.05923
1379.88281 0.05939
1378.12500 0.05927
1376.36719 0.05880
1374.60938 0.05842
1372.85156 0.05825
1371.09375 0.05815
1369.33594 0.05824
1367.57813 0.05852
1365.82031 0.05846
1364.06250 0.05797
1362.30469 0.05755
1360.54688 0.05740
1358.78906 0.05738
1357.03125 0.05732
1355.27344 0.05726
1353.51563 0.05726
1351.75781 0.05731
1350.00000 0.05736
1348.24219 0.05750
1346.48438 0.05784
1344.72656 0.05827
1342.96875 0.05839
1341.21094 0.05804
1339.45313 0.05757
1337.69531 0.05718
1335.93750 0.05688
1334.17969 0.05662
1332.42188 0.05642
1330.66406 0.05626
1328.90625 0.05613
1327.14844 0.05606
1325.39063 0.05611
1323.63281 0.05622
1321.87500 0.05631
1320.11719 0.05652
1318.35938 0.05702
1316.60156 0.05769
1314.84375 0.05828
1313.08594 0.05880
1311.32813 0.05928
1309.57031 0.05967
1307.81250 0.05996
1306.05469 0.06023
1304.29688 0.06050
1302.53906 0.06079
1300.78125 0.06109
1299.02344 0.06138
1297.26563 0.06166
1295.50781 0.06197
1293.75000 0.06236
1291.99219 0.06273
1290.23438 0.06297
1288.47656 0.06312
1286.71875 0.06331
1284.96094 0.06348
1283.20313 0.06356
1281.44531 0.06372
1279.68750 0.06402
1277.92969 0.06437
1276.17188 0.06478
1274.41406 0.06522
1272.65625 0.06558
1270.89844 0.06589
1269.14063 0.06622
1267.38281 0.06657
1265.62500 0.06691
1263.86719 0.06717
1262.10938 0.06726
1260.35156 0.06721
1258.59375 0.06720
1256.83594 0.06738
1255.07813 0.06773
1253.32031 0.06814
1251.56250 0.06853
1249.80469 0.06890
1248.04688 0.06922
1246.28906 0.06950
1244.53125 0.06983
1242.77344 0.07029
1241.01563 0.07084
1239.25781 0.07141
1237.50000 0.07199
1235.74219 0.07257
1233.98438 0.07315
1232.22656 0.07382
1230.46875 0.07472
1228.71094 0.07585
1226.95313 0.07716
1225.19531 0.07860
1223.43750 0.08014
1221.67969 0.08184
1219.92188 0.08370
1218.16406 0.08568
1216.40625 0.08779
1214.64844 0.09003
1212.89063 0.09236
1211.13281 0.09476
1209.37500 0.09723
1207.61719 0.09966
1205.85938 0.10203
1204.10156 0.10439
1202.34375 0.10679
1200.58594 0.10920
1198.82813 0.11165
1197.07031 0.11420
1195.31250 0.11689
1193.55469 0.11964
1191.79688 0.12239
1190.03906 0.12520
1188.28125 0.12812
1186.52344 0.13113
1184.76563 0.13422
1183.00781 0.13741
1181.25000 0.14069
1179.49219 0.14413
1177.73438 0.14782
1175.97656 0.15177
1174.21875 0.15592
1172.46094 0.16026
1170.70313 0.16463
1168.94531 0.16851
1167.18750 0.17090
1165.42969 0.17093
1163.67188 0.16873
1161.91406 0.16566
1160.15625 0.16338
1158.39844 0.16275
1156.64063 0.16360
1154.88281 0.16544
1153.12500 0.16784
1151.36719 0.17051
1149.60938 0.17327
1147.85156 0.17607
1146.09375 0.17889
1144.33594 0.18170
1142.57813 0.18458
1140.82031 0.18760
1139.06250 0.19076
1137.30469 0.19399
1135.54688 0.19729
1133.78906 0.20074
1132.03125 0.20439
1130.27344 0.20820
1128.51563 0.21205
1126.75781 0.21593
1125.00000 0.21992
1123.24219 0.22409
1121.48438 0.22839
1119.72656 0.23271
1117.96875 0.23701
1116.21094 0.24136
1114.45313 0.24574
1112.69531 0.25010
1110.93750 0.25459
1109.17969 0.25931
1107.42188 0.26425
1105.66406 0.26935
1103.90625 0.27461
1102.14844 0.28009
1100.39063 0.28575
1098.63281 0.29155
1096.87500 0.29747
1095.11719 0.30343
1093.35938 0.30942
1091.60156 0.31545
1089.84375 0.32150
1088.08594 0.32759
1086.32813 0.33382
1084.57031 0.34034
1082.81250 0.34722
1081.05469 0.35455
1079.29688 0.36252
1077.53906 0.37134
1075.78125 0.38103
1074.02344 0.39152
1072.26563 0.40274
1070.50781 0.41439
1068.75000 0.42591
1066.99219 0.43687
1065.23438 0.44716
1063.47656 0.45680
1061.71875 0.46581
1059.96094 0.47448
1058.20313 0.48319
1056.44531 0.49204
1054.68750 0.50083
1052.92969 0.50938
1051.17188 0.51754
1049.41406 0.52543
1047.65625 0.53339
1045.89844 0.54198
1044.14063 0.55152
1042.38281 0.56178
1040.62500 0.57237
1038.86719 0.58303
1037.10938 0.59350
1035.35156 0.60338
1033.59375 0.61254
1031.83594 0.62106
1030.07813 0.62891
1028.32031 0.63590
1026.56250 0.64222
1024.80469 0.64827
1023.04688 0.65411
1021.28906 0.65956
1019.53125 0.66475
1017.77344 0.67012
1016.01563 0.67572
1014.25781 0.68121
1012.50000 0.68635
1010.74219 0.69069
1008.98438 0.69367
1007.22656 0.69512
1005.46875 0.69520
1003.71094 0.69389
1001.95313 0.69143
1000.19531 0.68838
998.43750 0.68483
996.67969 0.68053
994.92188 0.67559
993.16406 0.67013
991.40625 0.66397
989.64844 0.65681
987.89063 0.64865
986.13281 0.63978
984.37500 0.63031
982.61719 0.62008
980.85938 0.60876
979.10156 0.59612
977.34375 0.58225
975.58594 0.56738
973.82813 0.55197
972.07031 0.53660
970.31250 0.52147
968.55469 0.50639
966.79688 0.49135
965.03906 0.47675
963.28125 0.46288
961.52344 0.44963
959.76563 0.43698
958.00781 0.42525
956.25000 0.41450
954.49219 0.40452
952.73438 0.39543
950.97656 0.38761
949.21875 0.38107
947.46094 0.37547
945.70313 0.37072
943.94531 0.36709
942.18750 0.36463
940.42969 0.36289
938.67188 0.36137
936.91406 0.35977
935.15625 0.35785
933.39844 0.35545
931.64063 0.35259
929.88281 0.34953
928.12500 0.34653
926.36719 0.34375
924.60938 0.34133
922.85156 0.33933
921.09375 0.33762
919.33594 0.33602
917.57813 0.33435
915.82031 0.33213
914.06250 0.32875
912.30469 0.32377
910.54688 0.31711
908.78906 0.30904
907.03125 0.30001
905.27344 0.29031
903.51563 0.28015
901.75781 0.26999
900.00000 0.26034
898.24219 0.25140
896.48438 0.24309
894.72656 0.23540
892.96875 0.22839
891.21094 0.22190
889.45313 0.21560
887.69531 0.20946
885.93750 0.20379
884.17969 0.19880
882.42188 0.19421
880.66406 0.18945
878.90625 0.18430
877.14844 0.17901
875.39063 0.17396
873.63281 0.16931
871.87500 0.16503
870.11719 0.16103
868.35938 0.15729
866.60156 0.15384
864.84375 0.15075
863.08594 0.14800
861.32813 0.14545
859.57031 0.14308
857.81250 0.14109
856.05469 0.13950
854.29688 0.13826
852.53906 0.13737
850.78125 0.13680
849.02344 0.13641
847.26563 0.13633
845.50781 0.13666
843.75000 0.13708
841.99219 0.13741
840.23438 0.13788
838.47656 0.13859
836.71875 0.13929
834.96094 0.13975
833.20313 0.13986
831.44531 0.13961
829.68750 0.13908
827.92969 0.13844
826.17188 0.13785
824.41406 0.13743
822.65625 0.13737
820.89844 0.13789
819.14063 0.13919
817.38281 0.14177
815.62500 0.14644
813.86719 0.15393
812.10938 0.16483
810.35156 0.17978
808.59375 0.19901
806.83594 0.22190
805.07813 0.24678
803.32031 0.27088
801.56250 0.29080
799.80469 0.30361
798.04688 0.30807
796.28906 0.30541
794.53125 0.29889
792.77344 0.29209
791.01563 0.28743
789.25781 0.28659
787.50000 0.29082
785.74219 0.30027
783.98438 0.31348
782.22656 0.32718
780.46875 0.33700
778.71094 0.33991
776.95313 0.33577
775.19531 0.32655
773.43750 0.31491
771.67969 0.30299
769.92188 0.29168
768.16406 0.28119
766.40625 0.27155
764.64844 0.26257
762.89063 0.25429
761.13281 0.24687
759.37500 0.24000
757.61719 0.23316
755.85938 0.22648
754.10156 0.22041
752.34375 0.21480
750.58594 0.20892
748.82813 0.20255
747.07031 0.19628
745.31250 0.19065
743.55469 0.18566
741.79688 0.18114
740.03906 0.17680
738.28125 0.17218
736.52344 0.16760
734.76563 0.16364
733.00781 0.16020
731.25000 0.15712
729.49219 0.15472
727.73438 0.15285
725.97656 0.15095
724.21875 0.14882
722.46094 0.14679
720.70313 0.14526
718.94531 0.14436
717.18750 0.14392
715.42969 0.14372
713.67188 0.14377
711.91406 0.14454
710.15625 0.14642
708.39844 0.14916
706.64063 0.15281
704.88281 0.15847
703.12500 0.16768
701.36719 0.18072
699.60938 0.19497
697.85156 0.20529
696.09375 0.20771
694.33594 0.20268
692.57813 0.19388
690.82031 0.18506
689.06250 0.17810
687.30469 0.17270
685.54688 0.16773
683.78906 0.16307
682.03125 0.15936
680.27344 0.15603
678.51563 0.15219
676.75781 0.14856
675.00000 0.14600
673.24219 0.14383
671.48438 0.14123
669.72656 0.13922
667.96875 0.13878
666.21094 0.13802
664.45313 0.13572
662.69531 0.13260
660.93750 0.13122
659.17969 0.13236
657.42188 0.13430
655.66406 0.13578
653.90625 0.13594
652.14844 0.13418
650.39063 0.13173
648.63281 0.13022
646.87500 0.12990
645.11719 0.13021
643.35938 0.13080
641.60156 0.13189
639.84375 0.13293
638.08594 0.13290
636.32813 0.13217
634.57031 0.13177
632.81250 0.13138
631.05469 0.12991
629.29688 0.12847
627.53906 0.13064
625.78125 0.13702
624.02344 0.14275
622.26563 0.14394
620.50781 0.14243
618.75000 0.13996
616.99219 0.13511
615.23438 0.13084
613.47656 0.13150
611.71875 0.13473
609.96094 0.13781
608.20313 0.14181
606.44531 0.14457
604.68750 0.14241
602.92969 0.13782
601.17188 0.13597
599.41406 0.13885
