3997.26563 0.00443
3995.50781 0.00429
3993.75000 0.00426
3991.99219 0.00432
3990.23438 0.00443
3988.47656 0.00452
3986.71875 0.00450
3984.96094 0.00444
3983.20313 0.00449
3981.44531 0.00451
3979.68750 0.00441
3977.92969 0.00433
3976.17188 0.00439
3974.41406 0.00451
3972.65625 0.00448
3970.89844 0.00432
3969.14063 0.00425
3967.38281 0.00436
3965.62500 0.00456
3963.86719 0.00481
3962.10938 0.00501
3960.35156 0.00499
3958.59375 0.00474
3956.83594 0.00457
3955.07813 0.00468
3953.32031 0.00471
3951.56250 0.00446
3949.80469 0.00426
3948.04688 0.00445
3946.28906 0.00486
3944.53125 0.00514
3942.77344 0.00504
3941.01563 0.00472
3939.25781 0.00449
3937.50000 0.00451
3935.74219 0.00452
3933.98438 0.00432
3932.22656 0.00415
3930.46875 0.00426
3928.71094 0.00442
3926.95313 0.00444
3925.19531 0.00447
3923.43750 0.00452
3921.67969 0.00441
3919.92188 0.00417
3918.16406 0.00410
3916.40625 0.00449
3914.64844 0.00504
3912.89063 0.00528
3911.13281 0.00521
3909.37500 0.00489
3907.61719 0.00450
3905.85938 0.00431
3904.10156 0.00442
3902.34375 0.00439
3900.58594 0.00423
3898.82813 0.00445
3897.07031 0.00502
3895.31250 0.00537
3893.55469 0.00558
3891.79688 0.00552
3890.03906 0.00488
3888.28125 0.00428
3886.52344 0.00427
3884.76563 0.00462
3883.00781 0.00505
3881.25000 0.00542
3879.49219 0.00541
3877.73438 0.00531
3875.97656 0.00538
3874.21875 0.00528
3872.46094 0.00501
3870.70313 0.00485
3868.94531 0.00484
3867.18750 0.00517
3865.42969 0.00598
3863.67188 0.00598
3861.91406 0.00530
3860.15625 0.00481
3858.39844 0.00461
3856.64063 0.00462
3854.88281 0.00479
3853.12500 0.00504
3851.36719 0.00543
3849.60938 0.00588
3847.85156 0.00596
3846.09375 0.00562
3844.33594 0.00511
3842.57813 0.00465
3840.82031 0.00444
3839.06250 0.00457
3837.30469 0.00472
3835.54688 0.00471
3833.78906 0.00499
3832.03125 0.00538
3830.27344 0.00526
3828.51563 0.00514
3826.75781 0.00522
3825.00000 0.00513
3823.24219 0.00487
3821.48438 0.00478
3819.72656 0.00517
3817.96875 0.00561
3816.21094 0.00555
3814.45313 0.00555
3812.69531 0.00575
3810.93750 0.00558
3809.17969 0.00537
3807.42188 0.00530
3805.66406 0.00509
3803.90625 0.00480
3802.14844 0.00460
3800.39063 0.00447
3798.63281 0.00442
3796.87500 0.00454
3795.11719 0.00461
3793.35938 0.00448
3791.60156 0.00440
3789.84375 0.00449
3788.08594 0.00445
3786.32813 0.00430
3784.57031 0.00426
3782.81250 0.00452
3781.05469 0.00499
3779.29688 0.00518
3777.53906 0.00495
3775.78125 0.00454
3774.02344 0.00426
3772.26563 0.00447
3770.50781 0.00500
3768.75000 0.00502
3766.99219 0.00457
3765.23438 0.00428
3763.47656 0.00472
3761.71875 0.00550
3759.96094 0.00547
3758.20313 0.00521
3756.44531 0.00554
3754.68750 0.00593
3752.92969 0.00569
3751.17188 0.00532
3749.41406 0.00545
3747.65625 0.00618
3745.89844 0.00660
3744.14063 0.00624
3742.38281 0.00568
3740.62500 0.00524
3738.86719 0.00508
3737.10938 0.00514
3735.35156 0.00517
3733.59375 0.00520
3731.83594 0.00535
3730.07813 0.00549
3728.32031 0.00536
3726.56250 0.00490
3724.80469 0.00456
3723.04688 0.00489
3721.28906 0.00537
3719.53125 0.00525
3717.77344 0.00480
3716.01563 0.00446
3714.25781 0.00459
3712.50000 0.00504
3710.74219 0.00520
3708.98438 0.00508
3707.22656 0.00497
3705.46875 0.00494
3703.71094 0.00509
3701.95313 0.00568
3700.19531 0.00635
3698.43750 0.00619
3696.67969 0.00550
3694.92188 0.00485
3693.16406 0.00456
3691.40625 0.00463
3689.64844 0.00488
3687.89063 0.00541
3686.13281 0.00589
3684.37500 0.00581
3682.61719 0.00579
3680.85938 0.00597
3679.10156 0.00568
3677.34375 0.00510
3675.58594 0.00469
3673.82813 0.00456
3672.07031 0.00464
3670.31250 0.00492
3668.55469 0.00546
3666.79688 0.00581
3665.03906 0.00555
3663.28125 0.00528
3661.52344 0.00584
3659.76563 0.00677
3658.00781 0.00658
3656.25000 0.00589
3654.49219 0.00534
3652.73438 0.00507
3650.97656 0.00498
3649.21875 0.00492
3647.46094 0.00495
3645.70313 0.00505
3643.94531 0.00501
3642.18750 0.00500
3640.42969 0.00555
3638.67188 0.00610
3636.91406 0.00592
3635.15625 0.00558
3633.39844 0.00545
3631.64063 0.00569
3629.88281 0.00613
3628.12500 0.00631
3626.36719 0.00632
3624.60938 0.00621
3622.85156 0.00587
3621.09375 0.00559
3619.33594 0.00561
3617.57813 0.00564
3615.82031 0.00557
3614.06250 0.00566
3612.30469 0.00582
3610.54688 0.00579
3608.78906 0.00576
3607.03125 0.00590
3605.27344 0.00593
3603.51563 0.00566
3601.75781 0.00541
3600.00000 0.00553
3598.24219 0.00588
3596.48438 0.00578
3594.72656 0.00532
3592.96875 0.00506
3591.21094 0.00509
3589.45313 0.00513
3587.69531 0.00509
3585.93750 0.00508
3584.17969 0.00511
3582.42188 0.00518
3580.66406 0.00547
3578.90625 0.00612
3577.14844 0.00653
3575.39063 0.00614
3573.63281 0.00545
3571.87500 0.00493
3570.11719 0.00469
3568.35938 0.00475
3566.60156 0.00505
3564.84375 0.00541
3563.08594 0.00553
3561.32813 0.00535
3559.57031 0.00523
3557.81250 0.00537
3556.05469 0.00549
3554.29688 0.00541
3552.53906 0.00524
3550.78125 0.00508
3549.02344 0.00508
3547.26563 0.00529
3545.50781 0.00542
3543.75000 0.00532
3541.99219 0.00524
3540.23438 0.00540
3538.47656 0.00566
3536.71875 0.00570
3534.96094 0.00551
3533.20313 0.00529
3531.44531 0.00523
3529.68750 0.00526
3527.92969 0.00527
3526.17188 0.00529
3524.41406 0.00539
3522.65625 0.00542
3520.89844 0.00530
3519.14063 0.00515
3517.38281 0.00505
3515.62500 0.00504
3513.86719 0.00503
3512.10938 0.00500
3510.35156 0.00506
3508.59375 0.00527
3506.83594 0.00544
3505.07813 0.00544
3503.32031 0.00538
3501.56250 0.00537
3499.80469 0.00541
3498.04688 0.00555
3496.28906 0.00571
3494.53125 0.00584
3492.77344 0.00603
3491.01563 0.00625
3489.25781 0.00634
3487.50000 0.00623
3485.74219 0.00595
3483.98438 0.00570
3482.22656 0.00565
3480.46875 0.00569
3478.71094 0.00576
3476.95313 0.00585
3475.19531 0.00589
3473.43750 0.00582
3471.67969 0.00566
3469.92188 0.00559
3468.16406 0.00580
3466.40625 0.00609
3464.64844 0.00620
3462.89063 0.00613
3461.13281 0.00609
3459.37500 0.00618
3457.61719 0.00618
3455.85938 0.00594
3454.10156 0.00576
3452.34375 0.00587
3450.58594 0.00599
3448.82813 0.00584
3447.07031 0.00553
3445.31250 0.00538
3443.55469 0.00546
3441.79688 0.00567
3440.03906 0.00592
3438.28125 0.00609
3436.52344 0.00609
3434.76563 0.00602
3433.00781 0.00598
3431.25000 0.00586
3429.49219 0.00567
3427.73438 0.00560
3425.97656 0.00562
3424.21875 0.00563
3422.46094 0.00571
3420.70313 0.00585
3418.94531 0.00587
3417.18750 0.00582
3415.42969 0.00585
3413.67188 0.00589
3411.91406 0.00585
3410.15625 0.00578
3408.39844 0.00574
3406.64063 0.00584
3404.88281 0.00608
3403.12500 0.00614
3401.36719 0.00586
3399.60938 0.00558
3397.85156 0.00562
3396.09375 0.00569
3394.33594 0.00546
3392.57813 0.00510
3390.82031 0.00484
3389.06250 0.00478
3387.30469 0.00509
3385.54688 0.00566
3383.78906 0.00610
3382.03125 0.00618
3380.27344 0.00606
3378.51563 0.00595
3376.75781 0.00595
3375.00000 0.00604
3373.24219 0.00620
3371.48438 0.00636
3369.72656 0.00642
3367.96875 0.00631
3366.21094 0.00609
3364.45313 0.00596
3362.69531 0.00603
3360.93750 0.00614
3359.17969 0.00615
3357.42188 0.00611
3355.66406 0.00604
3353.90625 0.00592
3352.14844 0.00584
3350.39063 0.00580
3348.63281 0.00579
3346.87500 0.00583
3345.11719 0.00590
3343.35938 0.00586
3341.60156 0.00573
3339.84375 0.00564
3338.08594 0.00562
3336.32813 0.00568
3334.57031 0.00575
3332.81250 0.00573
3331.05469 0.00565
3329.29688 0.00572
3327.53906 0.00598
3325.78125 0.00620
3324.02344 0.00631
3322.26563 0.00637
3320.50781 0.00636
3318.75000 0.00635
3316.99219 0.00641
3315.23438 0.00645
3313.47656 0.00638
3311.71875 0.00630
3309.96094 0.00629
3308.20313 0.00624
3306.44531 0.00616
3304.68750 0.00612
3302.92969 0.00606
3301.17188 0.00598
3299.41406 0.00594
3297.65625 0.00599
3295.89844 0.00609
3294.14063 0.00614
3292.38281 0.00609
3290.62500 0.00610
3288.86719 0.00631
3287.10938 0.00656
3285.35156 0.00660
3283.59375 0.00644
3281.83594 0.00636
3280.07813 0.00641
3278.32031 0.00643
3276.56250 0.00647
3274.80469 0.00660
3273.04688 0.00669
3271.28906 0.00661
3269.53125 0.00645
3267.77344 0.00643
3266.01563 0.00652
3264.25781 0.00652
3262.50000 0.00646
3260.74219 0.00638
3258.98438 0.00622
3257.22656 0.00615
3255.46875 0.00631
3253.71094 0.00646
3251.95313 0.00647
3250.19531 0.00649
3248.43750 0.00649
3246.67969 0.00638
3244.92188 0.00626
3243.16406 0.00624
3241.40625 0.00626
3239.64844 0.00627
3237.89063 0.00630
3236.13281 0.00640
3234.37500 0.00647
3232.61719 0.00643
3230.85938 0.00644
3229.10156 0.00663
3227.34375 0.00678
3225.58594 0.00666
3223.82813 0.00644
3222.07031 0.00640
3220.31250 0.00651
3218.55469 0.00654
3216.79688 0.00644
3215.03906 0.00626
3213.28125 0.00612
3211.52344 0.00609
3209.76563 0.00619
3208.00781 0.00633
3206.25000 0.00646
3204.49219 0.00659
3202.73438 0.00671
3200.97656 0.00671
3199.21875 0.00656
3197.46094 0.00633
3195.70313 0.00622
3193.94531 0.00620
3192.18750 0.00616
3190.42969 0.00608
3188.67188 0.00610
3186.91406 0.00626
3185.15625 0.00642
3183.39844 0.00653
3181.64063 0.00658
3179.88281 0.00658
3178.12500 0.00652
3176.36719 0.00640
3174.60938 0.00626
3172.85156 0.00616
3171.09375 0.00615
3169.33594 0.00623
3167.57813 0.00638
3165.82031 0.00650
3164.06250 0.00649
3162.30469 0.00645
3160.54688 0.00647
3158.78906 0.00650
3157.03125 0.00652
3155.27344 0.00655
3153.51563 0.00656
3151.75781 0.00653
3150.00000 0.00645
3148.24219 0.00635
3146.48438 0.00625
3144.72656 0.00622
3142.96875 0.00623
3141.21094 0.00612
3139.45313 0.00587
3137.69531 0.00576
3135.93750 0.00593
3134.17969 0.00617
3132.42188 0.00626
3130.66406 0.00625
3128.90625 0.00627
3127.14844 0.00629
3125.39063 0.00623
3123.63281 0.00609
3121.87500 0.00593
3120.11719 0.00583
3118.35938 0.00583
3116.60156 0.00587
3114.84375 0.00589
3113.08594 0.00591
3111.32813 0.00597
3109.57031 0.00603
3107.81250 0.00601
3106.05469 0.00597
3104.29688 0.00598
3102.53906 0.00604
3100.78125 0.00606
3099.02344 0.00602
3097.26563 0.00591
3095.50781 0.00582
3093.75000 0.00582
3091.99219 0.00593
3090.23438 0.00607
3088.47656 0.00618
3086.71875 0.00622
3084.96094 0.00621
3083.20313 0.00613
3081.44531 0.00604
3079.68750 0.00604
3077.92969 0.00608
3076.17188 0.00604
3074.41406 0.00595
3072.65625 0.00587
3070.89844 0.00584
3069.14063 0.00590
3067.38281 0.00603
3065.62500 0.00612
3063.86719 0.00618
3062.10938 0.00625
3060.35156 0.00624
3058.59375 0.00614
3056.83594 0.00604
3055.07813 0.00607
3053.32031 0.00623
3051.56250 0.00640
3049.80469 0.00654
3048.04688 0.00670
3046.28906 0.00683
3044.53125 0.00693
3042.77344 0.00710
3041.01563 0.00728
3039.25781 0.00737
3037.50000 0.00745
3035.74219 0.00758
3033.98438 0.00766
3032.22656 0.00765
3030.46875 0.00766
3028.71094 0.00774
3026.95313 0.00784
3025.19531 0.00799
3023.43750 0.00809
3021.67969 0.00796
3019.92188 0.00770
3018.16406 0.00757
3016.40625 0.00763
3014.64844 0.00774
3012.89063 0.00777
3011.13281 0.00775
3009.37500 0.00774
3007.61719 0.00769
3005.85938 0.00758
3004.10156 0.00752
3002.34375 0.00758
3000.58594 0.00767
2998.82813 0.00767
2997.07031 0.00757
2995.31250 0.00752
2993.55469 0.00752
2991.79688 0.00746
2990.03906 0.00738
2988.28125 0.00737
2986.52344 0.00737
2984.76563 0.00729
2983.00781 0.00719
2981.25000 0.00715
2979.49219 0.00707
2977.73438 0.00692
2975.97656 0.00682
2974.21875 0.00687
2972.46094 0.00698
2970.70313 0.00701
2968.94531 0.00696
2967.18750 0.00694
2965.42969 0.00690
2963.67188 0.00679
2961.91406 0.00668
2960.15625 0.00669
2958.39844 0.00687
2956.64063 0.00706
2954.88281 0.00711
2953.12500 0.00703
2951.36719 0.00689
2949.60938 0.00673
2947.85156 0.00665
2946.09375 0.00662
2944.33594 0.00658
2942.57813 0.00654
2940.82031 0.00655
2939.06250 0.00654
2937.30469 0.00640
2935.54688 0.00618
2933.78906 0.00605
2932.03125 0.00601
2930.27344 0.00594
2928.51563 0.00584
2926.75781 0.00584
2925.00000 0.00601
2923.24219 0.00636
2921.48438 0.00678
2919.72656 0.00715
2917.96875 0.00745
2916.21094 0.00768
2914.45313 0.00780
2912.69531 0.00787
2910.93750 0.00799
2909.17969 0.00811
2907.42188 0.00823
2905.66406 0.00833
2903.90625 0.00830
2902.14844 0.00810
2900.39063 0.00789
2898.63281 0.00779
2896.87500 0.00781
2895.11719 0.00784
2893.35938 0.00787
2891.60156 0.00789
2889.84375 0.00788
2888.08594 0.00785
2886.32813 0.00779
2884.57031 0.00770
2882.81250 0.00760
2881.05469 0.00753
2879.29688 0.00746
2877.53906 0.00741
2875.78125 0.00735
2874.02344 0.00725
2872.26563 0.00710
2870.50781 0.00690
2868.75000 0.00670
2866.99219 0.00650
2865.23438 0.00620
2863.47656 0.00584
2861.71875 0.00556
2859.96094 0.00544
2858.20313 0.00541
2856.44531 0.00544
2854.68750 0.00555
2852.92969 0.00569
2851.17188 0.00579
2849.41406 0.00583
2847.65625 0.00586
2845.89844 0.00583
2844.14063 0.00571
2842.38281 0.00561
2840.62500 0.00556
2838.86719 0.00552
2837.10938 0.00554
2835.35156 0.00565
2833.59375 0.00577
2831.83594 0.00578
2830.07813 0.00573
2828.32031 0.00568
2826.56250 0.00564
2824.80469 0.00562
2823.04688 0.00566
2821.28906 0.00571
2819.53125 0.00570
2817.77344 0.00562
2816.01563 0.00559
2814.25781 0.00562
2812.50000 0.00569
2810.74219 0.00572
2808.98438 0.00567
2807.22656 0.00559
2805.46875 0.00553
2803.71094 0.00548
2801.95313 0.00549
2800.19531 0.00557
2798.43750 0.00559
2796.67969 0.00550
2794.92188 0.00535
2793.16406 0.00527
2791.40625 0.00534
2789.64844 0.00544
2787.89063 0.00544
2786.13281 0.00540
2784.37500 0.00541
2782.61719 0.00546
2780.85938 0.00551
2779.10156 0.00553
2777.34375 0.00549
2775.58594 0.00544
2773.82813 0.00543
2772.07031 0.00542
2770.31250 0.00535
2768.55469 0.00529
2766.79688 0.00528
2765.03906 0.00526
2763.28125 0.00524
2761.52344 0.00523
2759.76563 0.00525
2758.00781 0.00534
2756.25000 0.00546
2754.49219 0.00551
2752.73438 0.00549
2750.97656 0.00546
2749.21875 0.00540
2747.46094 0.00530
2745.70313 0.00524
2743.94531 0.00524
2742.18750 0.00525
2740.42969 0.00528
2738.67188 0.00534
2736.91406 0.00542
2735.15625 0.00548
2733.39844 0.00548
2731.64063 0.00543
2729.88281 0.00540
2728.12500 0.00539
2726.36719 0.00535
2724.60938 0.00530
2722.85156 0.00528
2721.09375 0.00530
2719.33594 0.00536
2717.57813 0.00541
2715.82031 0.00535
2714.06250 0.00525
2712.30469 0.00520
2710.54688 0.00524
2708.78906 0.00530
2707.03125 0.00529
2705.27344 0.00523
2703.51563 0.00518
2701.75781 0.00521
2700.00000 0.00533
2698.24219 0.00540
2696.48438 0.00535
2694.72656 0.00524
2692.96875 0.00520
2691.21094 0.00527
2689.45313 0.00539
2687.69531 0.00547
2685.93750 0.00551
2684.17969 0.00553
2682.42188 0.00549
2680.66406 0.00540
2678.90625 0.00537
2677.14844 0.00546
2675.39063 0.00562
2673.63281 0.00572
2671.87500 0.00567
2670.11719 0.00557
2668.35938 0.00555
2666.60156 0.00562
2664.84375 0.00572
2663.08594 0.00584
2661.32813 0.00597
2659.57031 0.00608
2657.81250 0.00615
2656.05469 0.00619
2654.29688 0.00626
2652.53906 0.00638
2650.78125 0.00653
2649.02344 0.00667
2647.26563 0.00679
2645.50781 0.00690
2643.75000 0.00702
2641.99219 0.00713
2640.23438 0.00721
2638.47656 0.00725
2636.71875 0.00721
2634.96094 0.00715
2633.20313 0.00711
2631.44531 0.00707
2629.68750 0.00698
2627.92969 0.00689
2626.17188 0.00683
2624.41406 0.00673
2622.65625 0.00654
2620.89844 0.00635
2619.14063 0.00626
2617.38281 0.00628
2615.62500 0.00633
2613.86719 0.00634
2612.10938 0.00627
2610.35156 0.00622
2608.59375 0.00625
2606.83594 0.00637
2605.07813 0.00649
2603.32031 0.00651
2601.56250 0.00649
2599.80469 0.00656
2598.04688 0.00674
2596.28906 0.00698
2594.53125 0.00717
2592.77344 0.00726
2591.01563 0.00727
2589.25781 0.00728
2587.50000 0.00735
2585.74219 0.00748
2583.98438 0.00759
2582.22656 0.00756
2580.46875 0.00744
2578.71094 0.00740
2576.95313 0.00747
2575.19531 0.00759
2573.43750 0.00774
2571.67969 0.00793
2569.92188 0.00811
2568.16406 0.00827
2566.40625 0.00844
2564.64844 0.00861
2562.89063 0.00877
2561.13281 0.00893
2559.37500 0.00909
2557.61719 0.00918
2555.85938 0.00920
2554.10156 0.00927
2552.34375 0.00942
2550.58594 0.00958
2548.82813 0.00967
2547.07031 0.00972
2545.31250 0.00979
2543.55469 0.00986
2541.79688 0.00988
2540.03906 0.00991
2538.28125 0.01000
2536.52344 0.01012
2534.76563 0.01019
2533.00781 0.01018
2531.25000 0.01009
2529.49219 0.00993
2527.73438 0.00969
2525.97656 0.00935
2524.21875 0.00898
2522.46094 0.00858
2520.70313 0.00821
2518.94531 0.00792
2517.18750 0.00770
2515.42969 0.00745
2513.67188 0.00719
2511.91406 0.00698
2510.15625 0.00681
2508.39844 0.00660
2506.64063 0.00639
2504.88281 0.00622
2503.12500 0.00608
2501.36719 0.00597
2499.60938 0.00590
2497.85156 0.00587
2496.09375 0.00587
2494.33594 0.00583
2492.57813 0.00567
2490.82031 0.00547
2489.06250 0.00532
2487.30469 0.00524
2485.54688 0.00524
2483.78906 0.00528
2482.03125 0.00527
2480.27344 0.00521
2478.51563 0.00514
2476.75781 0.00507
2475.00000 0.00501
2473.24219 0.00498
2471.48438 0.00498
2469.72656 0.00498
2467.96875 0.00499
2466.21094 0.00493
2464.45313 0.00482
2462.69531 0.00476
2460.93750 0.00480
2459.17969 0.00482
2457.42188 0.00479
2455.66406 0.00477
2453.90625 0.00479
2452.14844 0.00477
2450.39063 0.00469
2448.63281 0.00461
2446.87500 0.00456
2445.11719 0.00452
2443.35938 0.00452
2441.60156 0.00460
2439.84375 0.00471
2438.08594 0.00473
2436.32813 0.00467
2434.57031 0.00463
2432.81250 0.00462
2431.05469 0.00458
2429.29688 0.00458
2427.53906 0.00459
2425.78125 0.00457
2424.02344 0.00453
2422.26563 0.00449
2420.50781 0.00442
2418.75000 0.00433
2416.99219 0.00430
2415.23438 0.00434
2413.47656 0.00437
2411.71875 0.00432
2409.96094 0.00430
2408.20313 0.00433
2406.44531 0.00434
2404.68750 0.00433
2402.92969 0.00430
2401.17188 0.00422
2399.41406 0.00415
2397.65625 0.00416
2395.89844 0.00420
2394.14063 0.00418
2392.38281 0.00416
2390.62500 0.00422
2388.86719 0.00433
2387.10938 0.00445
2385.35156 0.00451
2383.59375 0.00451
2381.83594 0.00457
2380.07813 0.00472
2378.32031 0.00473
2376.56250 0.00457
2374.80469 0.00450
2373.04688 0.00454
2371.28906 0.00436
2369.53125 0.00399
2367.77344 0.00380
2366.01563 0.00405
2364.25781 0.00459
2362.50000 0.00501
2360.74219 0.00521
2358.98438 0.00514
2357.22656 0.00480
2355.46875 0.00440
2353.71094 0.00420
2351.95313 0.00421
2350.19531 0.00430
2348.43750 0.00445
2346.67969 0.00459
2344.92188 0.00446
2343.16406 0.00403
2341.40625 0.00372
2339.64844 0.00391
2337.89063 0.00448
2336.13281 0.00495
2334.37500 0.00508
2332.61719 0.00492
2330.85938 0.00466
2329.10156 0.00452
2327.34375 0.00453
2325.58594 0.00452
2323.82813 0.00443
2322.07031 0.00435
2320.31250 0.00435
2318.55469 0.00439
2316.79688 0.00436
2315.03906 0.00431
2313.28125 0.00433
2311.52344 0.00440
2309.76563 0.00447
2308.00781 0.00443
2306.25000 0.00423
2304.49219 0.00400
2302.73438 0.00387
2300.97656 0.00386
2299.21875 0.00393
2297.46094 0.00399
2295.70313 0.00398
2293.94531 0.00392
2292.18750 0.00385
2290.42969 0.00376
2288.67188 0.00368
2286.91406 0.00367
2285.15625 0.00374
2283.39844 0.00374
2281.64063 0.00362
2279.88281 0.00351
2278.12500 0.00354
2276.36719 0.00363
2274.60938 0.00369
2272.85156 0.00371
2271.09375 0.00371
2269.33594 0.00365
2267.57813 0.00353
2265.82031 0.00348
2264.06250 0.00352
2262.30469 0.00351
2260.54688 0.00340
2258.78906 0.00329
2257.03125 0.00329
2255.27344 0.00338
2253.51563 0.00349
2251.75781 0.00354
2250.00000 0.00355
2248.24219 0.00354
2246.48438 0.00347
2244.72656 0.00337
2242.96875 0.00333
2241.21094 0.00332
2239.45313 0.00330
2237.69531 0.00329
2235.93750 0.00334
2234.17969 0.00338
2232.42188 0.00332
2230.66406 0.00319
2228.90625 0.00311
2227.14844 0.00310
2225.39063 0.00308
2223.63281 0.00312
2221.87500 0.00323
2220.11719 0.00330
2218.35938 0.00326
2216.60156 0.00322
2214.84375 0.00322
2213.08594 0.00322
2211.32813 0.00329
2209.57031 0.00338
2207.81250 0.00341
2206.05469 0.00342
2204.29688 0.00342
2202.53906 0.00340
2200.78125 0.00336
2199.02344 0.00331
2197.26563 0.00321
2195.50781 0.00308
2193.75000 0.00305
2191.99219 0.00312
2190.23438 0.00317
2188.47656 0.00319
2186.71875 0.00324
2184.96094 0.00328
2183.20313 0.00326
2181.44531 0.00324
2179.68750 0.00321
2177.92969 0.00316
2176.17188 0.00311
2174.41406 0.00306
2172.65625 0.00303
2170.89844 0.00306
2169.14063 0.00316
2167.38281 0.00319
2165.62500 0.00314
2163.86719 0.00306
2162.10938 0.00300
2160.35156 0.00296
2158.59375 0.00295
2156.83594 0.00295
2155.07813 0.00292
2153.32031 0.00285
2151.56250 0.00280
2149.80469 0.00276
2148.04688 0.00272
2146.28906 0.00266
2144.53125 0.00264
2142.77344 0.00271
2141.01563 0.00278
2139.25781 0.00279
2137.50000 0.00274
2135.74219 0.00265
2133.98438 0.00257
2132.22656 0.00255
2130.46875 0.00259
2128.71094 0.00260
2126.95313 0.00253
2125.19531 0.00246
2123.43750 0.00245
2121.67969 0.00248
2119.92188 0.00243
2118.16406 0.00230
2116.40625 0.00214
2114.64844 0.00208
2112.89063 0.00215
2111.13281 0.00226
2109.37500 0.00231
2107.61719 0.00229
2105.85938 0.00224
2104.10156 0.00218
2102.34375 0.00212
2100.58594 0.00209
2098.82813 0.00211
2097.07031 0.00212
2095.31250 0.00208
2093.55469 0.00203
2091.79688 0.00197
2090.03906 0.00190
2088.28125 0.00184
2086.52344 0.00178
2084.76563 0.00176
2083.00781 0.00173
2081.25000 0.00171
2079.49219 0.00172
2077.73438 0.00175
2075.97656 0.00174
2074.21875 0.00173
2072.46094 0.00180
2070.70313 0.00186
2068.94531 0.00183
2067.18750 0.00177
2065.42969 0.00176
2063.67188 0.00173
2061.91406 0.00163
2060.15625 0.00155
2058.39844 0.00160
2056.64063 0.00173
2054.88281 0.00180
2053.12500 0.00176
2051.36719 0.00169
2049.60938 0.00162
2047.85156 0.00157
2046.09375 0.00155
2044.33594 0.00157
2042.57813 0.00159
2040.82031 0.00155
2039.06250 0.00150
2037.30469 0.00147
2035.54688 0.00143
2033.78906 0.00142
2032.03125 0.00151
2030.27344 0.00165
2028.51563 0.00176
2026.75781 0.00176
2025.00000 0.00165
2023.24219 0.00149
2021.48438 0.00137
2019.72656 0.00133
2017.96875 0.00136
2016.21094 0.00140
2014.45313 0.00139
2012.69531 0.00135
2010.93750 0.00132
2009.17969 0.00132
2007.42188 0.00137
2005.66406 0.00146
2003.90625 0.00151
2002.14844 0.00148
2000.39063 0.00147
1998.63281 0.00152
1996.87500 0.00156
1995.11719 0.00153
1993.35938 0.00145
1991.60156 0.00136
1989.84375 0.00128
1988.08594 0.00123
1986.32813 0.00121
1984.57031 0.00122
1982.81250 0.00127
1981.05469 0.00135
1979.29688 0.00140
1977.53906 0.00129
1975.78125 0.00113
1974.02344 0.00108
1972.26563 0.00108
1970.50781 0.00100
1968.75000 0.00090
1966.99219 0.00086
1965.23438 0.00082
1963.47656 0.00078
1961.71875 0.00081
1959.96094 0.00088
1958.20313 0.00087
1956.44531 0.00081
1954.68750 0.00079
1952.92969 0.00085
1951.17188 0.00104
1949.41406 0.00134
1947.65625 0.00150
1945.89844 0.00131
1944.14063 0.00102
1942.38281 0.00082
1940.62500 0.00073
1938.86719 0.00071
1937.10938 0.00072
1935.35156 0.00075
1933.59375 0.00079
1931.83594 0.00087
1930.07813 0.00096
1928.32031 0.00101
1926.56250 0.00103
1924.80469 0.00103
1923.04688 0.00098
1921.28906 0.00089
1919.53125 0.00086
1917.77344 0.00091
1916.01563 0.00095
1914.25781 0.00092
1912.50000 0.00082
1910.74219 0.00071
1908.98438 0.00067
1907.22656 0.00070
1905.46875 0.00076
1903.71094 0.00083
1901.95313 0.00095
1900.19531 0.00104
1898.43750 0.00107
1896.67969 0.00106
1894.92188 0.00103
1893.16406 0.00097
1891.40625 0.00095
1889.64844 0.00093
1887.89063 0.00090
1886.13281 0.00093
1884.37500 0.00100
1882.61719 0.00100
1880.85938 0.00093
1879.10156 0.00089
1877.34375 0.00099
1875.58594 0.00125
1873.82813 0.00149
1872.07031 0.00143
1870.31250 0.00121
1868.55469 0.00103
1866.79688 0.00097
1865.03906 0.00099
1863.28125 0.00105
1861.52344 0.00113
1859.76563 0.00121
1858.00781 0.00128
1856.25000 0.00134
1854.49219 0.00143
1852.73438 0.00155
1850.97656 0.00178
1849.21875 0.00204
1847.46094 0.00210
1845.70313 0.00207
1843.94531 0.00220
1842.18750 0.00255
1840.42969 0.00295
1838.67188 0.00333
1836.91406 0.00388
1835.15625 0.00464
1833.39844 0.00528
1831.64063 0.00585
1829.88281 0.00646
1828.12500 0.00687
1826.36719 0.00698
1824.60938 0.00694
1822.85156 0.00684
1821.09375 0.00670
1819.33594 0.00659
1817.57813 0.00651
1815.82031 0.00628
1814.06250 0.00576
1812.30469 0.00513
1810.54688 0.00466
1808.78906 0.00438
1807.03125 0.00415
1805.27344 0.00384
1803.51563 0.00348
1801.75781 0.00321
1800.00000 0.00311
1798.24219 0.00314
1796.48438 0.00305
1794.72656 0.00276
1792.96875 0.00248
1791.21094 0.00235
1789.45313 0.00233
1787.69531 0.00235
1785.93750 0.00239
1784.17969 0.00239
1782.42188 0.00236
1780.66406 0.00236
1778.90625 0.00247
1777.14844 0.00258
1775.39063 0.00247
1773.63281 0.00231
1771.87500 0.00218
1770.11719 0.00203
1768.35938 0.00194
1766.60156 0.00199
1764.84375 0.00206
1763.08594 0.00206
1761.32813 0.00197
1759.57031 0.00185
1757.81250 0.00191
1756.05469 0.00229
1754.29688 0.00264
1752.53906 0.00261
1750.78125 0.00239
1749.02344 0.00219
1747.26563 0.00210
1745.50781 0.00211
1743.75000 0.00206
1741.99219 0.00194
1740.23438 0.00207
1738.47656 0.00239
1736.71875 0.00242
1734.96094 0.00227
1733.20313 0.00216
1731.44531 0.00211
1729.68750 0.00216
1727.92969 0.00230
1726.17188 0.00240
1724.41406 0.00256
1722.65625 0.00294
1720.89844 0.00321
1719.14063 0.00304
1717.38281 0.00276
1715.62500 0.00255
1713.86719 0.00249
1712.10938 0.00265
1710.35156 0.00292
1708.59375 0.00301
1706.83594 0.00312
1705.07813 0.00355
1703.32031 0.00394
1701.56250 0.00396
1699.80469 0.00371
1698.04688 0.00343
1696.28906 0.00332
1694.53125 0.00342
1692.77344 0.00356
1691.01563 0.00378
1689.25781 0.00423
1687.50000 0.00432
1685.74219 0.00401
1683.98438 0.00366
1682.22656 0.00350
1680.46875 0.00364
1678.71094 0.00387
1676.95313 0.00399
1675.19531 0.00418
1673.43750 0.00430
1671.67969 0.00417
1669.92188 0.00410
1668.16406 0.00425
1666.40625 0.00435
1664.64844 0.00422
1662.89063 0.00406
1661.13281 0.00407
1659.37500 0.00451
1657.61719 0.00525
1655.85938 0.00526
1654.10156 0.00508
1652.34375 0.00522
1650.58594 0.00538
1648.82813 0.00525
1647.07031 0.00512
1645.31250 0.00511
1643.55469 0.00525
1641.79688 0.00555
1640.03906 0.00565
1638.28125 0.00537
1636.52344 0.00509
1634.76563 0.00501
1633.00781 0.00518
1631.25000 0.00545
1629.49219 0.00574
1627.73438 0.00597
1625.97656 0.00608
1624.21875 0.00626
1622.46094 0.00684
1620.70313 0.00763
1618.94531 0.00801
1617.18750 0.00827
1615.42969 0.00875
1613.67188 0.00941
1611.91406 0.01010
1610.15625 0.01075
1608.39844 0.01132
1606.64063 0.01178
1604.88281 0.01212
1603.12500 0.01245
1601.36719 0.01284
1599.60938 0.01324
1597.85156 0.01350
1596.09375 0.01365
1594.33594 0.01377
1592.57813 0.01395
1590.82031 0.01425
1589.06250 0.01473
1587.30469 0.01531
1585.54688 0.01585
1583.78906 0.01650
1582.03125 0.01791
1580.27344 0.02021
1578.51563 0.02199
1576.75781 0.02378
1575.00000 0.02730
1573.24219 0.03191
1571.48438 0.03555
1569.72656 0.03858
1567.96875 0.04108
1566.21094 0.04295
1564.45313 0.04655
1562.69531 0.05283
1560.93750 0.05588
1559.17969 0.05754
1557.42188 0.05928
1555.66406 0.06120
1553.90625 0.06327
1552.14844 0.06511
1550.39063 0.06687
1548.63281 0.06906
1546.87500 0.07171
1545.11719 0.07539
1543.35938 0.07831
1541.60156 0.07951
1539.84375 0.08092
1538.08594 0.08335
1536.32813 0.08554
1534.57031 0.08695
1532.81250 0.08867
1531.05469 0.09111
1529.29688 0.09346
1527.53906 0.09598
1525.78125 0.09909
1524.02344 0.10150
1522.26563 0.10374
1520.50781 0.10637
1518.75000 0.10859
1516.99219 0.11042
1515.23438 0.11227
1513.47656 0.11481
1511.71875 0.11958
1509.96094 0.12343
1508.20313 0.12494
1506.44531 0.12640
1504.68750 0.12853
1502.92969 0.13151
1501.17188 0.13502
1499.41406 0.13774
1497.65625 0.13965
1495.89844 0.14213
1494.14063 0.14598
1492.38281 0.14974
1490.62500 0.15245
1488.86719 0.15484
1487.10938 0.15753
1485.35156 0.16058
1483.59375 0.16359
1481.83594 0.16655
1480.07813 0.16986
1478.32031 0.17433
1476.56250 0.17969
1474.80469 0.18353
1473.04688 0.18627
1471.28906 0.18977
1469.53125 0.19483
1467.77344 0.19982
1466.01563 0.20334
1464.25781 0.20673
1462.50000 0.21256
1460.74219 0.21996
1458.98438 0.22431
1457.22656 0.22730
1455.46875 0.23065
1453.71094 0.23482
1451.95313 0.23976
1450.19531 0.24455
1448.43750 0.24877
1446.67969 0.25297
1444.92188 0.25716
1443.16406 0.26177
1441.40625 0.26838
1439.64844 0.27546
1437.89063 0.28040
1436.13281 0.28484
1434.37500 0.29003
1432.61719 0.29497
1430.85938 0.29887
1429.10156 0.30232
1427.34375 0.30529
1425.58594 0.30722
1423.82813 0.30804
1422.07031 0.30690
1420.31250 0.30375
1418.55469 0.29954
1416.79688 0.29475
1415.03906 0.29001
1413.28125 0.28582
1411.52344 0.28187
1409.76563 0.27736
1408.00781 0.27235
1406.25000 0.26755
1404.49219 0.26245
1402.73438 0.25651
1400.97656 0.25014
1399.21875 0.24342
1397.46094 0.23713
1395.70313 0.23210
1393.94531 0.22758
1392.18750 0.22251
1390.42969 0.21710
1388.67188 0.21226
1386.91406 0.20796
1385.15625 0.20384
1383.39844 0.19996
1381.64063 0.19634
1379.88281 0.19265
1378.12500 0.18863
1376.36719 0.18481
1374.60938 0.18127
1372.85156 0.17742
1371.09375 0.17339
1369.33594 0.16954
1367.57813 0.16553
1365.82031 0.16137
1364.06250 0.15775
1362.30469 0.15468
1360.54688 0.15175
1358.78906 0.14876
1357.03125 0.14574
1355.27344 0.14282
1353.51563 0.14016
1351.75781 0.13774
1350.00000 0.13544
1348.24219 0.13323
1346.48438 0.13112
1344.72656 0.12899
1342.96875 0.12667
1341.21094 0.12428
1339.45313 0.12198
1337.69531 0.11972
1335.93750 0.11747
1334.17969 0.11524
1332.42188 0.11309
1330.66406 0.11103
1328.90625 0.10900
1327.14844 0.10701
1325.39063 0.10511
1323.63281 0.10318
1321.87500 0.10111
1320.11719 0.09908
1318.35938 0.09732
1316.60156 0.09594
1314.84375 0.09483
1313.08594 0.09379
1311.32813 0.09259
1309.57031 0.09121
1307.81250 0.08975
1306.05469 0.08826
1304.29688 0.08675
1302.53906 0.08521
1300.78125 0.08368
1299.02344 0.08221
1297.26563 0.08077
1295.50781 0.07941
1293.75000 0.07813
1291.99219 0.07684
1290.23438 0.07544
1288.47656 0.07401
1286.71875 0.07260
1284.96094 0.07117
1283.20313 0.06976
1281.44531 0.06845
1279.68750 0.06720
1277.92969 0.06596
1276.17188 0.06483
1274.41406 0.06390
1272.65625 0.06310
1270.89844 0.06235
1269.14063 0.06162
1267.38281 0.06091
1265.62500 0.06022
1263.86719 0.05954
1262.10938 0.05883
1260.35156 0.05804
1258.59375 0.05725
1256.83594 0.05657
1255.07813 0.05594
1253.32031 0.05527
1251.56250 0.05456
1249.80469 0.05386
1248.04688 0.05319
1246.28906 0.05257
1244.53125 0.05197
1242.77344 0.05136
1241.01563 0.05074
1239.25781 0.05017
1237.50000 0.04974
1235.74219 0.04938
1233.98438 0.04892
1232.22656 0.04829
1230.46875 0.04758
1228.71094 0.04686
1226.95313 0.04607
1225.19531 0.04518
1223.43750 0.04429
1221.67969 0.04350
1219.92188 0.04282
1218.16406 0.04220
1216.40625 0.04160
1214.64844 0.04103
1212.89063 0.04049
1211.13281 0.03997
1209.37500 0.03950
1207.61719 0.03905
1205.85938 0.03862
1204.10156 0.03822
1202.34375 0.03789
1200.58594 0.03760
1198.82813 0.03733
1197.07031 0.03707
1195.31250 0.03681
1193.55469 0.03649
1191.79688 0.03610
1190.03906 0.03567
1188.28125 0.03525
1186.52344 0.03486
1184.76563 0.03441
1183.00781 0.03386
1181.25000 0.03322
1179.49219 0.03257
1177.73438 0.03197
1175.97656 0.03143
1174.21875 0.03091
1172.46094 0.03041
1170.70313 0.02992
1168.94531 0.02938
1167.18750 0.02880
1165.42969 0.02826
1163.67188 0.02781
1161.91406 0.02740
1160.15625 0.02705
1158.39844 0.02681
1156.64063 0.02662
1154.88281 0.02646
1153.12500 0.02636
1151.36719 0.02624
1149.60938 0.02603
1147.85156 0.02571
1146.09375 0.02531
1144.33594 0.02486
1142.57813 0.02447
1140.82031 0.02415
1139.06250 0.02385
1137.30469 0.02351
1135.54688 0.02318
1133.78906 0.02291
1132.03125 0.02273
1130.27344 0.02256
1128.51563 0.02235
1126.75781 0.02210
1125.00000 0.02183
1123.24219 0.02162
1121.48438 0.02149
1119.72656 0.02135
1117.96875 0.02119
1116.21094 0.02105
1114.45313 0.02094
1112.69531 0.02080
1110.93750 0.02070
1109.17969 0.02076
1107.42188 0.02101
1105.66406 0.02137
1103.90625 0.02164
1102.14844 0.02158
1100.39063 0.02113
1098.63281 0.02051
1096.87500 0.01998
1095.11719 0.01963
1093.35938 0.01940
1091.60156 0.01919
1089.84375 0.01892
1088.08594 0.01859
1086.32813 0.01832
1084.57031 0.01818
1082.81250 0.01807
1081.05469 0.01791
1079.29688 0.01772
1077.53906 0.01753
1075.78125 0.01731
1074.02344 0.01704
1072.26563 0.01682
1070.50781 0.01665
1068.75000 0.01643
1066.99219 0.01616
1065.23438 0.01591
1063.47656 0.01567
1061.71875 0.01533
1059.96094 0.01487
1058.20313 0.01442
1056.44531 0.01418
1054.68750 0.01410
1052.92969 0.01402
1051.17188 0.01389
1049.41406 0.01377
1047.65625 0.01368
1045.89844 0.01357
1044.14063 0.01341
1042.38281 0.01319
1040.62500 0.01295
1038.86719 0.01274
1037.10938 0.01257
1035.35156 0.01240
1033.59375 0.01219
1031.83594 0.01194
1030.07813 0.01163
1028.32031 0.01129
1026.56250 0.01095
1024.80469 0.01063
1023.04688 0.01037
1021.28906 0.01024
1019.53125 0.01030
1017.77344 0.01037
1016.01563 0.01034
1014.25781 0.01024
1012.50000 0.01019
1010.74219 0.01017
1008.98438 0.01009
1007.22656 0.00997
1005.46875 0.00987
1003.71094 0.00983
1001.95313 0.00986
1000.19531 0.00991
998.43750 0.00990
996.67969 0.00977
994.92188 0.00960
993.16406 0.00951
991.40625 0.00955
989.64844 0.00956
987.89063 0.00944
986.13281 0.00932
984.37500 0.00929
982.61719 0.00924
980.85938 0.00910
979.10156 0.00897
977.34375 0.00888
975.58594 0.00878
973.82813 0.00866
972.07031 0.00857
970.31250 0.00847
968.55469 0.00833
966.79688 0.00817
965.03906 0.00807
963.28125 0.00798
961.52344 0.00787
959.76563 0.00774
958.00781 0.00767
956.25000 0.00764
954.49219 0.00763
952.73438 0.00764
950.97656 0.00772
949.21875 0.00784
947.46094 0.00786
945.70313 0.00775
943.94531 0.00767
942.18750 0.00772
940.42969 0.00778
938.67188 0.00776
936.91406 0.00773
935.15625 0.00771
933.39844 0.00767
931.64063 0.00765
929.88281 0.00771
928.12500 0.00783
926.36719 0.00798
924.60938 0.00811
922.85156 0.00821
921.09375 0.00830
919.33594 0.00843
917.57813 0.00861
915.82031 0.00886
914.06250 0.00920
912.30469 0.00954
910.54688 0.00992
908.78906 0.01047
907.03125 0.01124
905.27344 0.01226
903.51563 0.01382
901.75781 0.01662
900.00000 0.02184
898.24219 0.03081
896.48438 0.04407
894.72656 0.06099
892.96875 0.08048
891.21094 0.10180
889.45313 0.12447
887.69531 0.14745
885.93750 0.16902
884.17969 0.18741
882.42188 0.20132
880.66406 0.20977
878.90625 0.21234
877.14844 0.20884
875.39063 0.19871
873.63281 0.18172
871.87500 0.15965
870.11719 0.13574
868.35938 0.11270
866.60156 0.09190
864.84375 0.07395
863.08594 0.05919
861.32813 0.04781
859.57031 0.04093
857.81250 0.04001
856.05469 0.04206
854.29688 0.04014
852.53906 0.03256
850.78125 0.02413
849.02344 0.01813
847.26563 0.01447
845.50781 0.01222
843.75000 0.01047
841.99219 0.00871
840.23438 0.00716
838.47656 0.00615
836.71875 0.00550
834.96094 0.00481
833.20313 0.00404
831.44531 0.00332
829.68750 0.00270
827.92969 0.00223
826.17188 0.00189
824.41406 0.00157
822.65625 0.00118
820.89844 0.00084
819.14063 0.00060
817.38281 0.00039
815.62500 0.00017
813.86719 0.00001
812.10938 -0.00012
810.35156 -0.00033
808.59375 -0.00066
806.83594 -0.00089
805.07813 -0.00090
803.32031 -0.00095
801.56250 -0.00124
799.80469 -0.00162
798.04688 -0.00191
796.28906 -0.00212
794.53125 -0.00220
792.77344 -0.00215
791.01563 -0.00214
789.25781 -0.00229
787.50000 -0.00255
785.74219 -0.00279
783.98438 -0.00280
782.22656 -0.00256
780.46875 -0.00235
778.71094 -0.00240
776.95313 -0.00258
775.19531 -0.00271
773.43750 -0.00274
771.67969 -0.00260
769.92188 -0.00234
768.16406 -0.00217
766.40625 -0.00220
764.64844 -0.00229
762.89063 -0.00234
761.13281 -0.00230
759.37500 -0.00214
757.61719 -0.00189
755.85938 -0.00163
754.10156 -0.00132
752.34375 -0.00085
750.58594 -0.00017
748.82813 0.00060
747.07031 0.00154
745.31250 0.00298
743.55469 0.00521
741.79688 0.00847
740.03906 0.01347
738.28125 0.02186
736.52344 0.03628
734.76563 0.05822
733.00781 0.08293
731.25000 0.09772
729.49219 0.09249
727.73438 0.07208
725.97656 0.04948
724.21875 0.03219
722.46094 0.02078
720.70313 0.01364
718.94531 0.00906
717.18750 0.00587
715.42969 0.00382
713.67188 0.00283
711.91406 0.00234
710.15625 0.00173
708.39844 0.00087
706.64063 0.00000
704.88281 -0.00048
703.12500 -0.00058
701.36719 -0.00076
699.60938 -0.00132
697.85156 -0.00212
696.09375 -0.00279
694.33594 -0.00307
692.57813 -0.00286
690.82031 -0.00238
689.06250 -0.00200
687.30469 -0.00201
685.54688 -0.00255
683.78906 -0.00337
682.03125 -0.00371
680.27344 -0.00371
678.51563 -0.00428
676.75781 -0.00500
675.00000 -0.00455
673.24219 -0.00315
671.48438 -0.00264
669.72656 -0.00422
667.96875 -0.00513
666.21094 -0.00428
664.45313 -0.00341
662.69531 -0.00381
660.93750 -0.00459
659.17969 -0.00494
657.42188 -0.00591
655.66406 -0.00736
653.90625 -0.00798
652.14844 -0.00772
650.39063 -0.00675
648.63281 -0.00576
646.87500 -0.00598
645.11719 -0.00627
643.35938 -0.00469
641.60156 -0.00284
639.84375 -0.00367
638.08594 -0.00610
636.32813 -0.00693
634.57031 -0.00542
632.81250 -0.00336
631.05469 -0.00273
629.29688 -0.00323
627.53906 -0.00243
625.78125 0.00028
624.02344 0.00333
622.26563 0.00496
620.50781 0.00306
618.75000 -0.00193
616.99219 -0.00604
615.23438 -0.00782
613.47656 -0.00921
611.71875 -0.01101
609.96094 -0.01142
608.20313 -0.00853
606.44531 -0.00448
604.68750 -0.00345
602.92969 -0.00443
601.17188 -0.00346
599.41406 -0.00206
