3997.26563 0.07061
3995.50781 0.07041
3993.75000 0.07029
3991.99219 0.07038
3990.23438 0.07059
3988.47656 0.07077
3986.71875 0.07085
3984.96094 0.07084
3983.20313 0.07081
3981.44531 0.07082
3979.68750 0.07078
3977.92969 0.07067
3976.17188 0.07064
3974.41406 0.07078
3972.65625 0.07082
3970.89844 0.07065
3969.14063 0.07050
3967.38281 0.07057
3965.62500 0.07085
3963.86719 0.07121
3962.10938 0.07146
3960.35156 0.07140
3958.59375 0.07113
3956.83594 0.07102
3955.07813 0.07107
3953.32031 0.07093
3951.56250 0.07060
3949.80469 0.07046
3948.04688 0.07066
3946.28906 0.07108
3944.53125 0.07139
3942.77344 0.07126
3941.01563 0.07084
3939.25781 0.07069
3937.50000 0.07099
3935.74219 0.07122
3933.98438 0.07104
3932.22656 0.07085
3930.46875 0.07097
3928.71094 0.07113
3926.95313 0.07103
3925.19531 0.07083
3923.43750 0.07074
3921.67969 0.07067
3919.92188 0.07061
3918.16406 0.07084
3916.40625 0.07151
3914.64844 0.07198
3912.89063 0.07180
3911.13281 0.07140
3909.37500 0.07115
3907.61719 0.07097
3905.85938 0.07098
3904.10156 0.07129
3902.34375 0.07135
3900.58594 0.07111
3898.82813 0.07123
3897.07031 0.07173
3895.31250 0.07197
3893.55469 0.07207
3891.79688 0.07195
3890.03906 0.07133
3888.28125 0.07079
3886.52344 0.07091
3884.76563 0.07140
3883.00781 0.07182
3881.25000 0.07190
3879.49219 0.07160
3877.73438 0.07144
3875.97656 0.07162
3874.21875 0.07152
3872.46094 0.07121
3870.70313 0.07122
3868.94531 0.07165
3867.18750 0.07255
3865.42969 0.07338
3863.67188 0.07273
3861.91406 0.07167
3860.15625 0.07113
3858.39844 0.07107
3856.64063 0.07128
3854.88281 0.07162
3853.12500 0.07201
3851.36719 0.07242
3849.60938 0.07256
3847.85156 0.07226
3846.09375 0.07173
3844.33594 0.07114
3842.57813 0.07070
3840.82031 0.07066
3839.06250 0.07105
3837.30469 0.07139
3835.54688 0.07143
3833.78906 0.07164
3832.03125 0.07196
3830.27344 0.07182
3828.51563 0.07169
3826.75781 0.07166
3825.00000 0.07138
3823.24219 0.07108
3821.48438 0.07118
3819.72656 0.07173
3817.96875 0.07203
3816.21094 0.07186
3814.45313 0.07213
3812.69531 0.07276
3810.93750 0.07263
3809.17969 0.07217
3807.42188 0.07174
3805.66406 0.07124
3803.90625 0.07089
3802.14844 0.07082
3800.39063 0.07082
3798.63281 0.07077
3796.87500 0.07087
3795.11719 0.07107
3793.35938 0.07125
3791.60156 0.07141
3789.84375 0.07130
3788.08594 0.07090
3786.32813 0.07062
3784.57031 0.07077
3782.81250 0.07140
3781.05469 0.07201
3779.29688 0.07201
3777.53906 0.07153
3775.78125 0.07099
3774.02344 0.07075
3772.26563 0.07109
3770.50781 0.07169
3768.75000 0.07172
3766.99219 0.07136
3765.23438 0.07150
3763.47656 0.07275
3761.71875 0.07394
3759.96094 0.07368
3758.20313 0.07318
3756.44531 0.07317
3754.68750 0.07320
3752.92969 0.07297
3751.17188 0.07289
3749.41406 0.07338
3747.65625 0.07429
3745.89844 0.07438
3744.14063 0.07352
3742.38281 0.07278
3740.62500 0.07246
3738.86719 0.07256
3737.10938 0.07274
3735.35156 0.07262
3733.59375 0.07235
3731.83594 0.07218
3730.07813 0.07197
3728.32031 0.07168
3726.56250 0.07155
3724.80469 0.07201
3723.04688 0.07305
3721.28906 0.07326
3719.53125 0.07254
3717.77344 0.07189
3716.01563 0.07167
3714.25781 0.07195
3712.50000 0.07245
3710.74219 0.07267
3708.98438 0.07264
3707.22656 0.07254
3705.46875 0.07250
3703.71094 0.07265
3701.95313 0.07315
3700.19531 0.07365
3698.43750 0.07348
3696.67969 0.07289
3694.92188 0.07233
3693.16406 0.07211
3691.40625 0.07236
3689.64844 0.07299
3687.89063 0.07383
3686.13281 0.07411
3684.37500 0.07363
3682.61719 0.07327
3680.85938 0.07322
3679.10156 0.07295
3677.34375 0.07255
3675.58594 0.07228
3673.82813 0.07222
3672.07031 0.07228
3670.31250 0.07249
3668.55469 0.07297
3666.79688 0.07333
3665.03906 0.07321
3663.28125 0.07318
3661.52344 0.07400
3659.76563 0.07510
3658.00781 0.07499
3656.25000 0.07438
3654.49219 0.07390
3652.73438 0.07356
3650.97656 0.07323
3649.21875 0.07300
3647.46094 0.07314
3645.70313 0.07360
3643.94531 0.07394
3642.18750 0.07419
3640.42969 0.07496
3638.67188 0.07551
3636.91406 0.07518
3635.15625 0.07471
3633.39844 0.07447
3631.64063 0.07459
3629.88281 0.07489
3628.12500 0.07503
3626.36719 0.07514
3624.60938 0.07521
3622.85156 0.07507
3621.09375 0.07502
3619.33594 0.07525
3617.57813 0.07542
3615.82031 0.07549
3614.06250 0.07579
3612.30469 0.07619
3610.54688 0.07628
3608.78906 0.07617
3607.03125 0.07615
3605.27344 0.07599
3603.51563 0.07564
3601.75781 0.07558
3600.00000 0.07609
3598.24219 0.07666
3596.48438 0.07659
3594.72656 0.07627
3592.96875 0.07613
3591.21094 0.07620
3589.45313 0.07632
3587.69531 0.07652
3585.93750 0.07680
3584.17969 0.07699
3582.42188 0.07717
3580.66406 0.07766
3578.90625 0.07850
3577.14844 0.07890
3575.39063 0.07851
3573.63281 0.07803
3571.87500 0.07777
3570.11719 0.07762
3568.35938 0.07758
3566.60156 0.07777
3564.84375 0.07821
3563.08594 0.07857
3561.32813 0.07854
3559.57031 0.07840
3557.81250 0.07845
3556.05469 0.07852
3554.29688 0.07841
3552.53906 0.07820
3550.78125 0.07809
3549.02344 0.07819
3547.26563 0.07840
3545.50781 0.07851
3543.75000 0.07852
3541.99219 0.07856
3540.23438 0.07865
3538.47656 0.07876
3536.71875 0.07897
3534.96094 0.07926
3533.20313 0.07930
3531.44531 0.07911
3529.68750 0.07906
3527.92969 0.07925
3526.17188 0.07943
3524.41406 0.07947
3522.65625 0.07952
3520.89844 0.07969
3519.14063 0.07986
3517.38281 0.07999
3515.62500 0.08011
3513.86719 0.08005
3512.10938 0.07986
3510.35156 0.07985
3508.59375 0.08004
3506.83594 0.08030
3505.07813 0.08064
3503.32031 0.08096
3501.56250 0.08110
3499.80469 0.08112
3498.04688 0.08117
3496.28906 0.08114
3494.53125 0.08114
3492.77344 0.08144
3491.01563 0.08180
3489.25781 0.08186
3487.50000 0.08177
3485.74219 0.08179
3483.98438 0.08193
3482.22656 0.08216
3480.46875 0.08244
3478.71094 0.08264
3476.95313 0.08268
3475.19531 0.08268
3473.43750 0.08274
3471.67969 0.08284
3469.92188 0.08302
3468.16406 0.08335
3466.40625 0.08372
3464.64844 0.08395
3462.89063 0.08399
3461.13281 0.08392
3459.37500 0.08384
3457.61719 0.08371
3455.85938 0.08356
3454.10156 0.08350
3452.34375 0.08356
3450.58594 0.08372
3448.82813 0.08394
3447.07031 0.08412
3445.31250 0.08424
3443.55469 0.08435
3441.79688 0.08444
3440.03906 0.08456
3438.28125 0.08477
3436.52344 0.08487
3434.76563 0.08484
3433.00781 0.08496
3431.25000 0.08518
3429.49219 0.08516
3427.73438 0.08498
3425.97656 0.08496
3424.21875 0.08510
3422.46094 0.08536
3420.70313 0.08568
3418.94531 0.08586
3417.18750 0.08589
3415.42969 0.08598
3413.67188 0.08620
3411.91406 0.08641
3410.15625 0.08635
3408.39844 0.08614
3406.64063 0.08621
3404.88281 0.08660
3403.12500 0.08684
3401.36719 0.08664
3399.60938 0.08639
3397.85156 0.08644
3396.09375 0.08657
3394.33594 0.08659
3392.57813 0.08655
3390.82031 0.08648
3389.06250 0.08646
3387.30469 0.08657
3385.54688 0.08673
3383.78906 0.08702
3382.03125 0.08746
3380.27344 0.08771
3378.51563 0.08768
3376.75781 0.08767
3375.00000 0.08783
3373.24219 0.08809
3371.48438 0.08834
3369.72656 0.08845
3367.96875 0.08842
3366.21094 0.08848
3364.45313 0.08861
3362.69531 0.08867
3360.93750 0.08871
3359.17969 0.08882
3357.42188 0.08898
3355.66406 0.08904
3353.90625 0.08898
3352.14844 0.08906
3350.39063 0.08932
3348.63281 0.08953
3346.87500 0.08963
3345.11719 0.08972
3343.35938 0.08981
3341.60156 0.08988
3339.84375 0.08990
3338.08594 0.08992
3336.32813 0.08999
3334.57031 0.09012
3332.81250 0.09022
3331.05469 0.09033
3329.29688 0.09060
3327.53906 0.09097
3325.78125 0.09123
3324.02344 0.09145
3322.26563 0.09173
3320.50781 0.09196
3318.75000 0.09217
3316.99219 0.09245
3315.23438 0.09257
3313.47656 0.09245
3311.71875 0.09246
3309.96094 0.09272
3308.20313 0.09289
3306.44531 0.09275
3304.68750 0.09254
3302.92969 0.09253
3301.17188 0.09277
3299.41406 0.09310
3297.65625 0.09335
3295.89844 0.09353
3294.14063 0.09375
3292.38281 0.09391
3290.62500 0.09393
3288.86719 0.09395
3287.10938 0.09407
3285.35156 0.09427
3283.59375 0.09459
3281.83594 0.09503
3280.07813 0.09534
3278.32031 0.09539
3276.56250 0.09541
3274.80469 0.09561
3273.04688 0.09586
3271.28906 0.09599
3269.53125 0.09607
3267.77344 0.09629
3266.01563 0.09659
3264.25781 0.09677
3262.50000 0.09686
3260.74219 0.09695
3258.98438 0.09704
3257.22656 0.09716
3255.46875 0.09737
3253.71094 0.09762
3251.95313 0.09796
3250.19531 0.09838
3248.43750 0.09858
3246.67969 0.09848
3244.92188 0.09844
3243.16406 0.09861
3241.40625 0.09878
3239.64844 0.09882
3237.89063 0.09891
3236.13281 0.09920
3234.37500 0.09951
3232.61719 0.09967
3230.85938 0.09989
3229.10156 0.10028
3227.34375 0.10060
3225.58594 0.10079
3223.82813 0.10097
3222.07031 0.10111
3220.31250 0.10115
3218.55469 0.10117
3216.79688 0.10130
3215.03906 0.10159
3213.28125 0.10195
3211.52344 0.10227
3209.76563 0.10253
3208.00781 0.10269
3206.25000 0.10281
3204.49219 0.10306
3202.73438 0.10339
3200.97656 0.10362
3199.21875 0.10380
3197.46094 0.10403
3195.70313 0.10419
3193.94531 0.10427
3192.18750 0.10444
3190.42969 0.10473
3188.67188 0.10494
3186.91406 0.10505
3185.15625 0.10522
3183.39844 0.10552
3181.64063 0.10586
3179.88281 0.10605
3178.12500 0.10607
3176.36719 0.10617
3174.60938 0.10649
3172.85156 0.10689
3171.09375 0.10725
3169.33594 0.10757
3167.57813 0.10784
3165.82031 0.10803
3164.06250 0.10814
3162.30469 0.10826
3160.54688 0.10837
3158.78906 0.10848
3157.03125 0.10866
3155.27344 0.10897
3153.51563 0.10926
3151.75781 0.10947
3150.00000 0.10965
3148.24219 0.10981
3146.48438 0.10997
3144.72656 0.11016
3142.96875 0.11036
3141.21094 0.11051
3139.45313 0.11060
3137.69531 0.11075
3135.93750 0.11103
3134.17969 0.11131
3132.42188 0.11148
3130.66406 0.11158
3128.90625 0.11164
3127.14844 0.11162
3125.39063 0.11163
3123.63281 0.11174
3121.87500 0.11188
3120.11719 0.11199
3118.35938 0.11216
3116.60156 0.11232
3114.84375 0.11240
3113.08594 0.11245
3111.32813 0.11260
3109.57031 0.11277
3107.81250 0.11285
3106.05469 0.11291
3104.29688 0.11302
3102.53906 0.11313
3100.78125 0.11315
3099.02344 0.11310
3097.26563 0.11305
3095.50781 0.11307
3093.75000 0.11312
3091.99219 0.11319
3090.23438 0.11332
3088.47656 0.11345
3086.71875 0.11354
3084.96094 0.11358
3083.20313 0.11344
3081.44531 0.11319
3079.68750 0.11303
3077.92969 0.11301
3076.17188 0.11303
3074.41406 0.11304
3072.65625 0.11301
3070.89844 0.11292
3069.14063 0.11283
3067.38281 0.11279
3065.62500 0.11280
3063.86719 0.11281
3062.10938 0.11279
3060.35156 0.11268
3058.59375 0.11245
3056.83594 0.11224
3055.07813 0.11220
3053.32031 0.11230
3051.56250 0.11238
3049.80469 0.11238
3048.04688 0.11236
3046.28906 0.11234
3044.53125 0.11226
3042.77344 0.11212
3041.01563 0.11201
3039.25781 0.11194
3037.50000 0.11185
3035.74219 0.11171
3033.98438 0.11150
3032.22656 0.11129
3030.46875 0.11123
3028.71094 0.11130
3026.95313 0.11142
3025.19531 0.11159
3023.43750 0.11168
3021.67969 0.11153
3019.92188 0.11129
3018.16406 0.11124
3016.40625 0.11136
3014.64844 0.11142
3012.89063 0.11133
3011.13281 0.11121
3009.37500 0.11113
3007.61719 0.11106
3005.85938 0.11097
3004.10156 0.11090
3002.34375 0.11087
3000.58594 0.11092
2998.82813 0.11103
2997.07031 0.11107
2995.31250 0.11107
2993.55469 0.11111
2991.79688 0.11119
2990.03906 0.11131
2988.28125 0.11148
2986.52344 0.11161
2984.76563 0.11167
2983.00781 0.11179
2981.25000 0.11203
2979.49219 0.11229
2977.73438 0.11251
2975.97656 0.11273
2974.21875 0.11305
2972.46094 0.11336
2970.70313 0.11354
2968.94531 0.11369
2967.18750 0.11390
2965.42969 0.11396
2963.67188 0.11372
2961.91406 0.11335
2960.15625 0.11315
2958.39844 0.11316
2956.64063 0.11329
2954.88281 0.11351
2953.12500 0.11377
2951.36719 0.11408
2949.60938 0.11455
2947.85156 0.11518
2946.09375 0.11583
2944.33594 0.11646
2942.57813 0.11715
2940.82031 0.11787
2939.06250 0.11860
2937.30469 0.11929
2935.54688 0.11983
2933.78906 0.12025
2932.03125 0.12065
2930.27344 0.12091
2928.51563 0.12088
2926.75781 0.12044
2925.00000 0.11958
2923.24219 0.11844
2921.48438 0.11714
2919.72656 0.11588
2917.96875 0.11487
2916.21094 0.11413
2914.45313 0.11361
2912.69531 0.11326
2910.93750 0.11296
2909.17969 0.11258
2907.42188 0.11219
2905.66406 0.11188
2903.90625 0.11159
2902.14844 0.11130
2900.39063 0.11102
2898.63281 0.11081
2896.87500 0.11063
2895.11719 0.11047
2893.35938 0.11037
2891.60156 0.11031
2889.84375 0.11021
2888.08594 0.11013
2886.32813 0.11020
2884.57031 0.11042
2882.81250 0.11057
2881.05469 0.11052
2879.29688 0.11038
2877.53906 0.11029
2875.78125 0.11026
2874.02344 0.11034
2872.26563 0.11061
2870.50781 0.11103
2868.75000 0.11146
2866.99219 0.11188
2865.23438 0.11231
2863.47656 0.11287
2861.71875 0.11349
2859.96094 0.11383
2858.20313 0.11351
2856.44531 0.11255
2854.68750 0.11124
2852.92969 0.10993
2851.17188 0.10890
2849.41406 0.10829
2847.65625 0.10794
2845.89844 0.10761
2844.14063 0.10727
2842.38281 0.10702
2840.62500 0.10692
2838.86719 0.10689
2837.10938 0.10684
2835.35156 0.10677
2833.59375 0.10669
2831.83594 0.10657
2830.07813 0.10641
2828.32031 0.10624
2826.56250 0.10613
2824.80469 0.10612
2823.04688 0.10620
2821.28906 0.10628
2819.53125 0.10630
2817.77344 0.10626
2816.01563 0.10623
2814.25781 0.10622
2812.50000 0.10617
2810.74219 0.10605
2808.98438 0.10594
2807.22656 0.10590
2805.46875 0.10594
2803.71094 0.10595
2801.95313 0.10592
2800.19531 0.10593
2798.43750 0.10599
2796.67969 0.10604
2794.92188 0.10604
2793.16406 0.10598
2791.40625 0.10590
2789.64844 0.10583
2787.89063 0.10578
2786.13281 0.10572
2784.37500 0.10565
2782.61719 0.10557
2780.85938 0.10552
2779.10156 0.10549
2777.34375 0.10546
2775.58594 0.10544
2773.82813 0.10546
2772.07031 0.10551
2770.31250 0.10554
2768.55469 0.10557
2766.79688 0.10562
2765.03906 0.10564
2763.28125 0.10561
2761.52344 0.10556
2759.76563 0.10553
2758.00781 0.10553
2756.25000 0.10558
2754.49219 0.10567
2752.73438 0.10577
2750.97656 0.10585
2749.21875 0.10587
2747.46094 0.10582
2745.70313 0.10574
2743.94531 0.10572
2742.18750 0.10583
2740.42969 0.10594
2738.67188 0.10595
2736.91406 0.10590
2735.15625 0.10589
2733.39844 0.10584
2731.64063 0.10576
2729.88281 0.10572
2728.12500 0.10566
2726.36719 0.10555
2724.60938 0.10551
2722.85156 0.10553
2721.09375 0.10549
2719.33594 0.10539
2717.57813 0.10531
2715.82031 0.10525
2714.06250 0.10521
2712.30469 0.10519
2710.54688 0.10520
2708.78906 0.10513
2707.03125 0.10496
2705.27344 0.10478
2703.51563 0.10470
2701.75781 0.10473
2700.00000 0.10474
2698.24219 0.10463
2696.48438 0.10451
2694.72656 0.10449
2692.96875 0.10454
2691.21094 0.10456
2689.45313 0.10455
2687.69531 0.10457
2685.93750 0.10468
2684.17969 0.10481
2682.42188 0.10481
2680.66406 0.10467
2678.90625 0.10454
2677.14844 0.10451
2675.39063 0.10457
2673.63281 0.10464
2671.87500 0.10462
2670.11719 0.10450
2668.35938 0.10438
2666.60156 0.10432
2664.84375 0.10434
2663.08594 0.10441
2661.32813 0.10453
2659.57031 0.10463
2657.81250 0.10463
2656.05469 0.10455
2654.29688 0.10448
2652.53906 0.10446
2650.78125 0.10447
2649.02344 0.10454
2647.26563 0.10459
2645.50781 0.10450
2643.75000 0.10436
2641.99219 0.10433
2640.23438 0.10437
2638.47656 0.10441
2636.71875 0.10446
2634.96094 0.10452
2633.20313 0.10453
2631.44531 0.10449
2629.68750 0.10444
2627.92969 0.10447
2626.17188 0.10456
2624.41406 0.10460
2622.65625 0.10452
2620.89844 0.10438
2619.14063 0.10431
2617.38281 0.10437
2615.62500 0.10453
2613.86719 0.10468
2612.10938 0.10466
2610.35156 0.10449
2608.59375 0.10441
2606.83594 0.10450
2605.07813 0.10452
2603.32031 0.10440
2601.56250 0.10429
2599.80469 0.10427
2598.04688 0.10431
2596.28906 0.10441
2594.53125 0.10448
2592.77344 0.10441
2591.01563 0.10422
2589.25781 0.10402
2587.50000 0.10394
2585.74219 0.10399
2583.98438 0.10404
2582.22656 0.10399
2580.46875 0.10385
2578.71094 0.10374
2576.95313 0.10373
2575.19531 0.10376
2573.43750 0.10381
2571.67969 0.10386
2569.92188 0.10390
2568.16406 0.10382
2566.40625 0.10365
2564.64844 0.10356
2562.89063 0.10358
2561.13281 0.10361
2559.37500 0.10362
2557.61719 0.10356
2555.85938 0.10348
2554.10156 0.10346
2552.34375 0.10350
2550.58594 0.10354
2548.82813 0.10356
2547.07031 0.10356
2545.31250 0.10357
2543.55469 0.10359
2541.79688 0.10357
2540.03906 0.10352
2538.28125 0.10350
2536.52344 0.10353
2534.76563 0.10358
2533.00781 0.10358
2531.25000 0.10352
2529.49219 0.10348
2527.73438 0.10348
2525.97656 0.10345
2524.21875 0.10341
2522.46094 0.10338
2520.70313 0.10341
2518.94531 0.10354
2517.18750 0.10371
2515.42969 0.10377
2513.67188 0.10370
2511.91406 0.10363
2510.15625 0.10364
2508.39844 0.10372
2506.64063 0.10382
2504.88281 0.10383
2503.12500 0.10380
2501.36719 0.10386
2499.60938 0.10395
2497.85156 0.10397
2496.09375 0.10393
2494.33594 0.10390
2492.57813 0.10389
2490.82031 0.10390
2489.06250 0.10391
2487.30469 0.10392
2485.54688 0.10393
2483.78906 0.10396
2482.03125 0.10401
2480.27344 0.10406
2478.51563 0.10406
2476.75781 0.10400
2475.00000 0.10392
2473.24219 0.10388
2471.48438 0.10385
2469.72656 0.10386
2467.96875 0.10392
2466.21094 0.10391
2464.45313 0.10382
2462.69531 0.10381
2460.93750 0.10391
2459.17969 0.10398
2457.42188 0.10395
2455.66406 0.10391
2453.90625 0.10393
2452.14844 0.10394
2450.39063 0.10388
2448.63281 0.10383
2446.87500 0.10382
2445.11719 0.10382
2443.35938 0.10381
2441.60156 0.10384
2439.84375 0.10391
2438.08594 0.10392
2436.32813 0.10389
2434.57031 0.10391
2432.81250 0.10393
2431.05469 0.10390
2429.29688 0.10386
2427.53906 0.10383
2425.78125 0.10379
2424.02344 0.10373
2422.26563 0.10369
2420.50781 0.10365
2418.75000 0.10361
2416.99219 0.10360
2415.23438 0.10364
2413.47656 0.10372
2411.71875 0.10377
2409.96094 0.10378
2408.20313 0.10378
2406.44531 0.10381
2404.68750 0.10383
2402.92969 0.10381
2401.17188 0.10380
2399.41406 0.10384
2397.65625 0.10393
2395.89844 0.10410
2394.14063 0.10441
2392.38281 0.10490
2390.62500 0.10564
2388.86719 0.10666
2387.10938 0.10783
2385.35156 0.10901
2383.59375 0.11026
2381.83594 0.11179
2380.07813 0.11360
2378.32031 0.11548
2376.56250 0.11728
2374.80469 0.11909
2373.04688 0.12090
2371.28906 0.12236
2369.53125 0.12315
2367.77344 0.12308
2366.01563 0.12236
2364.25781 0.12130
2362.50000 0.11993
2360.74219 0.11815
2358.98438 0.11620
2357.22656 0.11472
2355.46875 0.11424
2353.71094 0.11493
2351.95313 0.11640
2350.19531 0.11753
2348.43750 0.11779
2346.67969 0.11762
2344.92188 0.11732
2343.16406 0.11703
2341.40625 0.11711
2339.64844 0.11751
2337.89063 0.11755
2336.13281 0.11684
2334.37500 0.11581
2332.61719 0.11510
2330.85938 0.11475
2329.10156 0.11439
2327.34375 0.11371
2325.58594 0.11273
2323.82813 0.11179
2322.07031 0.11112
2320.31250 0.11070
2318.55469 0.11036
2316.79688 0.11003
2315.03906 0.10965
2313.28125 0.10924
2311.52344 0.10884
2309.76563 0.10843
2308.00781 0.10799
2306.25000 0.10759
2304.49219 0.10731
2302.73438 0.10711
2300.97656 0.10689
2299.21875 0.10668
2297.46094 0.10651
2295.70313 0.10633
2293.94531 0.10612
2292.18750 0.10594
2290.42969 0.10583
2288.67188 0.10579
2286.91406 0.10580
2285.15625 0.10591
2283.39844 0.10605
2281.64063 0.10611
2279.88281 0.10607
2278.12500 0.10600
2276.36719 0.10598
2274.60938 0.10605
2272.85156 0.10611
2271.09375 0.10604
2269.33594 0.10588
2267.57813 0.10573
2265.82031 0.10564
2264.06250 0.10559
2262.30469 0.10552
2260.54688 0.10542
2258.78906 0.10536
2257.03125 0.10537
2255.27344 0.10545
2253.51563 0.10555
2251.75781 0.10559
2250.00000 0.10553
2248.24219 0.10541
2246.48438 0.10533
2244.72656 0.10531
2242.96875 0.10534
2241.21094 0.10537
2239.45313 0.10538
2237.69531 0.10538
2235.93750 0.10543
2234.17969 0.10551
2232.42188 0.10553
2230.66406 0.10545
2228.90625 0.10535
2227.14844 0.10536
2225.39063 0.10545
2223.63281 0.10556
2221.87500 0.10564
2220.11719 0.10566
2218.35938 0.10567
2216.60156 0.10571
2214.84375 0.10577
2213.08594 0.10582
2211.32813 0.10590
2209.57031 0.10600
2207.81250 0.10613
2206.05469 0.10628
2204.29688 0.10638
2202.53906 0.10642
2200.78125 0.10645
2199.02344 0.10649
2197.26563 0.10646
2195.50781 0.10635
2193.75000 0.10633
2191.99219 0.10644
2190.23438 0.10656
2188.47656 0.10660
2186.71875 0.10663
2184.96094 0.10670
2183.20313 0.10680
2181.44531 0.10688
2179.68750 0.10691
2177.92969 0.10693
2176.17188 0.10695
2174.41406 0.10692
2172.65625 0.10691
2170.89844 0.10705
2169.14063 0.10723
2167.38281 0.10734
2165.62500 0.10736
2163.86719 0.10735
2162.10938 0.10732
2160.35156 0.10727
2158.59375 0.10723
2156.83594 0.10724
2155.07813 0.10729
2153.32031 0.10736
2151.56250 0.10742
2149.80469 0.10741
2148.04688 0.10731
2146.28906 0.10724
2144.53125 0.10726
2142.77344 0.10734
2141.01563 0.10737
2139.25781 0.10729
2137.50000 0.10715
2135.74219 0.10703
2133.98438 0.10695
2132.22656 0.10695
2130.46875 0.10704
2128.71094 0.10709
2126.95313 0.10703
2125.19531 0.10696
2123.43750 0.10699
2121.67969 0.10706
2119.92188 0.10705
2118.16406 0.10694
2116.40625 0.10680
2114.64844 0.10674
2112.89063 0.10676
2111.13281 0.10677
2109.37500 0.10679
2107.61719 0.10686
2105.85938 0.10695
2104.10156 0.10699
2102.34375 0.10698
2100.58594 0.10700
2098.82813 0.10708
2097.07031 0.10715
2095.31250 0.10726
2093.55469 0.10742
2091.79688 0.10757
2090.03906 0.10765
2088.28125 0.10768
2086.52344 0.10772
2084.76563 0.10777
2083.00781 0.10777
2081.25000 0.10782
2079.49219 0.10800
2077.73438 0.10814
2075.97656 0.10814
2074.21875 0.10818
2072.46094 0.10837
2070.70313 0.10859
2068.94531 0.10873
2067.18750 0.10884
2065.42969 0.10898
2063.67188 0.10908
2061.91406 0.10911
2060.15625 0.10917
2058.39844 0.10929
2056.64063 0.10943
2054.88281 0.10953
2053.12500 0.10960
2051.36719 0.10968
2049.60938 0.10977
2047.85156 0.10984
2046.09375 0.10981
2044.33594 0.10972
2042.57813 0.10964
2040.82031 0.10964
2039.06250 0.10977
2037.30469 0.10999
2035.54688 0.11021
2033.78906 0.11040
2032.03125 0.11058
2030.27344 0.11074
2028.51563 0.11088
2026.75781 0.11096
2025.00000 0.11092
2023.24219 0.11078
2021.48438 0.11071
2019.72656 0.11074
2017.96875 0.11082
2016.21094 0.11078
2014.45313 0.11066
2012.69531 0.11062
2010.93750 0.11064
2009.17969 0.11063
2007.42188 0.11066
2005.66406 0.11077
2003.90625 0.11084
2002.14844 0.11085
2000.39063 0.11090
1998.63281 0.11099
1996.87500 0.11101
1995.11719 0.11095
1993.35938 0.11091
1991.60156 0.11091
1989.84375 0.11087
1988.08594 0.11079
1986.32813 0.11071
1984.57031 0.11069
1982.81250 0.11074
1981.05469 0.11088
1979.29688 0.11100
1977.53906 0.11104
1975.78125 0.11108
1974.02344 0.11119
1972.26563 0.11126
1970.50781 0.11121
1968.75000 0.11114
1966.99219 0.11118
1965.23438 0.11125
1963.47656 0.11127
1961.71875 0.11129
1959.96094 0.11136
1958.20313 0.11140
1956.44531 0.11143
1954.68750 0.11151
1952.92969 0.11163
1951.17188 0.11183
1949.41406 0.11208
1947.65625 0.11216
1945.89844 0.11201
1944.14063 0.11187
1942.38281 0.11185
1940.62500 0.11190
1938.86719 0.11193
1937.10938 0.11190
1935.35156 0.11193
1933.59375 0.11211
1931.83594 0.11235
1930.07813 0.11258
1928.32031 0.11273
1926.56250 0.11283
1924.80469 0.11295
1923.04688 0.11302
1921.28906 0.11299
1919.53125 0.11301
1917.77344 0.11313
1916.01563 0.11326
1914.25781 0.11325
1912.50000 0.11318
1910.74219 0.11318
1908.98438 0.11321
1907.22656 0.11317
1905.46875 0.11310
1903.71094 0.11312
1901.95313 0.11321
1900.19531 0.11323
1898.43750 0.11328
1896.67969 0.11346
1894.92188 0.11363
1893.16406 0.11365
1891.40625 0.11363
1889.64844 0.11361
1887.89063 0.11359
1886.13281 0.11359
1884.37500 0.11360
1882.61719 0.11357
1880.85938 0.11355
1879.10156 0.11365
1877.34375 0.11393
1875.58594 0.11438
1873.82813 0.11473
1872.07031 0.11460
1870.31250 0.11420
1868.55469 0.11393
1866.79688 0.11395
1865.03906 0.11420
1863.28125 0.11446
1861.52344 0.11467
1859.76563 0.11481
1858.00781 0.11489
1856.25000 0.11501
1854.49219 0.11522
1852.73438 0.11545
1850.97656 0.11574
1849.21875 0.11596
1847.46094 0.11594
1845.70313 0.11589
1843.94531 0.11599
1842.18750 0.11613
1840.42969 0.11621
1838.67188 0.11633
1836.91406 0.11661
1835.15625 0.11692
1833.39844 0.11708
1831.64063 0.11720
1829.88281 0.11731
1828.12500 0.11728
1826.36719 0.11718
1824.60938 0.11716
1822.85156 0.11725
1821.09375 0.11737
1819.33594 0.11749
1817.57813 0.11774
1815.82031 0.11804
1814.06250 0.11822
1812.30469 0.11827
1810.54688 0.11837
1808.78906 0.11866
1807.03125 0.11905
1805.27344 0.11935
1803.51563 0.11950
1801.75781 0.11961
1800.00000 0.11977
1798.24219 0.12000
1796.48438 0.12006
1794.72656 0.11990
1792.96875 0.11979
1791.21094 0.11986
1789.45313 0.11999
1787.69531 0.12010
1785.93750 0.12025
1784.17969 0.12033
1782.42188 0.12032
1780.66406 0.12034
1778.90625 0.12055
1777.14844 0.12085
1775.39063 0.12088
1773.63281 0.12073
1771.87500 0.12059
1770.11719 0.12049
1768.35938 0.12051
1766.60156 0.12064
1764.84375 0.12072
1763.08594 0.12074
1761.32813 0.12075
1759.57031 0.12080
1757.81250 0.12107
1756.05469 0.12168
1754.29688 0.12223
1752.53906 0.12229
1750.78125 0.12214
1749.02344 0.12203
1747.26563 0.12197
1745.50781 0.12191
1743.75000 0.12174
1741.99219 0.12157
1740.23438 0.12176
1738.47656 0.12226
1736.71875 0.12235
1734.96094 0.12212
1733.20313 0.12192
1731.44531 0.12190
1729.68750 0.12211
1727.92969 0.12240
1726.17188 0.12259
1724.41406 0.12278
1722.65625 0.12327
1720.89844 0.12371
1719.14063 0.12370
1717.38281 0.12353
1715.62500 0.12341
1713.86719 0.12342
1712.10938 0.12366
1710.35156 0.12406
1708.59375 0.12427
1706.83594 0.12432
1705.07813 0.12460
1703.32031 0.12510
1701.56250 0.12539
1699.80469 0.12551
1698.04688 0.12566
1696.28906 0.12599
1694.53125 0.12646
1692.77344 0.12680
1691.01563 0.12709
1689.25781 0.12768
1687.50000 0.12817
1685.74219 0.12826
1683.98438 0.12822
1682.22656 0.12823
1680.46875 0.12847
1678.71094 0.12893
1676.95313 0.12944
1675.19531 0.12989
1673.43750 0.12994
1671.67969 0.12975
1669.92188 0.12974
1668.16406 0.12992
1666.40625 0.12996
1664.64844 0.12990
1662.89063 0.12993
1661.13281 0.13001
1659.37500 0.13006
1657.61719 0.13011
1655.85938 0.13014
1654.10156 0.13012
1652.34375 0.12994
1650.58594 0.12947
1648.82813 0.12900
1647.07031 0.12868
1645.31250 0.12850
1643.55469 0.12847
1641.79688 0.12852
1640.03906 0.12824
1638.28125 0.12773
1636.52344 0.12736
1634.76563 0.12716
1633.00781 0.12703
1631.25000 0.12689
1629.49219 0.12674
1627.73438 0.12646
1625.97656 0.12609
1624.21875 0.12587
1622.46094 0.12601
1620.70313 0.12642
1618.94531 0.12670
1617.18750 0.12693
1615.42969 0.12735
1613.67188 0.12795
1611.91406 0.12860
1610.15625 0.12926
1608.39844 0.12986
1606.64063 0.13029
1604.88281 0.13052
1603.12500 0.13072
1601.36719 0.13104
1599.60938 0.13147
1597.85156 0.13187
1596.09375 0.13220
1594.33594 0.13250
1592.57813 0.13284
1590.82031 0.13331
1589.06250 0.13393
1587.30469 0.13462
1585.54688 0.13520
1583.78906 0.13567
1582.03125 0.13608
1580.27344 0.13614
1578.51563 0.13574
1576.75781 0.13538
1575.00000 0.13523
1573.24219 0.13511
1571.48438 0.13493
1569.72656 0.13475
1567.96875 0.13450
1566.21094 0.13424
1564.45313 0.13444
1562.69531 0.13520
1560.93750 0.13531
1559.17969 0.13517
1557.42188 0.13521
1555.66406 0.13555
1553.90625 0.13606
1552.14844 0.13658
1550.39063 0.13722
1548.63281 0.13804
1546.87500 0.13888
1545.11719 0.13912
1543.35938 0.13817
1541.60156 0.13727
1539.84375 0.13677
1538.08594 0.13626
1536.32813 0.13555
1534.57031 0.13512
1532.81250 0.13522
1531.05469 0.13562
1529.29688 0.13591
1527.53906 0.13621
1525.78125 0.13653
1524.02344 0.13656
1522.26563 0.13646
1520.50781 0.13628
1518.75000 0.13605
1516.99219 0.13601
1515.23438 0.13627
1513.47656 0.13674
1511.71875 0.13698
1509.96094 0.13643
1508.20313 0.13593
1506.44531 0.13578
1504.68750 0.13594
1502.92969 0.13640
1501.17188 0.13683
1499.41406 0.13692
1497.65625 0.13701
1495.89844 0.13754
1494.14063 0.13850
1492.38281 0.13924
1490.62500 0.13972
1488.86719 0.14041
1487.10938 0.14146
1485.35156 0.14275
1483.59375 0.14401
1481.83594 0.14526
1480.07813 0.14655
1478.32031 0.14758
1476.56250 0.14777
1474.80469 0.14733
1473.04688 0.14698
1471.28906 0.14689
1469.53125 0.14680
1467.77344 0.14648
1466.01563 0.14619
1464.25781 0.14626
1462.50000 0.14670
1460.74219 0.14677
1458.98438 0.14631
1457.22656 0.14590
1455.46875 0.14574
1453.71094 0.14580
1451.95313 0.14591
1450.19531 0.14591
1448.43750 0.14597
1446.67969 0.14615
1444.92188 0.14640
1443.16406 0.14676
1441.40625 0.14745
1439.64844 0.14802
1437.89063 0.14803
1436.13281 0.14784
1434.37500 0.14770
1432.61719 0.14759
1430.85938 0.14751
1429.10156 0.14748
1427.34375 0.14744
1425.58594 0.14733
1423.82813 0.14704
1422.07031 0.14632
1420.31250 0.14539
1418.55469 0.14463
1416.79688 0.14407
1415.03906 0.14358
1413.28125 0.14307
1411.52344 0.14256
1409.76563 0.14200
1408.00781 0.14132
1406.25000 0.14075
1404.49219 0.14040
1402.73438 0.14016
1400.97656 0.13984
1399.21875 0.13941
1397.46094 0.13891
1395.70313 0.13851
1393.94531 0.13830
1392.18750 0.13825
1390.42969 0.13819
1388.67188 0.13804
1386.91406 0.13796
1385.15625 0.13806
1383.39844 0.13822
1381.64063 0.13831
1379.88281 0.13831
1378.12500 0.13822
1376.36719 0.13808
1374.60938 0.13796
1372.85156 0.13784
1371.09375 0.13766
1369.33594 0.13752
1367.57813 0.13750
1365.82031 0.13740
1364.06250 0.13709
1362.30469 0.13678
1360.54688 0.13663
1358.78906 0.13663
1357.03125 0.13666
1355.27344 0.13664
1353.51563 0.13663
1351.75781 0.13664
1350.00000 0.13666
1348.24219 0.13670
1346.48438 0.13676
1344.72656 0.13680
1342.96875 0.13670
1341.21094 0.13650
1339.45313 0.13632
1337.69531 0.13612
1335.93750 0.13586
1334.17969 0.13561
1332.42188 0.13541
1330.66406 0.13529
1328.90625 0.13520
1327.14844 0.13510
1325.39063 0.13499
1323.63281 0.13486
1321.87500 0.13468
1320.11719 0.13450
1318.35938 0.13450
1316.60156 0.13478
1314.84375 0.13520
1313.08594 0.13562
1311.32813 0.13593
1309.57031 0.13609
1307.81250 0.13621
1306.05469 0.13635
1304.29688 0.13648
1302.53906 0.13651
1300.78125 0.13646
1299.02344 0.13645
1297.26563 0.13654
1295.50781 0.13668
1293.75000 0.13681
1291.99219 0.13689
1290.23438 0.13691
1288.47656 0.13689
1286.71875 0.13690
1284.96094 0.13694
1283.20313 0.13702
1281.44531 0.13713
1279.68750 0.13725
1277.92969 0.13733
1276.17188 0.13747
1274.41406 0.13775
1272.65625 0.13811
1270.89844 0.13853
1269.14063 0.13897
1267.38281 0.13938
1265.62500 0.13962
1263.86719 0.13959
1262.10938 0.13934
1260.35156 0.13896
1258.59375 0.13849
1256.83594 0.13809
1255.07813 0.13791
1253.32031 0.13787
1251.56250 0.13777
1249.80469 0.13754
1248.04688 0.13729
1246.28906 0.13712
1244.53125 0.13701
1242.77344 0.13694
1241.01563 0.13693
1239.25781 0.13701
1237.50000 0.13707
1235.74219 0.13707
1233.98438 0.13707
1232.22656 0.13707
1230.46875 0.13704
1228.71094 0.13703
1226.95313 0.13700
1225.19531 0.13685
1223.43750 0.13666
1221.67969 0.13654
1219.92188 0.13648
1218.16406 0.13641
1216.40625 0.13635
1214.64844 0.13634
1212.89063 0.13637
1211.13281 0.13642
1209.37500 0.13648
1207.61719 0.13656
1205.85938 0.13660
1204.10156 0.13659
1202.34375 0.13659
1200.58594 0.13666
1198.82813 0.13676
1197.07031 0.13687
1195.31250 0.13699
1193.55469 0.13709
1191.79688 0.13714
1190.03906 0.13718
1188.28125 0.13731
1186.52344 0.13756
1184.76563 0.13786
1183.00781 0.13806
1181.25000 0.13818
1179.49219 0.13828
1177.73438 0.13837
1175.97656 0.13843
1174.21875 0.13851
1172.46094 0.13857
1170.70313 0.13858
1168.94531 0.13861
1167.18750 0.13870
1165.42969 0.13876
1163.67188 0.13871
1161.91406 0.13866
1160.15625 0.13873
1158.39844 0.13889
1156.64063 0.13902
1154.88281 0.13915
1153.12500 0.13937
1151.36719 0.13960
1149.60938 0.13979
1147.85156 0.13996
1146.09375 0.14010
1144.33594 0.14025
1142.57813 0.14048
1140.82031 0.14073
1139.06250 0.14092
1137.30469 0.14106
1135.54688 0.14122
1133.78906 0.14147
1132.03125 0.14173
1130.27344 0.14188
1128.51563 0.14197
1126.75781 0.14213
1125.00000 0.14240
1123.24219 0.14278
1121.48438 0.14319
1119.72656 0.14352
1117.96875 0.14378
1116.21094 0.14402
1114.45313 0.14423
1112.69531 0.14438
1110.93750 0.14450
1109.17969 0.14460
1107.42188 0.14475
1105.66406 0.14503
1103.90625 0.14534
1102.14844 0.14552
1100.39063 0.14558
1098.63281 0.14564
1096.87500 0.14576
1095.11719 0.14592
1093.35938 0.14604
1091.60156 0.14618
1089.84375 0.14636
1088.08594 0.14646
1086.32813 0.14648
1084.57031 0.14648
1082.81250 0.14645
1081.05469 0.14635
1079.29688 0.14632
1077.53906 0.14647
1075.78125 0.14665
1074.02344 0.14674
1072.26563 0.14684
1070.50781 0.14704
1068.75000 0.14724
1066.99219 0.14738
1065.23438 0.14754
1063.47656 0.14779
1061.71875 0.14804
1059.96094 0.14812
1058.20313 0.14813
1056.44531 0.14826
1054.68750 0.14847
1052.92969 0.14864
1051.17188 0.14876
1049.41406 0.14887
1047.65625 0.14894
1045.89844 0.14897
1044.14063 0.14903
1042.38281 0.14911
1040.62500 0.14912
1038.86719 0.14910
1037.10938 0.14917
1035.35156 0.14934
1033.59375 0.14954
1031.83594 0.14965
1030.07813 0.14967
1028.32031 0.14967
1026.56250 0.14970
1024.80469 0.14974
1023.04688 0.14990
1021.28906 0.15028
1019.53125 0.15085
1017.77344 0.15150
1016.01563 0.15211
1014.25781 0.15269
1012.50000 0.15332
1010.74219 0.15400
1008.98438 0.15460
1007.22656 0.15514
1005.46875 0.15577
1003.71094 0.15656
1001.95313 0.15744
1000.19531 0.15832
998.43750 0.15914
996.67969 0.15990
994.92188 0.16067
993.16406 0.16161
991.40625 0.16275
989.64844 0.16397
987.89063 0.16521
986.13281 0.16648
984.37500 0.16780
982.61719 0.16917
980.85938 0.17055
979.10156 0.17195
977.34375 0.17338
975.58594 0.17479
973.82813 0.17609
972.07031 0.17731
970.31250 0.17858
968.55469 0.17988
966.79688 0.18102
965.03906 0.18197
963.28125 0.18286
961.52344 0.18371
959.76563 0.18454
958.00781 0.18535
956.25000 0.18611
954.49219 0.18681
952.73438 0.18745
950.97656 0.18800
949.21875 0.18849
947.46094 0.18891
945.70313 0.18923
943.94531 0.18945
942.18750 0.18966
940.42969 0.18986
938.67188 0.19002
936.91406 0.19009
935.15625 0.19005
933.39844 0.19006
931.64063 0.19021
929.88281 0.19050
928.12500 0.19086
926.36719 0.19121
924.60938 0.19152
922.85156 0.19184
921.09375 0.19218
919.33594 0.19248
917.57813 0.19274
915.82031 0.19300
914.06250 0.19320
912.30469 0.19320
910.54688 0.19300
908.78906 0.19284
907.03125 0.19285
905.27344 0.19291
903.51563 0.19291
901.75781 0.19286
900.00000 0.19279
898.24219 0.19269
896.48438 0.19261
894.72656 0.19263
892.96875 0.19281
891.21094 0.19313
889.45313 0.19344
887.69531 0.19353
885.93750 0.19339
884.17969 0.19320
882.42188 0.19293
880.66406 0.19243
878.90625 0.19152
877.14844 0.19004
875.39063 0.18818
873.63281 0.18657
871.87500 0.18551
870.11719 0.18474
868.35938 0.18395
866.60156 0.18317
864.84375 0.18256
863.08594 0.18210
861.32813 0.18156
859.57031 0.18089
857.81250 0.18028
856.05469 0.17975
854.29688 0.17918
852.53906 0.17858
850.78125 0.17794
849.02344 0.17725
847.26563 0.17661
845.50781 0.17608
843.75000 0.17556
841.99219 0.17503
840.23438 0.17464
838.47656 0.17445
836.71875 0.17431
834.96094 0.17401
833.20313 0.17353
831.44531 0.17301
829.68750 0.17251
827.92969 0.17202
826.17188 0.17162
824.41406 0.17138
822.65625 0.17138
820.89844 0.17153
819.14063 0.17162
817.38281 0.17169
815.62500 0.17185
813.86719 0.17208
812.10938 0.17247
810.35156 0.17304
808.59375 0.17357
806.83594 0.17399
805.07813 0.17452
803.32031 0.17512
801.56250 0.17566
799.80469 0.17621
798.04688 0.17676
796.28906 0.17726
794.53125 0.17783
792.77344 0.17858
791.01563 0.17933
789.25781 0.17991
787.50000 0.18046
785.74219 0.18104
783.98438 0.18165
782.22656 0.18240
780.46875 0.18331
778.71094 0.18407
776.95313 0.18449
775.19531 0.18470
773.43750 0.18502
771.67969 0.18559
769.92188 0.18611
768.16406 0.18623
766.40625 0.18596
764.64844 0.18568
762.89063 0.18575
761.13281 0.18601
759.37500 0.18624
757.61719 0.18651
755.85938 0.18669
754.10156 0.18654
752.34375 0.18627
750.58594 0.18607
748.82813 0.18592
747.07031 0.18595
745.31250 0.18608
743.55469 0.18596
741.79688 0.18561
740.03906 0.18529
738.28125 0.18496
736.52344 0.18446
734.76563 0.18382
733.00781 0.18319
731.25000 0.18278
729.49219 0.18261
727.73438 0.18254
725.97656 0.18260
724.21875 0.18294
722.46094 0.18325
720.70313 0.18284
718.94531 0.18178
717.18750 0.18071
715.42969 0.17992
713.67188 0.17953
711.91406 0.17978
710.15625 0.18059
708.39844 0.18146
706.64063 0.18178
704.88281 0.18144
703.12500 0.18107
701.36719 0.18113
699.60938 0.18123
697.85156 0.18095
696.09375 0.18077
694.33594 0.18138
692.57813 0.18240
690.82031 0.18319
689.06250 0.18401
687.30469 0.18488
685.54688 0.18505
683.78906 0.18427
682.03125 0.18287
680.27344 0.18113
678.51563 0.17962
676.75781 0.17916
675.00000 0.18009
673.24219 0.18211
671.48438 0.18436
669.72656 0.18459
667.96875 0.18348
666.21094 0.18347
664.45313 0.18343
662.69531 0.18207
660.93750 0.18074
659.17969 0.18049
657.42188 0.17982
655.66406 0.17780
653.90625 0.17528
652.14844 0.17365
650.39063 0.17394
648.63281 0.17537
646.87500 0.17602
645.11719 0.17588
643.35938 0.17662
641.60156 0.17836
639.84375 0.17911
638.08594 0.17880
636.32813 0.17992
634.57031 0.18201
632.81250 0.18222
631.05469 0.18127
629.29688 0.18166
627.53906 0.18293
625.78125 0.18370
624.02344 0.18430
622.26563 0.18437
620.50781 0.18273
618.75000 0.17971
616.99219 0.17725
615.23438 0.17827
613.47656 0.18316
611.71875 0.18628
609.96094 0.18352
608.20313 0.18045
606.44531 0.18235
604.68750 0.18555
602.92969 0.18655
601.17188 0.18641
599.41406 0.18440
