3997.26563 0.09941
3995.50781 0.09950
3993.75000 0.09952
3991.99219 0.09959
3990.23438 0.09972
3988.47656 0.09971
3986.71875 0.09953
3984.96094 0.09944
3983.20313 0.09957
3981.44531 0.09973
3979.68750 0.09972
3977.92969 0.09962
3976.17188 0.09956
3974.41406 0.09956
3972.65625 0.09947
3970.89844 0.09934
3969.14063 0.09939
3967.38281 0.09966
3965.62500 0.09997
3963.86719 0.10025
3962.10938 0.10043
3960.35156 0.10029
3958.59375 0.09991
3956.83594 0.09983
3955.07813 0.10011
3953.32031 0.10016
3951.56250 0.09982
3949.80469 0.09961
3948.04688 0.09982
3946.28906 0.10037
3944.53125 0.10089
3942.77344 0.10096
3941.01563 0.10056
3939.25781 0.10020
3937.50000 0.10020
3935.74219 0.10017
3933.98438 0.09987
3932.22656 0.09981
3930.46875 0.10015
3928.71094 0.10029
3926.95313 0.10000
3925.19531 0.09966
3923.43750 0.09946
3921.67969 0.09938
3919.92188 0.09961
3918.16406 0.10037
3916.40625 0.10143
3914.64844 0.10204
3912.89063 0.10199
3911.13281 0.10147
3909.37500 0.10073
3907.61719 0.10020
3905.85938 0.10023
3904.10156 0.10067
3902.34375 0.10072
3900.58594 0.10043
3898.82813 0.10057
3897.07031 0.10109
3895.31250 0.10144
3893.55469 0.10168
3891.79688 0.10150
3890.03906 0.10075
3888.28125 0.10035
3886.52344 0.10083
3884.76563 0.10168
3883.00781 0.10230
3881.25000 0.10237
3879.49219 0.10200
3877.73438 0.10194
3875.97656 0.10213
3874.21875 0.10176
3872.46094 0.10111
3870.70313 0.10085
3868.94531 0.10104
3867.18750 0.10190
3865.42969 0.10321
3863.67188 0.10280
3861.91406 0.10142
3860.15625 0.10053
3858.39844 0.10041
3856.64063 0.10095
3854.88281 0.10185
3853.12500 0.10277
3851.36719 0.10347
3849.60938 0.10347
3847.85156 0.10273
3846.09375 0.10185
3844.33594 0.10111
3842.57813 0.10061
3840.82031 0.10059
3839.06250 0.10111
3837.30469 0.10164
3835.54688 0.10205
3833.78906 0.10281
3832.03125 0.10320
3830.27344 0.10260
3828.51563 0.10197
3826.75781 0.10148
3825.00000 0.10085
3823.24219 0.10037
3821.48438 0.10040
3819.72656 0.10109
3817.96875 0.10179
3816.21094 0.10205
3814.45313 0.10257
3812.69531 0.10298
3810.93750 0.10241
3809.17969 0.10156
3807.42188 0.10082
3805.66406 0.10021
3803.90625 0.09992
3802.14844 0.09996
3800.39063 0.10014
3798.63281 0.10031
3796.87500 0.10027
3795.11719 0.10003
3793.35938 0.09995
3791.60156 0.10017
3789.84375 0.10021
3788.08594 0.09987
3786.32813 0.09964
3784.57031 0.09992
3782.81250 0.10066
3781.05469 0.10124
3779.29688 0.10121
3777.53906 0.10094
3775.78125 0.10068
3774.02344 0.10059
3772.26563 0.10096
3770.50781 0.10151
3768.75000 0.10161
3766.99219 0.10159
3765.23438 0.10207
3763.47656 0.10339
3761.71875 0.10434
3759.96094 0.10374
3758.20313 0.10291
3756.44531 0.10288
3754.68750 0.10316
3752.92969 0.10298
3751.17188 0.10282
3749.41406 0.10331
3747.65625 0.10437
3745.89844 0.10465
3744.14063 0.10361
3742.38281 0.10237
3740.62500 0.10163
3738.86719 0.10151
3737.10938 0.10180
3735.35156 0.10199
3733.59375 0.10179
3731.83594 0.10133
3730.07813 0.10095
3728.32031 0.10085
3726.56250 0.10100
3724.80469 0.10145
3723.04688 0.10200
3721.28906 0.10184
3719.53125 0.10117
3717.77344 0.10062
3716.01563 0.10045
3714.25781 0.10075
3712.50000 0.10109
3710.74219 0.10100
3708.98438 0.10083
3707.22656 0.10087
3705.46875 0.10122
3703.71094 0.10200
3701.95313 0.10314
3700.19531 0.10357
3698.43750 0.10268
3696.67969 0.10154
3694.92188 0.10080
3693.16406 0.10068
3691.40625 0.10125
3689.64844 0.10247
3687.89063 0.10411
3686.13281 0.10457
3684.37500 0.10372
3682.61719 0.10332
3680.85938 0.10321
3679.10156 0.10229
3677.34375 0.10121
3675.58594 0.10054
3673.82813 0.10029
3672.07031 0.10037
3670.31250 0.10079
3668.55469 0.10150
3666.79688 0.10196
3665.03906 0.10205
3663.28125 0.10270
3661.52344 0.10455
3659.76563 0.10553
3658.00781 0.10421
3656.25000 0.10278
3654.49219 0.10190
3652.73438 0.10142
3650.97656 0.10117
3649.21875 0.10109
3647.46094 0.10119
3645.70313 0.10139
3643.94531 0.10160
3642.18750 0.10220
3640.42969 0.10342
3638.67188 0.10366
3636.91406 0.10275
3635.15625 0.10202
3633.39844 0.10193
3631.64063 0.10243
3629.88281 0.10296
3628.12500 0.10311
3626.36719 0.10325
3624.60938 0.10330
3622.85156 0.10300
3621.09375 0.10274
3619.33594 0.10262
3617.57813 0.10229
3615.82031 0.10201
3614.06250 0.10225
3612.30469 0.10277
3610.54688 0.10296
3608.78906 0.10287
3607.03125 0.10286
3605.27344 0.10270
3603.51563 0.10226
3601.75781 0.10207
3600.00000 0.10258
3598.24219 0.10323
3596.48438 0.10294
3594.72656 0.10219
3592.96875 0.10180
3591.21094 0.10186
3589.45313 0.10206
3587.69531 0.10220
3585.93750 0.10231
3584.17969 0.10248
3582.42188 0.10279
3580.66406 0.10357
3578.90625 0.10487
3577.14844 0.10539
3575.39063 0.10457
3573.63281 0.10370
3571.87500 0.10319
3570.11719 0.10275
3568.35938 0.10244
3566.60156 0.10255
3564.84375 0.10303
3563.08594 0.10333
3561.32813 0.10325
3559.57031 0.10340
3557.81250 0.10394
3556.05469 0.10403
3554.29688 0.10341
3552.53906 0.10277
3550.78125 0.10251
3549.02344 0.10258
3547.26563 0.10275
3545.50781 0.10278
3543.75000 0.10276
3541.99219 0.10303
3540.23438 0.10355
3538.47656 0.10387
3536.71875 0.10390
3534.96094 0.10394
3533.20313 0.10380
3531.44531 0.10338
3529.68750 0.10305
3527.92969 0.10305
3526.17188 0.10319
3524.41406 0.10326
3522.65625 0.10328
3520.89844 0.10322
3519.14063 0.10305
3517.38281 0.10298
3515.62500 0.10313
3513.86719 0.10316
3512.10938 0.10295
3510.35156 0.10284
3508.59375 0.10297
3506.83594 0.10325
3505.07813 0.10357
3503.32031 0.10367
3501.56250 0.10349
3499.80469 0.10334
3498.04688 0.10337
3496.28906 0.10345
3494.53125 0.10357
3492.77344 0.10383
3491.01563 0.10400
3489.25781 0.10394
3487.50000 0.10378
3485.74219 0.10362
3483.98438 0.10353
3482.22656 0.10355
3480.46875 0.10362
3478.71094 0.10365
3476.95313 0.10362
3475.19531 0.10368
3473.43750 0.10386
3471.67969 0.10385
3469.92188 0.10372
3468.16406 0.10376
3466.40625 0.10389
3464.64844 0.10388
3462.89063 0.10383
3461.13281 0.10402
3459.37500 0.10456
3457.61719 0.10505
3455.85938 0.10499
3454.10156 0.10462
3452.34375 0.10441
3450.58594 0.10438
3448.82813 0.10433
3447.07031 0.10414
3445.31250 0.10397
3443.55469 0.10407
3441.79688 0.10443
3440.03906 0.10478
3438.28125 0.10481
3436.52344 0.10451
3434.76563 0.10431
3433.00781 0.10452
3431.25000 0.10483
3429.49219 0.10488
3427.73438 0.10470
3425.97656 0.10448
3424.21875 0.10438
3422.46094 0.10446
3420.70313 0.10455
3418.94531 0.10448
3417.18750 0.10438
3415.42969 0.10432
3413.67188 0.10422
3411.91406 0.10412
3410.15625 0.10415
3408.39844 0.10430
3406.64063 0.10457
3404.88281 0.10484
3403.12500 0.10490
3401.36719 0.10469
3399.60938 0.10445
3397.85156 0.10438
3396.09375 0.10444
3394.33594 0.10440
3392.57813 0.10417
3390.82031 0.10387
3389.06250 0.10380
3387.30469 0.10402
3385.54688 0.10426
3383.78906 0.10438
3382.03125 0.10449
3380.27344 0.10456
3378.51563 0.10446
3376.75781 0.10436
3375.00000 0.10451
3373.24219 0.10493
3371.48438 0.10532
3369.72656 0.10543
3367.96875 0.10527
3366.21094 0.10510
3364.45313 0.10508
3362.69531 0.10512
3360.93750 0.10504
3359.17969 0.10482
3357.42188 0.10465
3355.66406 0.10464
3353.90625 0.10468
3352.14844 0.10472
3350.39063 0.10482
3348.63281 0.10493
3346.87500 0.10482
3345.11719 0.10445
3343.35938 0.10419
3341.60156 0.10436
3339.84375 0.10472
3338.08594 0.10485
3336.32813 0.10471
3334.57031 0.10455
3332.81250 0.10445
3331.05469 0.10432
3329.29688 0.10421
3327.53906 0.10428
3325.78125 0.10455
3324.02344 0.10477
3322.26563 0.10473
3320.50781 0.10455
3318.75000 0.10449
3316.99219 0.10464
3315.23438 0.10480
3313.47656 0.10481
3311.71875 0.10473
3309.96094 0.10465
3308.20313 0.10451
3306.44531 0.10433
3304.68750 0.10421
3302.92969 0.10415
3301.17188 0.10414
3299.41406 0.10414
3297.65625 0.10407
3295.89844 0.10393
3294.14063 0.10391
3292.38281 0.10406
3290.62500 0.10430
3288.86719 0.10456
3287.10938 0.10469
3285.35156 0.10462
3283.59375 0.10456
3281.83594 0.10461
3280.07813 0.10456
3278.32031 0.10441
3276.56250 0.10441
3274.80469 0.10461
3273.04688 0.10479
3271.28906 0.10488
3269.53125 0.10504
3267.77344 0.10530
3266.01563 0.10550
3264.25781 0.10548
3262.50000 0.10528
3260.74219 0.10499
3258.98438 0.10473
3257.22656 0.10472
3255.46875 0.10486
3253.71094 0.10480
3251.95313 0.10469
3250.19531 0.10476
3248.43750 0.10485
3246.67969 0.10482
3244.92188 0.10487
3243.16406 0.10497
3241.40625 0.10488
3239.64844 0.10468
3237.89063 0.10463
3236.13281 0.10471
3234.37500 0.10471
3232.61719 0.10464
3230.85938 0.10471
3229.10156 0.10494
3227.34375 0.10513
3225.58594 0.10519
3223.82813 0.10516
3222.07031 0.10509
3220.31250 0.10499
3218.55469 0.10483
3216.79688 0.10462
3215.03906 0.10446
3213.28125 0.10435
3211.52344 0.10429
3209.76563 0.10429
3208.00781 0.10430
3206.25000 0.10428
3204.49219 0.10430
3202.73438 0.10445
3200.97656 0.10459
3199.21875 0.10454
3197.46094 0.10439
3195.70313 0.10428
3193.94531 0.10417
3192.18750 0.10400
3190.42969 0.10383
3188.67188 0.10378
3186.91406 0.10391
3185.15625 0.10404
3183.39844 0.10396
3181.64063 0.10369
3179.88281 0.10337
3178.12500 0.10320
3176.36719 0.10326
3174.60938 0.10341
3172.85156 0.10350
3171.09375 0.10357
3169.33594 0.10360
3167.57813 0.10355
3165.82031 0.10348
3164.06250 0.10350
3162.30469 0.10355
3160.54688 0.10353
3158.78906 0.10341
3157.03125 0.10329
3155.27344 0.10323
3153.51563 0.10323
3151.75781 0.10320
3150.00000 0.10312
3148.24219 0.10302
3146.48438 0.10301
3144.72656 0.10310
3142.96875 0.10319
3141.21094 0.10315
3139.45313 0.10293
3137.69531 0.10271
3135.93750 0.10265
3134.17969 0.10275
3132.42188 0.10291
3130.66406 0.10304
3128.90625 0.10301
3127.14844 0.10286
3125.39063 0.10271
3123.63281 0.10267
3121.87500 0.10269
3120.11719 0.10268
3118.35938 0.10267
3116.60156 0.10266
3114.84375 0.10263
3113.08594 0.10258
3111.32813 0.10258
3109.57031 0.10261
3107.81250 0.10263
3106.05469 0.10264
3104.29688 0.10272
3102.53906 0.10284
3100.78125 0.10283
3099.02344 0.10261
3097.26563 0.10235
3095.50781 0.10226
3093.75000 0.10232
3091.99219 0.10246
3090.23438 0.10262
3088.47656 0.10265
3086.71875 0.10248
3084.96094 0.10228
3083.20313 0.10221
3081.44531 0.10218
3079.68750 0.10205
3077.92969 0.10192
3076.17188 0.10188
3074.41406 0.10184
3072.65625 0.10176
3070.89844 0.10169
3069.14063 0.10164
3067.38281 0.10162
3065.62500 0.10163
3063.86719 0.10166
3062.10938 0.10167
3060.35156 0.10160
3058.59375 0.10154
3056.83594 0.10153
3055.07813 0.10159
3053.32031 0.10166
3051.56250 0.10170
3049.80469 0.10173
3048.04688 0.10175
3046.28906 0.10169
3044.53125 0.10161
3042.77344 0.10165
3041.01563 0.10166
3039.25781 0.10152
3037.50000 0.10143
3035.74219 0.10152
3033.98438 0.10161
3032.22656 0.10156
3030.46875 0.10144
3028.71094 0.10136
3026.95313 0.10138
3025.19531 0.10150
3023.43750 0.10164
3021.67969 0.10169
3019.92188 0.10166
3018.16406 0.10160
3016.40625 0.10152
3014.64844 0.10148
3012.89063 0.10146
3011.13281 0.10140
3009.37500 0.10137
3007.61719 0.10136
3005.85938 0.10132
3004.10156 0.10127
3002.34375 0.10129
3000.58594 0.10135
2998.82813 0.10140
2997.07031 0.10145
2995.31250 0.10153
2993.55469 0.10155
2991.79688 0.10146
2990.03906 0.10140
2988.28125 0.10151
2986.52344 0.10167
2984.76563 0.10171
2983.00781 0.10165
2981.25000 0.10166
2979.49219 0.10178
2977.73438 0.10194
2975.97656 0.10206
2974.21875 0.10216
2972.46094 0.10224
2970.70313 0.10232
2968.94531 0.10239
2967.18750 0.10248
2965.42969 0.10257
2963.67188 0.10260
2961.91406 0.10249
2960.15625 0.10232
2958.39844 0.10230
2956.64063 0.10248
2954.88281 0.10271
2953.12500 0.10279
2951.36719 0.10274
2949.60938 0.10267
2947.85156 0.10271
2946.09375 0.10287
2944.33594 0.10309
2942.57813 0.10331
2940.82031 0.10350
2939.06250 0.10366
2937.30469 0.10372
2935.54688 0.10361
2933.78906 0.10341
2932.03125 0.10318
2930.27344 0.10292
2928.51563 0.10267
2926.75781 0.10249
2925.00000 0.10240
2923.24219 0.10250
2921.48438 0.10269
2919.72656 0.10279
2917.96875 0.10280
2916.21094 0.10281
2914.45313 0.10284
2912.69531 0.10283
2910.93750 0.10274
2909.17969 0.10268
2907.42188 0.10271
2905.66406 0.10274
2903.90625 0.10259
2902.14844 0.10229
2900.39063 0.10200
2898.63281 0.10184
2896.87500 0.10187
2895.11719 0.10203
2893.35938 0.10216
2891.60156 0.10214
2889.84375 0.10204
2888.08594 0.10199
2886.32813 0.10202
2884.57031 0.10205
2882.81250 0.10201
2881.05469 0.10195
2879.29688 0.10198
2877.53906 0.10210
2875.78125 0.10221
2874.02344 0.10235
2872.26563 0.10255
2870.50781 0.10277
2868.75000 0.10291
2866.99219 0.10296
2865.23438 0.10291
2863.47656 0.10279
2861.71875 0.10266
2859.96094 0.10259
2858.20313 0.10264
2856.44531 0.10279
2854.68750 0.10291
2852.92969 0.10296
2851.17188 0.10302
2849.41406 0.10316
2847.65625 0.10330
2845.89844 0.10331
2844.14063 0.10319
2842.38281 0.10309
2840.62500 0.10313
2838.86719 0.10324
2837.10938 0.10334
2835.35156 0.10342
2833.59375 0.10347
2831.83594 0.10346
2830.07813 0.10342
2828.32031 0.10338
2826.56250 0.10335
2824.80469 0.10335
2823.04688 0.10342
2821.28906 0.10352
2819.53125 0.10361
2817.77344 0.10365
2816.01563 0.10366
2814.25781 0.10369
2812.50000 0.10374
2810.74219 0.10371
2808.98438 0.10363
2807.22656 0.10360
2805.46875 0.10359
2803.71094 0.10356
2801.95313 0.10359
2800.19531 0.10368
2798.43750 0.10375
2796.67969 0.10381
2794.92188 0.10382
2793.16406 0.10376
2791.40625 0.10371
2789.64844 0.10364
2787.89063 0.10356
2786.13281 0.10354
2784.37500 0.10359
2782.61719 0.10362
2780.85938 0.10363
2779.10156 0.10359
2777.34375 0.10342
2775.58594 0.10327
2773.82813 0.10326
2772.07031 0.10329
2770.31250 0.10327
2768.55469 0.10327
2766.79688 0.10336
2765.03906 0.10348
2763.28125 0.10354
2761.52344 0.10360
2759.76563 0.10370
2758.00781 0.10378
2756.25000 0.10386
2754.49219 0.10393
2752.73438 0.10394
2750.97656 0.10387
2749.21875 0.10382
2747.46094 0.10380
2745.70313 0.10375
2743.94531 0.10367
2742.18750 0.10362
2740.42969 0.10355
2738.67188 0.10341
2736.91406 0.10326
2735.15625 0.10309
2733.39844 0.10284
2731.64063 0.10254
2729.88281 0.10229
2728.12500 0.10209
2726.36719 0.10192
2724.60938 0.10177
2722.85156 0.10164
2721.09375 0.10152
2719.33594 0.10137
2717.57813 0.10117
2715.82031 0.10097
2714.06250 0.10089
2712.30469 0.10088
2710.54688 0.10085
2708.78906 0.10074
2707.03125 0.10056
2705.27344 0.10038
2703.51563 0.10023
2701.75781 0.10014
2700.00000 0.10007
2698.24219 0.09998
2696.48438 0.09985
2694.72656 0.09972
2692.96875 0.09966
2691.21094 0.09971
2689.45313 0.09972
2687.69531 0.09960
2685.93750 0.09950
2684.17969 0.09950
2682.42188 0.09946
2680.66406 0.09932
2678.90625 0.09917
2677.14844 0.09909
2675.39063 0.09908
2673.63281 0.09905
2671.87500 0.09892
2670.11719 0.09872
2668.35938 0.09859
2666.60156 0.09854
2664.84375 0.09849
2663.08594 0.09846
2661.32813 0.09844
2659.57031 0.09837
2657.81250 0.09826
2656.05469 0.09819
2654.29688 0.09812
2652.53906 0.09800
2650.78125 0.09789
2649.02344 0.09786
2647.26563 0.09787
2645.50781 0.09780
2643.75000 0.09767
2641.99219 0.09760
2640.23438 0.09757
2638.47656 0.09747
2636.71875 0.09733
2634.96094 0.09723
2633.20313 0.09717
2631.44531 0.09712
2629.68750 0.09710
2627.92969 0.09714
2626.17188 0.09714
2624.41406 0.09707
2622.65625 0.09697
2620.89844 0.09684
2619.14063 0.09670
2617.38281 0.09664
2615.62500 0.09668
2613.86719 0.09671
2612.10938 0.09673
2610.35156 0.09677
2608.59375 0.09681
2606.83594 0.09685
2605.07813 0.09689
2603.32031 0.09683
2601.56250 0.09666
2599.80469 0.09649
2598.04688 0.09636
2596.28906 0.09635
2594.53125 0.09641
2592.77344 0.09643
2591.01563 0.09634
2589.25781 0.09622
2587.50000 0.09617
2585.74219 0.09622
2583.98438 0.09628
2582.22656 0.09623
2580.46875 0.09611
2578.71094 0.09602
2576.95313 0.09601
2575.19531 0.09608
2573.43750 0.09618
2571.67969 0.09626
2569.92188 0.09625
2568.16406 0.09619
2566.40625 0.09615
2564.64844 0.09617
2562.89063 0.09620
2561.13281 0.09619
2559.37500 0.09615
2557.61719 0.09610
2555.85938 0.09610
2554.10156 0.09620
2552.34375 0.09633
2550.58594 0.09638
2548.82813 0.09637
2547.07031 0.09639
2545.31250 0.09647
2543.55469 0.09656
2541.79688 0.09665
2540.03906 0.09677
2538.28125 0.09688
2536.52344 0.09691
2534.76563 0.09688
2533.00781 0.09690
2531.25000 0.09693
2529.49219 0.09693
2527.73438 0.09691
2525.97656 0.09689
2524.21875 0.09690
2522.46094 0.09695
2520.70313 0.09702
2518.94531 0.09707
2517.18750 0.09706
2515.42969 0.09699
2513.67188 0.09694
2511.91406 0.09701
2510.15625 0.09716
2508.39844 0.09728
2506.64063 0.09733
2504.88281 0.09732
2503.12500 0.09729
2501.36719 0.09725
2499.60938 0.09729
2497.85156 0.09739
2496.09375 0.09751
2494.33594 0.09758
2492.57813 0.09760
2490.82031 0.09762
2489.06250 0.09771
2487.30469 0.09783
2485.54688 0.09790
2483.78906 0.09789
2482.03125 0.09784
2480.27344 0.09782
2478.51563 0.09783
2476.75781 0.09786
2475.00000 0.09789
2473.24219 0.09793
2471.48438 0.09794
2469.72656 0.09793
2467.96875 0.09794
2466.21094 0.09791
2464.45313 0.09781
2462.69531 0.09777
2460.93750 0.09790
2459.17969 0.09811
2457.42188 0.09833
2455.66406 0.09855
2453.90625 0.09872
2452.14844 0.09876
2450.39063 0.09882
2448.63281 0.09907
2446.87500 0.09947
2445.11719 0.09988
2443.35938 0.10031
2441.60156 0.10087
2439.84375 0.10156
2438.08594 0.10224
2436.32813 0.10294
2434.57031 0.10376
2432.81250 0.10464
2431.05469 0.10549
2429.29688 0.10643
2427.53906 0.10757
2425.78125 0.10874
2424.02344 0.10973
2422.26563 0.11045
2420.50781 0.11091
2418.75000 0.11112
2416.99219 0.11110
2415.23438 0.11087
2413.47656 0.11040
2411.71875 0.10965
2409.96094 0.10869
2408.20313 0.10765
2406.44531 0.10661
2404.68750 0.10555
2402.92969 0.10443
2401.17188 0.10337
2399.41406 0.10255
2397.65625 0.10194
2395.89844 0.10136
2394.14063 0.10080
2392.38281 0.10037
2390.62500 0.10005
2388.86719 0.09974
2387.10938 0.09942
2385.35156 0.09917
2383.59375 0.09893
2381.83594 0.09869
2380.07813 0.09836
2378.32031 0.09780
2376.56250 0.09708
2374.80469 0.09657
2373.04688 0.09631
2371.28906 0.09583
2369.53125 0.09524
2367.77344 0.09505
2366.01563 0.09541
2364.25781 0.09610
2362.50000 0.09676
2360.74219 0.09714
2358.98438 0.09703
2357.22656 0.09649
2355.46875 0.09586
2353.71094 0.09536
2351.95313 0.09504
2350.19531 0.09493
2348.43750 0.09497
2346.67969 0.09494
2344.92188 0.09478
2343.16406 0.09469
2341.40625 0.09466
2339.64844 0.09450
2337.89063 0.09426
2336.13281 0.09413
2334.37500 0.09405
2332.61719 0.09390
2330.85938 0.09368
2329.10156 0.09361
2327.34375 0.09370
2325.58594 0.09370
2323.82813 0.09350
2322.07031 0.09325
2320.31250 0.09307
2318.55469 0.09296
2316.79688 0.09289
2315.03906 0.09282
2313.28125 0.09274
2311.52344 0.09265
2309.76563 0.09256
2308.00781 0.09249
2306.25000 0.09240
2304.49219 0.09226
2302.73438 0.09208
2300.97656 0.09195
2299.21875 0.09189
2297.46094 0.09183
2295.70313 0.09173
2293.94531 0.09165
2292.18750 0.09159
2290.42969 0.09149
2288.67188 0.09138
2286.91406 0.09133
2285.15625 0.09132
2283.39844 0.09125
2281.64063 0.09115
2279.88281 0.09111
2278.12500 0.09111
2276.36719 0.09105
2274.60938 0.09094
2272.85156 0.09082
2271.09375 0.09069
2269.33594 0.09053
2267.57813 0.09038
2265.82031 0.09031
2264.06250 0.09027
2262.30469 0.09017
2260.54688 0.09002
2258.78906 0.08992
2257.03125 0.08991
2255.27344 0.08993
2253.51563 0.08996
2251.75781 0.08993
2250.00000 0.08982
2248.24219 0.08969
2246.48438 0.08962
2244.72656 0.08969
2242.96875 0.08983
2241.21094 0.08987
2239.45313 0.08980
2237.69531 0.08974
2235.93750 0.08970
2234.17969 0.08966
2232.42188 0.08961
2230.66406 0.08952
2228.90625 0.08935
2227.14844 0.08922
2225.39063 0.08920
2223.63281 0.08929
2221.87500 0.08939
2220.11719 0.08937
2218.35938 0.08930
2216.60156 0.08928
2214.84375 0.08927
2213.08594 0.08921
2211.32813 0.08918
2209.57031 0.08928
2207.81250 0.08938
2206.05469 0.08938
2204.29688 0.08929
2202.53906 0.08912
2200.78125 0.08894
2199.02344 0.08880
2197.26563 0.08871
2195.50781 0.08865
2193.75000 0.08861
2191.99219 0.08854
2190.23438 0.08836
2188.47656 0.08813
2186.71875 0.08798
2184.96094 0.08791
2183.20313 0.08789
2181.44531 0.08788
2179.68750 0.08779
2177.92969 0.08764
2176.17188 0.08748
2174.41406 0.08733
2172.65625 0.08720
2170.89844 0.08717
2169.14063 0.08729
2167.38281 0.08742
2165.62500 0.08741
2163.86719 0.08725
2162.10938 0.08707
2160.35156 0.08691
2158.59375 0.08678
2156.83594 0.08672
2155.07813 0.08668
2153.32031 0.08663
2151.56250 0.08657
2149.80469 0.08652
2148.04688 0.08643
2146.28906 0.08630
2144.53125 0.08620
2142.77344 0.08615
2141.01563 0.08608
2139.25781 0.08597
2137.50000 0.08584
2135.74219 0.08571
2133.98438 0.08560
2132.22656 0.08550
2130.46875 0.08545
2128.71094 0.08539
2126.95313 0.08525
2125.19531 0.08510
2123.43750 0.08503
2121.67969 0.08499
2119.92188 0.08492
2118.16406 0.08486
2116.40625 0.08482
2114.64844 0.08473
2112.89063 0.08460
2111.13281 0.08449
2109.37500 0.08445
2107.61719 0.08446
2105.85938 0.08444
2104.10156 0.08437
2102.34375 0.08425
2100.58594 0.08419
2098.82813 0.08422
2097.07031 0.08425
2095.31250 0.08421
2093.55469 0.08413
2091.79688 0.08409
2090.03906 0.08408
2088.28125 0.08406
2086.52344 0.08401
2084.76563 0.08397
2083.00781 0.08396
2081.25000 0.08397
2079.49219 0.08394
2077.73438 0.08386
2075.97656 0.08379
2074.21875 0.08381
2072.46094 0.08389
2070.70313 0.08393
2068.94531 0.08390
2067.18750 0.08383
2065.42969 0.08380
2063.67188 0.08379
2061.91406 0.08373
2060.15625 0.08364
2058.39844 0.08358
2056.64063 0.08362
2054.88281 0.08370
2053.12500 0.08374
2051.36719 0.08367
2049.60938 0.08353
2047.85156 0.08339
2046.09375 0.08326
2044.33594 0.08309
2042.57813 0.08289
2040.82031 0.08270
2039.06250 0.08258
2037.30469 0.08250
2035.54688 0.08240
2033.78906 0.08232
2032.03125 0.08227
2030.27344 0.08224
2028.51563 0.08215
2026.75781 0.08201
2025.00000 0.08183
2023.24219 0.08160
2021.48438 0.08129
2019.72656 0.08100
2017.96875 0.08085
2016.21094 0.08077
2014.45313 0.08060
2012.69531 0.08035
2010.93750 0.08016
2009.17969 0.08006
2007.42188 0.08003
2005.66406 0.07997
2003.90625 0.07980
2002.14844 0.07965
2000.39063 0.07966
1998.63281 0.07973
1996.87500 0.07961
1995.11719 0.07931
1993.35938 0.07897
1991.60156 0.07868
1989.84375 0.07847
1988.08594 0.07830
1986.32813 0.07814
1984.57031 0.07802
1982.81250 0.07794
1981.05469 0.07790
1979.29688 0.07783
1977.53906 0.07771
1975.78125 0.07767
1974.02344 0.07773
1972.26563 0.07770
1970.50781 0.07753
1968.75000 0.07736
1966.99219 0.07724
1965.23438 0.07712
1963.47656 0.07700
1961.71875 0.07694
1959.96094 0.07691
1958.20313 0.07684
1956.44531 0.07682
1954.68750 0.07688
1952.92969 0.07697
1951.17188 0.07707
1949.41406 0.07715
1947.65625 0.07694
1945.89844 0.07648
1944.14063 0.07611
1942.38281 0.07590
1940.62500 0.07575
1938.86719 0.07562
1937.10938 0.07547
1935.35156 0.07535
1933.59375 0.07533
1931.83594 0.07545
1930.07813 0.07564
1928.32031 0.07570
1926.56250 0.07557
1924.80469 0.07541
1923.04688 0.07519
1921.28906 0.07494
1919.53125 0.07480
1917.77344 0.07482
1916.01563 0.07484
1914.25781 0.07468
1912.50000 0.07437
1910.74219 0.07408
1908.98438 0.07389
1907.22656 0.07373
1905.46875 0.07356
1903.71094 0.07349
1901.95313 0.07348
1900.19531 0.07343
1898.43750 0.07334
1896.67969 0.07335
1894.92188 0.07332
1893.16406 0.07316
1891.40625 0.07300
1889.64844 0.07285
1887.89063 0.07267
1886.13281 0.07252
1884.37500 0.07241
1882.61719 0.07227
1880.85938 0.07213
1879.10156 0.07218
1877.34375 0.07252
1875.58594 0.07306
1873.82813 0.07325
1872.07031 0.07273
1870.31250 0.07201
1868.55469 0.07152
1866.79688 0.07137
1865.03906 0.07144
1863.28125 0.07146
1861.52344 0.07133
1859.76563 0.07114
1858.00781 0.07102
1856.25000 0.07109
1854.49219 0.07130
1852.73438 0.07154
1850.97656 0.07175
1849.21875 0.07167
1847.46094 0.07121
1845.70313 0.07080
1843.94531 0.07064
1842.18750 0.07054
1840.42969 0.07040
1838.67188 0.07046
1836.91406 0.07080
1835.15625 0.07095
1833.39844 0.07068
1831.64063 0.07036
1829.88281 0.07004
1828.12500 0.06960
1826.36719 0.06915
1824.60938 0.06886
1822.85156 0.06872
1821.09375 0.06862
1819.33594 0.06864
1817.57813 0.06884
1815.82031 0.06892
1814.06250 0.06864
1812.30469 0.06821
1810.54688 0.06803
1808.78906 0.06819
1807.03125 0.06843
1805.27344 0.06844
1803.51563 0.06829
1801.75781 0.06827
1800.00000 0.06847
1798.24219 0.06866
1796.48438 0.06825
1794.72656 0.06745
1792.96875 0.06692
1791.21094 0.06679
1789.45313 0.06686
1787.69531 0.06691
1785.93750 0.06684
1784.17969 0.06667
1782.42188 0.06661
1780.66406 0.06694
1778.90625 0.06763
1777.14844 0.06787
1775.39063 0.06726
1773.63281 0.06645
1771.87500 0.06585
1770.11719 0.06559
1768.35938 0.06567
1766.60156 0.06586
1764.84375 0.06590
1763.08594 0.06599
1761.32813 0.06628
1759.57031 0.06698
1757.81250 0.06869
1756.05469 0.07208
1754.29688 0.07644
1752.53906 0.08038
1750.78125 0.08383
1749.02344 0.08690
1747.26563 0.08905
1745.50781 0.08992
1743.75000 0.08994
1741.99219 0.09037
1740.23438 0.09320
1738.47656 0.09821
1736.71875 0.10071
1734.96094 0.10002
1733.20313 0.09687
1731.44531 0.09150
1729.68750 0.08464
1727.92969 0.07836
1726.17188 0.07442
1724.41406 0.07258
1722.65625 0.07167
1720.89844 0.07032
1719.14063 0.06868
1717.38281 0.06743
1715.62500 0.06673
1713.86719 0.06657
1712.10938 0.06695
1710.35156 0.06743
1708.59375 0.06748
1706.83594 0.06745
1705.07813 0.06779
1703.32031 0.06796
1701.56250 0.06720
1699.80469 0.06589
1698.04688 0.06497
1696.28906 0.06470
1694.53125 0.06488
1692.77344 0.06523
1691.01563 0.06566
1689.25781 0.06598
1687.50000 0.06552
1685.74219 0.06472
1683.98438 0.06412
1682.22656 0.06384
1680.46875 0.06391
1678.71094 0.06414
1676.95313 0.06443
1675.19531 0.06463
1673.43750 0.06415
1671.67969 0.06343
1669.92188 0.06320
1668.16406 0.06341
1666.40625 0.06337
1664.64844 0.06309
1662.89063 0.06309
1661.13281 0.06357
1659.37500 0.06453
1657.61719 0.06533
1655.85938 0.06539
1654.10156 0.06555
1652.34375 0.06574
1650.58594 0.06510
1648.82813 0.06427
1647.07031 0.06394
1645.31250 0.06409
1643.55469 0.06466
1641.79688 0.06543
1640.03906 0.06543
1638.28125 0.06469
1636.52344 0.06419
1634.76563 0.06421
1633.00781 0.06464
1631.25000 0.06511
1629.49219 0.06547
1627.73438 0.06557
1625.97656 0.06548
1624.21875 0.06569
1622.46094 0.06646
1620.70313 0.06723
1618.94531 0.06747
1617.18750 0.06775
1615.42969 0.06846
1613.67188 0.06941
1611.91406 0.07026
1610.15625 0.07098
1608.39844 0.07171
1606.64063 0.07244
1604.88281 0.07303
1603.12500 0.07359
1601.36719 0.07428
1599.60938 0.07496
1597.85156 0.07550
1596.09375 0.07597
1594.33594 0.07644
1592.57813 0.07690
1590.82031 0.07735
1589.06250 0.07788
1587.30469 0.07847
1585.54688 0.07912
1583.78906 0.08003
1582.03125 0.08141
1580.27344 0.08254
1578.51563 0.08275
1576.75781 0.08305
1575.00000 0.08407
1573.24219 0.08510
1571.48438 0.08558
1569.72656 0.08599
1567.96875 0.08639
1566.21094 0.08689
1564.45313 0.08849
1562.69531 0.09071
1560.93750 0.09093
1559.17969 0.09062
1557.42188 0.09066
1555.66406 0.09110
1553.90625 0.09176
1552.14844 0.09254
1550.39063 0.09382
1548.63281 0.09587
1546.87500 0.09815
1545.11719 0.09986
1543.35938 0.10010
1541.60156 0.09996
1539.84375 0.10059
1538.08594 0.10196
1536.32813 0.10304
1534.57031 0.10395
1532.81250 0.10554
1531.05469 0.10787
1529.29688 0.11003
1527.53906 0.11219
1525.78125 0.11454
1524.02344 0.11621
1522.26563 0.11796
1520.50781 0.12003
1518.75000 0.12179
1516.99219 0.12376
1515.23438 0.12637
1513.47656 0.13009
1511.71875 0.13596
1509.96094 0.14021
1508.20313 0.14220
1506.44531 0.14470
1504.68750 0.14873
1502.92969 0.15472
1501.17188 0.16180
1499.41406 0.16739
1497.65625 0.17168
1495.89844 0.17730
1494.14063 0.18552
1492.38281 0.19290
1490.62500 0.19779
1488.86719 0.20209
1487.10938 0.20691
1485.35156 0.21215
1483.59375 0.21705
1481.83594 0.22191
1480.07813 0.22749
1478.32031 0.23409
1476.56250 0.24058
1474.80469 0.24467
1473.04688 0.24753
1471.28906 0.25134
1469.53125 0.25673
1467.77344 0.26183
1466.01563 0.26550
1464.25781 0.26940
1462.50000 0.27619
1460.74219 0.28400
1458.98438 0.28800
1457.22656 0.29082
1455.46875 0.29442
1453.71094 0.29930
1451.95313 0.30509
1450.19531 0.31066
1448.43750 0.31579
1446.67969 0.32117
1444.92188 0.32661
1443.16406 0.33235
1441.40625 0.33982
1439.64844 0.34714
1437.89063 0.35189
1436.13281 0.35602
1434.37500 0.36047
1432.61719 0.36413
1430.85938 0.36676
1429.10156 0.36919
1427.34375 0.37154
1425.58594 0.37369
1423.82813 0.37615
1422.07031 0.37831
1420.31250 0.37943
1418.55469 0.38072
1416.79688 0.38288
1415.03906 0.38586
1413.28125 0.38940
1411.52344 0.39356
1409.76563 0.39902
1408.00781 0.40520
1406.25000 0.41137
1404.49219 0.41885
1402.73438 0.42827
1400.97656 0.43866
1399.21875 0.44996
1397.46094 0.46083
1395.70313 0.46985
1393.94531 0.47869
1392.18750 0.48911
1390.42969 0.49918
1388.67188 0.50633
1386.91406 0.51146
1385.15625 0.51554
1383.39844 0.51856
1381.64063 0.52037
1379.88281 0.52069
1378.12500 0.51903
1376.36719 0.51573
1374.60938 0.51178
1372.85156 0.50715
1371.09375 0.50200
1369.33594 0.49690
1367.57813 0.49130
1365.82031 0.48482
1364.06250 0.47853
1362.30469 0.47273
1360.54688 0.46713
1358.78906 0.46169
1357.03125 0.45658
1355.27344 0.45180
1353.51563 0.44719
1351.75781 0.44269
1350.00000 0.43845
1348.24219 0.43469
1346.48438 0.43140
1344.72656 0.42805
1342.96875 0.42424
1341.21094 0.42032
1339.45313 0.41670
1337.69531 0.41325
1335.93750 0.40977
1334.17969 0.40634
1332.42188 0.40319
1330.66406 0.40039
1328.90625 0.39780
1327.14844 0.39529
1325.39063 0.39290
1323.63281 0.39063
1321.87500 0.38835
1320.11719 0.38614
1318.35938 0.38419
1316.60156 0.38245
1314.84375 0.38065
1313.08594 0.37862
1311.32813 0.37632
1309.57031 0.37374
1307.81250 0.37092
1306.05469 0.36792
1304.29688 0.36470
1302.53906 0.36128
1300.78125 0.35775
1299.02344 0.35418
1297.26563 0.35056
1295.50781 0.34692
1293.75000 0.34333
1291.99219 0.33969
1290.23438 0.33594
1288.47656 0.33230
1286.71875 0.32880
1284.96094 0.32531
1283.20313 0.32173
1281.44531 0.31823
1279.68750 0.31498
1277.92969 0.31191
1276.17188 0.30889
1274.41406 0.30587
1272.65625 0.30290
1270.89844 0.30001
1269.14063 0.29721
1267.38281 0.29456
1265.62500 0.29206
1263.86719 0.28961
1262.10938 0.28720
1260.35156 0.28488
1258.59375 0.28265
1256.83594 0.28054
1255.07813 0.27859
1253.32031 0.27678
1251.56250 0.27500
1249.80469 0.27314
1248.04688 0.27111
1246.28906 0.26900
1244.53125 0.26707
1242.77344 0.26542
1241.01563 0.26394
1239.25781 0.26250
1237.50000 0.26108
1235.74219 0.25965
1233.98438 0.25826
1232.22656 0.25693
1230.46875 0.25567
1228.71094 0.25442
1226.95313 0.25314
1225.19531 0.25188
1223.43750 0.25064
1221.67969 0.24940
1219.92188 0.24814
1218.16406 0.24689
1216.40625 0.24567
1214.64844 0.24442
1212.89063 0.24317
1211.13281 0.24192
1209.37500 0.24061
1207.61719 0.23928
1205.85938 0.23795
1204.10156 0.23667
1202.34375 0.23549
1200.58594 0.23441
1198.82813 0.23333
1197.07031 0.23220
1195.31250 0.23107
1193.55469 0.22996
1191.79688 0.22891
1190.03906 0.22796
1188.28125 0.22706
1186.52344 0.22615
1184.76563 0.22529
1183.00781 0.22452
1181.25000 0.22374
1179.49219 0.22290
1177.73438 0.22207
1175.97656 0.22133
1174.21875 0.22071
1172.46094 0.22028
1170.70313 0.22001
1168.94531 0.21980
1167.18750 0.21957
1165.42969 0.21929
1163.67188 0.21893
1161.91406 0.21842
1160.15625 0.21784
1158.39844 0.21725
1156.64063 0.21657
1154.88281 0.21580
1153.12500 0.21500
1151.36719 0.21428
1149.60938 0.21365
1147.85156 0.21304
1146.09375 0.21240
1144.33594 0.21172
1142.57813 0.21100
1140.82031 0.21026
1139.06250 0.20951
1137.30469 0.20873
1135.54688 0.20791
1133.78906 0.20712
1132.03125 0.20644
1130.27344 0.20593
1128.51563 0.20565
1126.75781 0.20566
1125.00000 0.20605
1123.24219 0.20693
1121.48438 0.20827
1119.72656 0.20987
1117.96875 0.21152
1116.21094 0.21306
1114.45313 0.21429
1112.69531 0.21503
1110.93750 0.21521
1109.17969 0.21480
1107.42188 0.21384
1105.66406 0.21255
1103.90625 0.21120
1102.14844 0.20984
1100.39063 0.20839
1098.63281 0.20672
1096.87500 0.20490
1095.11719 0.20311
1093.35938 0.20151
1091.60156 0.20010
1089.84375 0.19880
1088.08594 0.19759
1086.32813 0.19651
1084.57031 0.19550
1082.81250 0.19437
1081.05469 0.19305
1079.29688 0.19172
1077.53906 0.19050
1075.78125 0.18934
1074.02344 0.18820
1072.26563 0.18711
1070.50781 0.18611
1068.75000 0.18514
1066.99219 0.18438
1065.23438 0.18474
1063.47656 0.18848
1061.71875 0.19991
1059.96094 0.22576
1058.20313 0.27156
1056.44531 0.32822
1054.68750 0.36036
1052.92969 0.34083
1051.17188 0.29394
1049.41406 0.25473
1047.65625 0.23171
1045.89844 0.21922
1044.14063 0.21195
1042.38281 0.20720
1040.62500 0.20382
1038.86719 0.20165
1037.10938 0.20070
1035.35156 0.20022
1033.59375 0.19922
1031.83594 0.19774
1030.07813 0.19639
1028.32031 0.19541
1026.56250 0.19468
1024.80469 0.19401
1023.04688 0.19339
1021.28906 0.19290
1019.53125 0.19267
1017.77344 0.19263
1016.01563 0.19268
1014.25781 0.19292
1012.50000 0.19335
1010.74219 0.19381
1008.98438 0.19418
1007.22656 0.19451
1005.46875 0.19491
1003.71094 0.19544
1001.95313 0.19612
1000.19531 0.19685
998.43750 0.19741
996.67969 0.19759
994.92188 0.19743
993.16406 0.19720
991.40625 0.19695
989.64844 0.19641
987.89063 0.19541
986.13281 0.19421
984.37500 0.19321
982.61719 0.19254
980.85938 0.19209
979.10156 0.19176
977.34375 0.19151
975.58594 0.19132
973.82813 0.19129
972.07031 0.19144
970.31250 0.19168
968.55469 0.19187
966.79688 0.19197
965.03906 0.19207
963.28125 0.19227
961.52344 0.19252
959.76563 0.19279
958.00781 0.19305
956.25000 0.19329
954.49219 0.19350
952.73438 0.19377
950.97656 0.19415
949.21875 0.19458
947.46094 0.19487
945.70313 0.19492
943.94531 0.19480
942.18750 0.19461
940.42969 0.19440
938.67188 0.19422
936.91406 0.19409
935.15625 0.19390
933.39844 0.19356
931.64063 0.19315
929.88281 0.19275
928.12500 0.19238
926.36719 0.19192
924.60938 0.19138
922.85156 0.19084
921.09375 0.19034
919.33594 0.18982
917.57813 0.18927
915.82031 0.18865
914.06250 0.18796
912.30469 0.18728
910.54688 0.18667
908.78906 0.18612
907.03125 0.18561
905.27344 0.18508
903.51563 0.18451
901.75781 0.18402
900.00000 0.18365
898.24219 0.18332
896.48438 0.18297
894.72656 0.18267
892.96875 0.18252
891.21094 0.18249
889.45313 0.18233
887.69531 0.18191
885.93750 0.18136
884.17969 0.18098
882.42188 0.18075
880.66406 0.18047
878.90625 0.18020
877.14844 0.18013
875.39063 0.18003
873.63281 0.17952
871.87500 0.17860
870.11719 0.17769
868.35938 0.17706
866.60156 0.17669
864.84375 0.17671
863.08594 0.17742
861.32813 0.17887
859.57031 0.18084
857.81250 0.18337
856.05469 0.18678
854.29688 0.19157
852.53906 0.19854
850.78125 0.20930
849.02344 0.22662
847.26563 0.25403
845.50781 0.29327
843.75000 0.34075
841.99219 0.38679
840.23438 0.42050
838.47656 0.43682
836.71875 0.43779
834.96094 0.42783
833.20313 0.41069
831.44531 0.39039
829.68750 0.37221
827.92969 0.36014
826.17188 0.35215
824.41406 0.34155
822.65625 0.32563
820.89844 0.30825
819.14063 0.29320
817.38281 0.28106
815.62500 0.27128
813.86719 0.26326
812.10938 0.25637
810.35156 0.25024
808.59375 0.24485
806.83594 0.24022
805.07813 0.23626
803.32031 0.23292
801.56250 0.23018
799.80469 0.22791
798.04688 0.22590
796.28906 0.22400
794.53125 0.22222
792.77344 0.22053
791.01563 0.21868
789.25781 0.21666
787.50000 0.21490
785.74219 0.21348
783.98438 0.21222
782.22656 0.21114
780.46875 0.21017
778.71094 0.20917
776.95313 0.20820
775.19531 0.20738
773.43750 0.20647
771.67969 0.20523
769.92188 0.20382
768.16406 0.20240
766.40625 0.20085
764.64844 0.19929
762.89063 0.19813
761.13281 0.19742
759.37500 0.19683
757.61719 0.19611
755.85938 0.19527
754.10156 0.19446
752.34375 0.19381
750.58594 0.19332
748.82813 0.19275
747.07031 0.19195
745.31250 0.19105
743.55469 0.19037
741.79688 0.19019
740.03906 0.19048
738.28125 0.19070
736.52344 0.19017
734.76563 0.18884
733.00781 0.18717
731.25000 0.18546
729.49219 0.18377
727.73438 0.18211
725.97656 0.18049
724.21875 0.17890
722.46094 0.17733
720.70313 0.17579
718.94531 0.17423
717.18750 0.17261
715.42969 0.17095
713.67188 0.16937
711.91406 0.16809
710.15625 0.16696
708.39844 0.16558
706.64063 0.16473
704.88281 0.16590
703.12500 0.16816
701.36719 0.16825
699.60938 0.16517
697.85156 0.16143
696.09375 0.15900
694.33594 0.15779
692.57813 0.15740
690.82031 0.15896
689.06250 0.16673
687.30469 0.18791
685.54688 0.22935
683.78906 0.29144
682.03125 0.36202
680.27344 0.41824
678.51563 0.43801
676.75781 0.41778
675.00000 0.38024
673.24219 0.34735
671.48438 0.31765
669.72656 0.28726
667.96875 0.26986
666.21094 0.26142
664.45313 0.25286
662.69531 0.24288
660.93750 0.23336
659.17969 0.22618
657.42188 0.22179
655.66406 0.21897
653.90625 0.21631
652.14844 0.21364
650.39063 0.21216
648.63281 0.21184
646.87500 0.21098
645.11719 0.20929
643.35938 0.20754
641.60156 0.20591
639.84375 0.20431
638.08594 0.20281
636.32813 0.20170
634.57031 0.20164
632.81250 0.20284
631.05469 0.20323
629.29688 0.20071
627.53906 0.19742
625.78125 0.19684
624.02344 0.19766
622.26563 0.19564
620.50781 0.19079
618.75000 0.18660
616.99219 0.18308
615.23438 0.17948
613.47656 0.17849
611.71875 0.18120
609.96094 0.18491
608.20313 0.18611
606.44531 0.18392
604.68750 0.18134
602.92969 0.18119
601.17188 0.18244
599.41406 0.18318
