3997.26563 0.43649
3995.50781 0.43665
3993.75000 0.43706
3991.99219 0.43730
3990.23438 0.43732
3988.47656 0.43744
3986.71875 0.43770
3984.96094 0.43788
3983.20313 0.43802
3981.44531 0.43819
3979.68750 0.43829
3977.92969 0.43829
3976.17188 0.43817
3974.41406 0.43791
3972.65625 0.43766
3970.89844 0.43757
3969.14063 0.43754
3967.38281 0.43740
3965.62500 0.43732
3963.86719 0.43752
3962.10938 0.43787
3960.35156 0.43791
3958.59375 0.43767
3956.83594 0.43773
3955.07813 0.43821
3953.32031 0.43857
3951.56250 0.43856
3949.80469 0.43843
3948.04688 0.43837
3946.28906 0.43849
3944.53125 0.43876
3942.77344 0.43878
3941.01563 0.43838
3939.25781 0.43795
3937.50000 0.43782
3935.74219 0.43774
3933.98438 0.43749
3932.22656 0.43739
3930.46875 0.43759
3928.71094 0.43782
3926.95313 0.43789
3925.19531 0.43783
3923.43750 0.43771
3921.67969 0.43770
3919.92188 0.43814
3918.16406 0.43906
3916.40625 0.43980
3914.64844 0.43973
3912.89063 0.43948
3911.13281 0.43929
3909.37500 0.43884
3907.61719 0.43835
3905.85938 0.43828
3904.10156 0.43870
3902.34375 0.43889
3900.58594 0.43845
3898.82813 0.43796
3897.07031 0.43800
3895.31250 0.43836
3893.55469 0.43868
3891.79688 0.43882
3890.03906 0.43875
3888.28125 0.43880
3886.52344 0.43920
3884.76563 0.43972
3883.00781 0.44017
3881.25000 0.44050
3879.49219 0.44054
3877.73438 0.44056
3875.97656 0.44055
3874.21875 0.44012
3872.46094 0.43969
3870.70313 0.43971
3868.94531 0.44011
3867.18750 0.44093
3865.42969 0.44214
3863.67188 0.44186
3861.91406 0.44057
3860.15625 0.43972
3858.39844 0.43953
3856.64063 0.43973
3854.88281 0.44014
3853.12500 0.44092
3851.36719 0.44189
3849.60938 0.44221
3847.85156 0.44169
3846.09375 0.44101
3844.33594 0.44052
3842.57813 0.44028
3840.82031 0.44039
3839.06250 0.44081
3837.30469 0.44116
3835.54688 0.44140
3833.78906 0.44213
3832.03125 0.44300
3830.27344 0.44284
3828.51563 0.44213
3826.75781 0.44142
3825.00000 0.44086
3823.24219 0.44041
3821.48438 0.44009
3819.72656 0.43997
3817.96875 0.44004
3816.21094 0.44033
3814.45313 0.44106
3812.69531 0.44162
3810.93750 0.44131
3809.17969 0.44088
3807.42188 0.44048
3805.66406 0.43991
3803.90625 0.43943
3802.14844 0.43929
3800.39063 0.43946
3798.63281 0.43982
3796.87500 0.44002
3795.11719 0.43978
3793.35938 0.43951
3791.60156 0.43960
3789.84375 0.43960
3788.08594 0.43922
3786.32813 0.43914
3784.57031 0.43970
3782.81250 0.44053
3781.05469 0.44100
3779.29688 0.44109
3777.53906 0.44112
3775.78125 0.44104
3774.02344 0.44097
3772.26563 0.44126
3770.50781 0.44175
3768.75000 0.44182
3766.99219 0.44190
3765.23438 0.44282
3763.47656 0.44472
3761.71875 0.44572
3759.96094 0.44467
3758.20313 0.44322
3756.44531 0.44256
3754.68750 0.44298
3752.92969 0.44360
3751.17188 0.44407
3749.41406 0.44463
3747.65625 0.44535
3745.89844 0.44534
3744.14063 0.44406
3742.38281 0.44265
3740.62500 0.44186
3738.86719 0.44170
3737.10938 0.44205
3735.35156 0.44258
3733.59375 0.44291
3731.83594 0.44282
3730.07813 0.44238
3728.32031 0.44196
3726.56250 0.44192
3724.80469 0.44253
3723.04688 0.44356
3721.28906 0.44370
3719.53125 0.44305
3717.77344 0.44248
3716.01563 0.44218
3714.25781 0.44223
3712.50000 0.44255
3710.74219 0.44278
3708.98438 0.44290
3707.22656 0.44304
3705.46875 0.44346
3703.71094 0.44458
3701.95313 0.44612
3700.19531 0.44650
3698.43750 0.44549
3696.67969 0.44446
3694.92188 0.44391
3693.16406 0.44400
3691.40625 0.44466
3689.64844 0.44544
3687.89063 0.44602
3686.13281 0.44629
3684.37500 0.44628
3682.61719 0.44621
3680.85938 0.44574
3679.10156 0.44481
3677.34375 0.44416
3675.58594 0.44411
3673.82813 0.44449
3672.07031 0.44495
3670.31250 0.44539
3668.55469 0.44598
3666.79688 0.44647
3665.03906 0.44661
3663.28125 0.44684
3661.52344 0.44764
3659.76563 0.44820
3658.00781 0.44763
3656.25000 0.44683
3654.49219 0.44630
3652.73438 0.44617
3650.97656 0.44642
3649.21875 0.44673
3647.46094 0.44680
3645.70313 0.44657
3643.94531 0.44623
3642.18750 0.44618
3640.42969 0.44681
3638.67188 0.44732
3636.91406 0.44715
3635.15625 0.44704
3633.39844 0.44742
3631.64063 0.44824
3629.88281 0.44905
3628.12500 0.44952
3626.36719 0.44983
3624.60938 0.44991
3622.85156 0.44964
3621.09375 0.44943
3619.33594 0.44941
3617.57813 0.44931
3615.82031 0.44928
3614.06250 0.44950
3612.30469 0.44970
3610.54688 0.44974
3608.78906 0.44999
3607.03125 0.45038
3605.27344 0.45034
3603.51563 0.44987
3601.75781 0.44965
3600.00000 0.45012
3598.24219 0.45094
3596.48438 0.45112
3594.72656 0.45076
3592.96875 0.45048
3591.21094 0.45047
3589.45313 0.45052
3587.69531 0.45049
3585.93750 0.45046
3584.17969 0.45051
3582.42188 0.45085
3580.66406 0.45164
3578.90625 0.45270
3577.14844 0.45315
3575.39063 0.45278
3573.63281 0.45235
3571.87500 0.45237
3570.11719 0.45278
3568.35938 0.45319
3566.60156 0.45346
3564.84375 0.45364
3563.08594 0.45369
3561.32813 0.45376
3559.57031 0.45427
3557.81250 0.45505
3556.05469 0.45522
3554.29688 0.45462
3552.53906 0.45406
3550.78125 0.45393
3549.02344 0.45413
3547.26563 0.45447
3545.50781 0.45494
3543.75000 0.45551
3541.99219 0.45579
3540.23438 0.45559
3538.47656 0.45542
3536.71875 0.45565
3534.96094 0.45603
3533.20313 0.45623
3531.44531 0.45620
3529.68750 0.45628
3527.92969 0.45663
3526.17188 0.45701
3524.41406 0.45718
3522.65625 0.45705
3520.89844 0.45679
3519.14063 0.45686
3517.38281 0.45763
3515.62500 0.45862
3513.86719 0.45891
3512.10938 0.45856
3510.35156 0.45849
3508.59375 0.45885
3506.83594 0.45929
3505.07813 0.45964
3503.32031 0.45984
3501.56250 0.46002
3499.80469 0.46030
3498.04688 0.46039
3496.28906 0.46014
3494.53125 0.45993
3492.77344 0.46020
3491.01563 0.46071
3489.25781 0.46105
3487.50000 0.46119
3485.74219 0.46116
3483.98438 0.46107
3482.22656 0.46113
3480.46875 0.46131
3478.71094 0.46140
3476.95313 0.46141
3475.19531 0.46144
3473.43750 0.46151
3471.67969 0.46163
3469.92188 0.46191
3468.16406 0.46233
3466.40625 0.46263
3464.64844 0.46281
3462.89063 0.46302
3461.13281 0.46305
3459.37500 0.46279
3457.61719 0.46270
3455.85938 0.46317
3454.10156 0.46375
3452.34375 0.46372
3450.58594 0.46321
3448.82813 0.46296
3447.07031 0.46324
3445.31250 0.46348
3443.55469 0.46327
3441.79688 0.46301
3440.03906 0.46325
3438.28125 0.46378
3436.52344 0.46399
3434.76563 0.46401
3433.00781 0.46424
3431.25000 0.46448
3429.49219 0.46444
3427.73438 0.46433
3425.97656 0.46432
3424.21875 0.46439
3422.46094 0.46453
3420.70313 0.46468
3418.94531 0.46459
3417.18750 0.46414
3415.42969 0.46363
3413.67188 0.46339
3411.91406 0.46340
3410.15625 0.46359
3408.39844 0.46393
3406.64063 0.46437
3404.88281 0.46469
3403.12500 0.46476
3401.36719 0.46468
3399.60938 0.46453
3397.85156 0.46430
3396.09375 0.46407
3394.33594 0.46390
3392.57813 0.46380
3390.82031 0.46370
3389.06250 0.46355
3387.30469 0.46347
3385.54688 0.46347
3383.78906 0.46338
3382.03125 0.46325
3380.27344 0.46322
3378.51563 0.46316
3376.75781 0.46314
3375.00000 0.46329
3373.24219 0.46350
3371.48438 0.46364
3369.72656 0.46362
3367.96875 0.46339
3366.21094 0.46322
3364.45313 0.46329
3362.69531 0.46345
3360.93750 0.46349
3359.17969 0.46325
3357.42188 0.46284
3355.66406 0.46253
3353.90625 0.46237
3352.14844 0.46225
3350.39063 0.46210
3348.63281 0.46208
3346.87500 0.46237
3345.11719 0.46268
3343.35938 0.46262
3341.60156 0.46229
3339.84375 0.46200
3338.08594 0.46199
3336.32813 0.46231
3334.57031 0.46260
3332.81250 0.46247
3331.05469 0.46213
3329.29688 0.46214
3327.53906 0.46256
3325.78125 0.46288
3324.02344 0.46285
3322.26563 0.46261
3320.50781 0.46241
3318.75000 0.46227
3316.99219 0.46220
3315.23438 0.46238
3313.47656 0.46263
3311.71875 0.46266
3309.96094 0.46262
3308.20313 0.46256
3306.44531 0.46250
3304.68750 0.46254
3302.92969 0.46246
3301.17188 0.46223
3299.41406 0.46230
3297.65625 0.46284
3295.89844 0.46335
3294.14063 0.46335
3292.38281 0.46289
3290.62500 0.46245
3288.86719 0.46230
3287.10938 0.46234
3285.35156 0.46258
3283.59375 0.46306
3281.83594 0.46341
3280.07813 0.46325
3278.32031 0.46285
3276.56250 0.46269
3274.80469 0.46287
3273.04688 0.46309
3271.28906 0.46313
3269.53125 0.46308
3267.77344 0.46311
3266.01563 0.46314
3264.25781 0.46288
3262.50000 0.46237
3260.74219 0.46179
3258.98438 0.46134
3257.22656 0.46136
3255.46875 0.46186
3253.71094 0.46228
3251.95313 0.46243
3250.19531 0.46239
3248.43750 0.46210
3246.67969 0.46169
3244.92188 0.46160
3243.16406 0.46178
3241.40625 0.46173
3239.64844 0.46133
3237.89063 0.46109
3236.13281 0.46120
3234.37500 0.46136
3232.61719 0.46138
3230.85938 0.46137
3229.10156 0.46138
3227.34375 0.46132
3225.58594 0.46123
3223.82813 0.46120
3222.07031 0.46112
3220.31250 0.46082
3218.55469 0.46034
3216.79688 0.45996
3215.03906 0.45988
3213.28125 0.45997
3211.52344 0.46003
3209.76563 0.45995
3208.00781 0.45980
3206.25000 0.45976
3204.49219 0.45992
3202.73438 0.46011
3200.97656 0.46015
3199.21875 0.46011
3197.46094 0.46013
3195.70313 0.46003
3193.94531 0.45979
3192.18750 0.45974
3190.42969 0.45986
3188.67188 0.45994
3186.91406 0.46004
3185.15625 0.46016
3183.39844 0.46013
3181.64063 0.45982
3179.88281 0.45922
3178.12500 0.45859
3176.36719 0.45826
3174.60938 0.45833
3172.85156 0.45858
3171.09375 0.45873
3169.33594 0.45878
3167.57813 0.45871
3165.82031 0.45842
3164.06250 0.45809
3162.30469 0.45798
3160.54688 0.45793
3158.78906 0.45780
3157.03125 0.45772
3155.27344 0.45770
3153.51563 0.45757
3151.75781 0.45740
3150.00000 0.45734
3148.24219 0.45731
3146.48438 0.45720
3144.72656 0.45709
3142.96875 0.45701
3141.21094 0.45679
3139.45313 0.45634
3137.69531 0.45588
3135.93750 0.45569
3134.17969 0.45575
3132.42188 0.45588
3130.66406 0.45608
3128.90625 0.45625
3127.14844 0.45617
3125.39063 0.45587
3123.63281 0.45558
3121.87500 0.45535
3120.11719 0.45519
3118.35938 0.45517
3116.60156 0.45521
3114.84375 0.45525
3113.08594 0.45526
3111.32813 0.45516
3109.57031 0.45506
3107.81250 0.45507
3106.05469 0.45505
3104.29688 0.45491
3102.53906 0.45472
3100.78125 0.45440
3099.02344 0.45399
3097.26563 0.45379
3095.50781 0.45387
3093.75000 0.45402
3091.99219 0.45412
3090.23438 0.45422
3088.47656 0.45432
3086.71875 0.45440
3084.96094 0.45439
3083.20313 0.45427
3081.44531 0.45400
3079.68750 0.45365
3077.92969 0.45343
3076.17188 0.45337
3074.41406 0.45326
3072.65625 0.45308
3070.89844 0.45292
3069.14063 0.45280
3067.38281 0.45266
3065.62500 0.45250
3063.86719 0.45244
3062.10938 0.45259
3060.35156 0.45277
3058.59375 0.45277
3056.83594 0.45267
3055.07813 0.45269
3053.32031 0.45282
3051.56250 0.45288
3049.80469 0.45271
3048.04688 0.45230
3046.28906 0.45185
3044.53125 0.45170
3042.77344 0.45183
3041.01563 0.45192
3039.25781 0.45186
3037.50000 0.45177
3035.74219 0.45171
3033.98438 0.45168
3032.22656 0.45176
3030.46875 0.45201
3028.71094 0.45231
3026.95313 0.45246
3025.19531 0.45251
3023.43750 0.45248
3021.67969 0.45216
3019.92188 0.45172
3018.16406 0.45157
3016.40625 0.45160
3014.64844 0.45150
3012.89063 0.45133
3011.13281 0.45125
3009.37500 0.45132
3007.61719 0.45152
3005.85938 0.45175
3004.10156 0.45189
3002.34375 0.45200
3000.58594 0.45224
2998.82813 0.45256
2997.07031 0.45277
2995.31250 0.45277
2993.55469 0.45270
2991.79688 0.45280
2990.03906 0.45311
2988.28125 0.45361
2986.52344 0.45422
2984.76563 0.45477
2983.00781 0.45528
2981.25000 0.45593
2979.49219 0.45670
2977.73438 0.45745
2975.97656 0.45818
2974.21875 0.45911
2972.46094 0.46016
2970.70313 0.46092
2968.94531 0.46133
2967.18750 0.46182
2965.42969 0.46242
2963.67188 0.46278
2961.91406 0.46285
2960.15625 0.46289
2958.39844 0.46307
2956.64063 0.46333
2954.88281 0.46367
2953.12500 0.46424
2951.36719 0.46516
2949.60938 0.46639
2947.85156 0.46781
2946.09375 0.46937
2944.33594 0.47099
2942.57813 0.47255
2940.82031 0.47409
2939.06250 0.47576
2937.30469 0.47746
2935.54688 0.47894
2933.78906 0.48014
2932.03125 0.48093
2930.27344 0.48107
2928.51563 0.48041
2926.75781 0.47886
2925.00000 0.47659
2923.24219 0.47412
2921.48438 0.47178
2919.72656 0.46964
2917.96875 0.46789
2916.21094 0.46664
2914.45313 0.46568
2912.69531 0.46484
2910.93750 0.46407
2909.17969 0.46328
2907.42188 0.46252
2905.66406 0.46192
2903.90625 0.46139
2902.14844 0.46077
2900.39063 0.46002
2898.63281 0.45918
2896.87500 0.45847
2895.11719 0.45808
2893.35938 0.45793
2891.60156 0.45787
2889.84375 0.45779
2888.08594 0.45765
2886.32813 0.45754
2884.57031 0.45759
2882.81250 0.45776
2881.05469 0.45797
2879.29688 0.45824
2877.53906 0.45853
2875.78125 0.45880
2874.02344 0.45914
2872.26563 0.45978
2870.50781 0.46079
2868.75000 0.46197
2866.99219 0.46317
2865.23438 0.46442
2863.47656 0.46568
2861.71875 0.46649
2859.96094 0.46621
2858.20313 0.46479
2856.44531 0.46287
2854.68750 0.46093
2852.92969 0.45910
2851.17188 0.45743
2849.41406 0.45604
2847.65625 0.45501
2845.89844 0.45435
2844.14063 0.45389
2842.38281 0.45340
2840.62500 0.45288
2838.86719 0.45245
2837.10938 0.45212
2835.35156 0.45185
2833.59375 0.45155
2831.83594 0.45121
2830.07813 0.45097
2828.32031 0.45085
2826.56250 0.45060
2824.80469 0.45014
2823.04688 0.44976
2821.28906 0.44960
2819.53125 0.44947
2817.77344 0.44933
2816.01563 0.44933
2814.25781 0.44944
2812.50000 0.44949
2810.74219 0.44943
2808.98438 0.44931
2807.22656 0.44925
2805.46875 0.44927
2803.71094 0.44926
2801.95313 0.44920
2800.19531 0.44917
2798.43750 0.44917
2796.67969 0.44908
2794.92188 0.44894
2793.16406 0.44885
2791.40625 0.44877
2789.64844 0.44854
2787.89063 0.44824
2786.13281 0.44816
2784.37500 0.44829
2782.61719 0.44840
2780.85938 0.44847
2779.10156 0.44861
2777.34375 0.44876
2775.58594 0.44882
2773.82813 0.44876
2772.07031 0.44863
2770.31250 0.44853
2768.55469 0.44858
2766.79688 0.44876
2765.03906 0.44881
2763.28125 0.44860
2761.52344 0.44832
2759.76563 0.44810
2758.00781 0.44794
2756.25000 0.44787
2754.49219 0.44784
2752.73438 0.44784
2750.97656 0.44794
2749.21875 0.44815
2747.46094 0.44830
2745.70313 0.44823
2743.94531 0.44800
2742.18750 0.44775
2740.42969 0.44761
2738.67188 0.44759
2736.91406 0.44765
2735.15625 0.44765
2733.39844 0.44747
2731.64063 0.44718
2729.88281 0.44699
2728.12500 0.44700
2726.36719 0.44721
2724.60938 0.44745
2722.85156 0.44744
2721.09375 0.44723
2719.33594 0.44708
2717.57813 0.44705
2715.82031 0.44705
2714.06250 0.44706
2712.30469 0.44703
2710.54688 0.44698
2708.78906 0.44688
2707.03125 0.44672
2705.27344 0.44655
2703.51563 0.44646
2701.75781 0.44647
2700.00000 0.44648
2698.24219 0.44635
2696.48438 0.44619
2694.72656 0.44619
2692.96875 0.44632
2691.21094 0.44634
2689.45313 0.44625
2687.69531 0.44618
2685.93750 0.44621
2684.17969 0.44621
2682.42188 0.44608
2680.66406 0.44591
2678.90625 0.44584
2677.14844 0.44590
2675.39063 0.44596
2673.63281 0.44590
2671.87500 0.44575
2670.11719 0.44569
2668.35938 0.44576
2666.60156 0.44577
2664.84375 0.44558
2663.08594 0.44536
2661.32813 0.44539
2659.57031 0.44567
2657.81250 0.44593
2656.05469 0.44600
2654.29688 0.44596
2652.53906 0.44595
2650.78125 0.44598
2649.02344 0.44600
2647.26563 0.44599
2645.50781 0.44598
2643.75000 0.44601
2641.99219 0.44601
2640.23438 0.44598
2638.47656 0.44599
2636.71875 0.44608
2634.96094 0.44614
2633.20313 0.44617
2631.44531 0.44627
2629.68750 0.44630
2627.92969 0.44618
2626.17188 0.44612
2624.41406 0.44618
2622.65625 0.44615
2620.89844 0.44598
2619.14063 0.44581
2617.38281 0.44577
2615.62500 0.44590
2613.86719 0.44613
2612.10938 0.44627
2610.35156 0.44613
2608.59375 0.44591
2606.83594 0.44586
2605.07813 0.44590
2603.32031 0.44589
2601.56250 0.44591
2599.80469 0.44590
2598.04688 0.44583
2596.28906 0.44584
2594.53125 0.44593
2592.77344 0.44596
2591.01563 0.44588
2589.25781 0.44578
2587.50000 0.44577
2585.74219 0.44589
2583.98438 0.44595
2582.22656 0.44579
2580.46875 0.44558
2578.71094 0.44559
2576.95313 0.44576
2575.19531 0.44593
2573.43750 0.44621
2571.67969 0.44670
2569.92188 0.44712
2568.16406 0.44723
2566.40625 0.44715
2564.64844 0.44711
2562.89063 0.44712
2561.13281 0.44712
2559.37500 0.44712
2557.61719 0.44703
2555.85938 0.44683
2554.10156 0.44668
2552.34375 0.44667
2550.58594 0.44678
2548.82813 0.44694
2547.07031 0.44699
2545.31250 0.44693
2543.55469 0.44692
2541.79688 0.44697
2540.03906 0.44708
2538.28125 0.44724
2536.52344 0.44730
2534.76563 0.44713
2533.00781 0.44678
2531.25000 0.44633
2529.49219 0.44594
2527.73438 0.44576
2525.97656 0.44579
2524.21875 0.44597
2522.46094 0.44621
2520.70313 0.44643
2518.94531 0.44655
2517.18750 0.44650
2515.42969 0.44627
2513.67188 0.44609
2511.91406 0.44608
2510.15625 0.44615
2508.39844 0.44623
2506.64063 0.44632
2504.88281 0.44636
2503.12500 0.44630
2501.36719 0.44621
2499.60938 0.44614
2497.85156 0.44602
2496.09375 0.44587
2494.33594 0.44568
2492.57813 0.44548
2490.82031 0.44537
2489.06250 0.44534
2487.30469 0.44536
2485.54688 0.44540
2483.78906 0.44543
2482.03125 0.44544
2480.27344 0.44542
2478.51563 0.44536
2476.75781 0.44528
2475.00000 0.44532
2473.24219 0.44547
2471.48438 0.44554
2469.72656 0.44555
2467.96875 0.44555
2466.21094 0.44549
2464.45313 0.44538
2462.69531 0.44526
2460.93750 0.44513
2459.17969 0.44503
2457.42188 0.44503
2455.66406 0.44508
2453.90625 0.44513
2452.14844 0.44527
2450.39063 0.44547
2448.63281 0.44551
2446.87500 0.44537
2445.11719 0.44530
2443.35938 0.44545
2441.60156 0.44570
2439.84375 0.44588
2438.08594 0.44602
2436.32813 0.44617
2434.57031 0.44614
2432.81250 0.44576
2431.05469 0.44524
2429.29688 0.44488
2427.53906 0.44469
2425.78125 0.44446
2424.02344 0.44417
2422.26563 0.44390
2420.50781 0.44366
2418.75000 0.44345
2416.99219 0.44332
2415.23438 0.44330
2413.47656 0.44328
2411.71875 0.44316
2409.96094 0.44295
2408.20313 0.44275
2406.44531 0.44269
2404.68750 0.44266
2402.92969 0.44251
2401.17188 0.44228
2399.41406 0.44209
2397.65625 0.44191
2395.89844 0.44169
2394.14063 0.44143
2392.38281 0.44113
2390.62500 0.44067
2388.86719 0.44005
2387.10938 0.43936
2385.35156 0.43861
2383.59375 0.43761
2381.83594 0.43621
2380.07813 0.43449
2378.32031 0.43271
2376.56250 0.43099
2374.80469 0.42954
2373.04688 0.42857
2371.28906 0.42773
2369.53125 0.42700
2367.77344 0.42697
2366.01563 0.42763
2364.25781 0.42828
2362.50000 0.42900
2360.74219 0.43066
2358.98438 0.43293
2357.22656 0.43436
2355.46875 0.43437
2353.71094 0.43328
2351.95313 0.43199
2350.19531 0.43127
2348.43750 0.43104
2346.67969 0.43118
2344.92188 0.43149
2343.16406 0.43166
2341.40625 0.43187
2339.64844 0.43213
2337.89063 0.43220
2336.13281 0.43219
2334.37500 0.43245
2332.61719 0.43306
2330.85938 0.43388
2329.10156 0.43471
2327.34375 0.43542
2325.58594 0.43598
2323.82813 0.43628
2322.07031 0.43619
2320.31250 0.43594
2318.55469 0.43604
2316.79688 0.43653
2315.03906 0.43700
2313.28125 0.43734
2311.52344 0.43770
2309.76563 0.43805
2308.00781 0.43824
2306.25000 0.43839
2304.49219 0.43861
2302.73438 0.43878
2300.97656 0.43880
2299.21875 0.43879
2297.46094 0.43891
2295.70313 0.43903
2293.94531 0.43903
2292.18750 0.43898
2290.42969 0.43890
2288.67188 0.43878
2286.91406 0.43873
2285.15625 0.43874
2283.39844 0.43869
2281.64063 0.43854
2279.88281 0.43839
2278.12500 0.43834
2276.36719 0.43842
2274.60938 0.43861
2272.85156 0.43881
2271.09375 0.43890
2269.33594 0.43884
2267.57813 0.43870
2265.82031 0.43862
2264.06250 0.43870
2262.30469 0.43885
2260.54688 0.43889
2258.78906 0.43878
2257.03125 0.43862
2255.27344 0.43847
2253.51563 0.43835
2251.75781 0.43825
2250.00000 0.43817
2248.24219 0.43814
2246.48438 0.43815
2244.72656 0.43814
2242.96875 0.43810
2241.21094 0.43801
2239.45313 0.43789
2237.69531 0.43783
2235.93750 0.43785
2234.17969 0.43787
2232.42188 0.43790
2230.66406 0.43797
2228.90625 0.43803
2227.14844 0.43792
2225.39063 0.43767
2223.63281 0.43754
2221.87500 0.43766
2220.11719 0.43791
2218.35938 0.43804
2216.60156 0.43801
2214.84375 0.43793
2213.08594 0.43790
2211.32813 0.43792
2209.57031 0.43804
2207.81250 0.43827
2206.05469 0.43845
2204.29688 0.43840
2202.53906 0.43814
2200.78125 0.43789
2199.02344 0.43782
2197.26563 0.43790
2195.50781 0.43801
2193.75000 0.43808
2191.99219 0.43817
2190.23438 0.43833
2188.47656 0.43850
2186.71875 0.43856
2184.96094 0.43850
2183.20313 0.43834
2181.44531 0.43808
2179.68750 0.43771
2177.92969 0.43740
2176.17188 0.43738
2174.41406 0.43755
2172.65625 0.43761
2170.89844 0.43750
2169.14063 0.43735
2167.38281 0.43727
2165.62500 0.43719
2163.86719 0.43708
2162.10938 0.43701
2160.35156 0.43698
2158.59375 0.43689
2156.83594 0.43676
2155.07813 0.43668
2153.32031 0.43668
2151.56250 0.43666
2149.80469 0.43661
2148.04688 0.43663
2146.28906 0.43678
2144.53125 0.43698
2142.77344 0.43716
2141.01563 0.43728
2139.25781 0.43730
2137.50000 0.43723
2135.74219 0.43714
2133.98438 0.43720
2132.22656 0.43739
2130.46875 0.43741
2128.71094 0.43708
2126.95313 0.43668
2125.19531 0.43657
2123.43750 0.43681
2121.67969 0.43699
2119.92188 0.43692
2118.16406 0.43675
2116.40625 0.43670
2114.64844 0.43685
2112.89063 0.43715
2111.13281 0.43741
2109.37500 0.43748
2107.61719 0.43740
2105.85938 0.43730
2104.10156 0.43727
2102.34375 0.43734
2100.58594 0.43749
2098.82813 0.43762
2097.07031 0.43770
2095.31250 0.43773
2093.55469 0.43761
2091.79688 0.43739
2090.03906 0.43722
2088.28125 0.43719
2086.52344 0.43715
2084.76563 0.43709
2083.00781 0.43708
2081.25000 0.43713
2079.49219 0.43721
2077.73438 0.43726
2075.97656 0.43726
2074.21875 0.43722
2072.46094 0.43713
2070.70313 0.43695
2068.94531 0.43667
2067.18750 0.43639
2065.42969 0.43626
2063.67188 0.43625
2061.91406 0.43612
2060.15625 0.43583
2058.39844 0.43558
2056.64063 0.43544
2054.88281 0.43536
2053.12500 0.43535
2051.36719 0.43545
2049.60938 0.43562
2047.85156 0.43581
2046.09375 0.43593
2044.33594 0.43587
2042.57813 0.43564
2040.82031 0.43546
2039.06250 0.43554
2037.30469 0.43583
2035.54688 0.43604
2033.78906 0.43606
2032.03125 0.43599
2030.27344 0.43592
2028.51563 0.43586
2026.75781 0.43580
2025.00000 0.43579
2023.24219 0.43578
2021.48438 0.43572
2019.72656 0.43568
2017.96875 0.43573
2016.21094 0.43579
2014.45313 0.43585
2012.69531 0.43599
2010.93750 0.43614
2009.17969 0.43619
2007.42188 0.43618
2005.66406 0.43628
2003.90625 0.43639
2002.14844 0.43642
2000.39063 0.43652
1998.63281 0.43679
1996.87500 0.43699
1995.11719 0.43691
1993.35938 0.43664
1991.60156 0.43642
1989.84375 0.43632
1988.08594 0.43618
1986.32813 0.43601
1984.57031 0.43589
1982.81250 0.43590
1981.05469 0.43610
1979.29688 0.43633
1977.53906 0.43642
1975.78125 0.43651
1974.02344 0.43668
1972.26563 0.43675
1970.50781 0.43663
1968.75000 0.43650
1966.99219 0.43641
1965.23438 0.43634
1963.47656 0.43639
1961.71875 0.43672
1959.96094 0.43714
1958.20313 0.43734
1956.44531 0.43740
1954.68750 0.43754
1952.92969 0.43774
1951.17188 0.43802
1949.41406 0.43827
1947.65625 0.43822
1945.89844 0.43795
1944.14063 0.43776
1942.38281 0.43759
1940.62500 0.43735
1938.86719 0.43711
1937.10938 0.43692
1935.35156 0.43683
1933.59375 0.43689
1931.83594 0.43712
1930.07813 0.43738
1928.32031 0.43739
1926.56250 0.43721
1924.80469 0.43715
1923.04688 0.43719
1921.28906 0.43723
1919.53125 0.43736
1917.77344 0.43764
1916.01563 0.43790
1914.25781 0.43796
1912.50000 0.43782
1910.74219 0.43767
1908.98438 0.43761
1907.22656 0.43766
1905.46875 0.43776
1903.71094 0.43786
1901.95313 0.43792
1900.19531 0.43796
1898.43750 0.43812
1896.67969 0.43842
1894.92188 0.43854
1893.16406 0.43847
1891.40625 0.43848
1889.64844 0.43861
1887.89063 0.43872
1886.13281 0.43880
1884.37500 0.43883
1882.61719 0.43876
1880.85938 0.43854
1879.10156 0.43849
1877.34375 0.43896
1875.58594 0.43974
1873.82813 0.43989
1872.07031 0.43925
1870.31250 0.43870
1868.55469 0.43860
1866.79688 0.43882
1865.03906 0.43911
1863.28125 0.43930
1861.52344 0.43934
1859.76563 0.43933
1858.00781 0.43937
1856.25000 0.43952
1854.49219 0.43982
1852.73438 0.44030
1850.97656 0.44088
1849.21875 0.44100
1847.46094 0.44046
1845.70313 0.43996
1843.94531 0.43986
1842.18750 0.43996
1840.42969 0.44010
1838.67188 0.44046
1836.91406 0.44096
1835.15625 0.44101
1833.39844 0.44060
1831.64063 0.44008
1829.88281 0.43943
1828.12500 0.43880
1826.36719 0.43845
1824.60938 0.43833
1822.85156 0.43833
1821.09375 0.43856
1819.33594 0.43901
1817.57813 0.43946
1815.82031 0.43962
1814.06250 0.43940
1812.30469 0.43897
1810.54688 0.43868
1808.78906 0.43872
1807.03125 0.43891
1805.27344 0.43900
1803.51563 0.43913
1801.75781 0.43943
1800.00000 0.43985
1798.24219 0.44005
1796.48438 0.43964
1794.72656 0.43903
1792.96875 0.43875
1791.21094 0.43880
1789.45313 0.43893
1787.69531 0.43903
1785.93750 0.43905
1784.17969 0.43899
1782.42188 0.43914
1780.66406 0.43967
1778.90625 0.44025
1777.14844 0.44019
1775.39063 0.43963
1773.63281 0.43919
1771.87500 0.43900
1770.11719 0.43913
1768.35938 0.43950
1766.60156 0.43980
1764.84375 0.44004
1763.08594 0.44047
1761.32813 0.44105
1759.57031 0.44169
1757.81250 0.44261
1756.05469 0.44404
1754.29688 0.44548
1752.53906 0.44624
1750.78125 0.44651
1749.02344 0.44669
1747.26563 0.44694
1745.50781 0.44724
1743.75000 0.44742
1741.99219 0.44755
1740.23438 0.44786
1738.47656 0.44813
1736.71875 0.44782
1734.96094 0.44709
1733.20313 0.44645
1731.44531 0.44625
1729.68750 0.44647
1727.92969 0.44687
1726.17188 0.44740
1724.41406 0.44830
1722.65625 0.44952
1720.89844 0.44993
1719.14063 0.44956
1717.38281 0.44922
1715.62500 0.44910
1713.86719 0.44924
1712.10938 0.44958
1710.35156 0.44971
1708.59375 0.44944
1706.83594 0.44909
1705.07813 0.44905
1703.32031 0.44909
1701.56250 0.44854
1699.80469 0.44781
1698.04688 0.44764
1696.28906 0.44793
1694.53125 0.44834
1692.77344 0.44858
1691.01563 0.44876
1689.25781 0.44896
1687.50000 0.44875
1685.74219 0.44822
1683.98438 0.44779
1682.22656 0.44764
1680.46875 0.44772
1678.71094 0.44798
1676.95313 0.44846
1675.19531 0.44874
1673.43750 0.44837
1671.67969 0.44811
1669.92188 0.44843
1668.16406 0.44891
1666.40625 0.44882
1664.64844 0.44841
1662.89063 0.44836
1661.13281 0.44880
1659.37500 0.44937
1657.61719 0.44923
1655.85938 0.44899
1654.10156 0.44904
1652.34375 0.44859
1650.58594 0.44723
1648.82813 0.44613
1647.07031 0.44564
1645.31250 0.44573
1643.55469 0.44629
1641.79688 0.44669
1640.03906 0.44591
1638.28125 0.44479
1636.52344 0.44429
1634.76563 0.44419
1633.00781 0.44410
1631.25000 0.44388
1629.49219 0.44370
1627.73438 0.44338
1625.97656 0.44292
1624.21875 0.44268
1622.46094 0.44281
1620.70313 0.44297
1618.94531 0.44293
1617.18750 0.44303
1615.42969 0.44354
1613.67188 0.44421
1611.91406 0.44459
1610.15625 0.44481
1608.39844 0.44521
1606.64063 0.44571
1604.88281 0.44603
1603.12500 0.44626
1601.36719 0.44660
1599.60938 0.44693
1597.85156 0.44695
1596.09375 0.44678
1594.33594 0.44674
1592.57813 0.44688
1590.82031 0.44709
1589.06250 0.44732
1587.30469 0.44748
1585.54688 0.44748
1583.78906 0.44754
1582.03125 0.44778
1580.27344 0.44760
1578.51563 0.44700
1576.75781 0.44677
1575.00000 0.44698
1573.24219 0.44709
1571.48438 0.44694
1569.72656 0.44678
1567.96875 0.44670
1566.21094 0.44693
1564.45313 0.44774
1562.69531 0.44802
1560.93750 0.44720
1559.17969 0.44632
1557.42188 0.44568
1555.66406 0.44534
1553.90625 0.44503
1552.14844 0.44480
1550.39063 0.44510
1548.63281 0.44599
1546.87500 0.44683
1545.11719 0.44603
1543.35938 0.44393
1541.60156 0.44286
1539.84375 0.44247
1538.08594 0.44186
1536.32813 0.44102
1534.57031 0.44079
1532.81250 0.44127
1531.05469 0.44196
1529.29688 0.44238
1527.53906 0.44253
1525.78125 0.44210
1524.02344 0.44132
1522.26563 0.44070
1520.50781 0.44008
1518.75000 0.43971
1516.99219 0.43991
1515.23438 0.44076
1513.47656 0.44218
1511.71875 0.44242
1509.96094 0.44027
1508.20313 0.43900
1506.44531 0.43873
1504.68750 0.43886
1502.92969 0.43911
1501.17188 0.43914
1499.41406 0.43890
1497.65625 0.43889
1495.89844 0.43935
1494.14063 0.43966
1492.38281 0.43886
1490.62500 0.43775
1488.86719 0.43722
1487.10938 0.43732
1485.35156 0.43770
1483.59375 0.43834
1481.83594 0.43973
1480.07813 0.44208
1478.32031 0.44458
1476.56250 0.44577
1474.80469 0.44595
1473.04688 0.44646
1471.28906 0.44742
1469.53125 0.44802
1467.77344 0.44786
1466.01563 0.44792
1464.25781 0.44880
1462.50000 0.45000
1460.74219 0.44966
1458.98438 0.44843
1457.22656 0.44766
1455.46875 0.44738
1453.71094 0.44746
1451.95313 0.44760
1450.19531 0.44764
1448.43750 0.44766
1446.67969 0.44765
1444.92188 0.44770
1443.16406 0.44807
1441.40625 0.44882
1439.64844 0.44936
1437.89063 0.44956
1436.13281 0.44974
1434.37500 0.44986
1432.61719 0.44989
1430.85938 0.45011
1429.10156 0.45061
1427.34375 0.45105
1425.58594 0.45125
1423.82813 0.45120
1422.07031 0.45066
1420.31250 0.44982
1418.55469 0.44910
1416.79688 0.44857
1415.03906 0.44807
1413.28125 0.44754
1411.52344 0.44717
1409.76563 0.44695
1408.00781 0.44667
1406.25000 0.44642
1404.49219 0.44632
1402.73438 0.44611
1400.97656 0.44544
1399.21875 0.44434
1397.46094 0.44324
1395.70313 0.44258
1393.94531 0.44228
1392.18750 0.44204
1390.42969 0.44159
1388.67188 0.44100
1386.91406 0.44048
1385.15625 0.44015
1383.39844 0.44007
1381.64063 0.44015
1379.88281 0.44006
1378.12500 0.43938
1376.36719 0.43837
1374.60938 0.43752
1372.85156 0.43685
1371.09375 0.43637
1369.33594 0.43624
1367.57813 0.43645
1365.82031 0.43664
1364.06250 0.43660
1362.30469 0.43645
1360.54688 0.43619
1358.78906 0.43582
1357.03125 0.43546
1355.27344 0.43526
1353.51563 0.43521
1351.75781 0.43521
1350.00000 0.43520
1348.24219 0.43523
1346.48438 0.43528
1344.72656 0.43522
1342.96875 0.43490
1341.21094 0.43443
1339.45313 0.43399
1337.69531 0.43365
1335.93750 0.43337
1334.17969 0.43301
1332.42188 0.43256
1330.66406 0.43204
1328.90625 0.43144
1327.14844 0.43087
1325.39063 0.43051
1323.63281 0.43046
1321.87500 0.43054
1320.11719 0.43060
1318.35938 0.43074
1316.60156 0.43102
1314.84375 0.43127
1313.08594 0.43135
1311.32813 0.43139
1309.57031 0.43148
1307.81250 0.43145
1306.05469 0.43126
1304.29688 0.43107
1302.53906 0.43102
1300.78125 0.43104
1299.02344 0.43108
1297.26563 0.43113
1295.50781 0.43121
1293.75000 0.43127
1291.99219 0.43123
1290.23438 0.43107
1288.47656 0.43081
1286.71875 0.43047
1284.96094 0.43015
1283.20313 0.43002
1281.44531 0.43016
1279.68750 0.43054
1277.92969 0.43096
1276.17188 0.43125
1274.41406 0.43152
1272.65625 0.43192
1270.89844 0.43244
1269.14063 0.43292
1267.38281 0.43323
1265.62500 0.43326
1263.86719 0.43297
1262.10938 0.43237
1260.35156 0.43160
1258.59375 0.43075
1256.83594 0.42991
1255.07813 0.42916
1253.32031 0.42858
1251.56250 0.42818
1249.80469 0.42783
1248.04688 0.42748
1246.28906 0.42717
1244.53125 0.42694
1242.77344 0.42680
1241.01563 0.42683
1239.25781 0.42708
1237.50000 0.42738
1235.74219 0.42740
1233.98438 0.42705
1232.22656 0.42648
1230.46875 0.42587
1228.71094 0.42529
1226.95313 0.42481
1225.19531 0.42447
1223.43750 0.42420
1221.67969 0.42387
1219.92188 0.42360
1218.16406 0.42353
1216.40625 0.42363
1214.64844 0.42371
1212.89063 0.42373
1211.13281 0.42385
1209.37500 0.42416
1207.61719 0.42444
1205.85938 0.42443
1204.10156 0.42420
1202.34375 0.42404
1200.58594 0.42396
1198.82813 0.42381
1197.07031 0.42354
1195.31250 0.42327
1193.55469 0.42309
1191.79688 0.42299
1190.03906 0.42290
1188.28125 0.42278
1186.52344 0.42275
1184.76563 0.42291
1183.00781 0.42321
1181.25000 0.42346
1179.49219 0.42357
1177.73438 0.42360
1175.97656 0.42365
1174.21875 0.42378
1172.46094 0.42406
1170.70313 0.42445
1168.94531 0.42488
1167.18750 0.42527
1165.42969 0.42552
1163.67188 0.42563
1161.91406 0.42572
1160.15625 0.42588
1158.39844 0.42612
1156.64063 0.42638
1154.88281 0.42662
1153.12500 0.42678
1151.36719 0.42684
1149.60938 0.42690
1147.85156 0.42702
1146.09375 0.42712
1144.33594 0.42718
1142.57813 0.42728
1140.82031 0.42754
1139.06250 0.42796
1137.30469 0.42843
1135.54688 0.42884
1133.78906 0.42927
1132.03125 0.42982
1130.27344 0.43052
1128.51563 0.43121
1126.75781 0.43179
1125.00000 0.43238
1123.24219 0.43306
1121.48438 0.43376
1119.72656 0.43438
1117.96875 0.43491
1116.21094 0.43533
1114.45313 0.43563
1112.69531 0.43589
1110.93750 0.43617
1109.17969 0.43655
1107.42188 0.43698
1105.66406 0.43731
1103.90625 0.43747
1102.14844 0.43754
1100.39063 0.43765
1098.63281 0.43781
1096.87500 0.43797
1095.11719 0.43798
1093.35938 0.43780
1091.60156 0.43758
1089.84375 0.43740
1088.08594 0.43717
1086.32813 0.43692
1084.57031 0.43673
1082.81250 0.43663
1081.05469 0.43657
1079.29688 0.43657
1077.53906 0.43659
1075.78125 0.43662
1074.02344 0.43674
1072.26563 0.43699
1070.50781 0.43722
1068.75000 0.43723
1066.99219 0.43707
1065.23438 0.43697
1063.47656 0.43703
1061.71875 0.43718
1059.96094 0.43722
1058.20313 0.43707
1056.44531 0.43686
1054.68750 0.43671
1052.92969 0.43654
1051.17188 0.43633
1049.41406 0.43614
1047.65625 0.43598
1045.89844 0.43589
1044.14063 0.43594
1042.38281 0.43601
1040.62500 0.43589
1038.86719 0.43565
1037.10938 0.43541
1035.35156 0.43520
1033.59375 0.43504
1031.83594 0.43497
1030.07813 0.43491
1028.32031 0.43476
1026.56250 0.43444
1024.80469 0.43396
1023.04688 0.43350
1021.28906 0.43309
1019.53125 0.43268
1017.77344 0.43238
1016.01563 0.43228
1014.25781 0.43229
1012.50000 0.43242
1010.74219 0.43266
1008.98438 0.43275
1007.22656 0.43259
1005.46875 0.43243
1003.71094 0.43255
1001.95313 0.43304
1000.19531 0.43376
998.43750 0.43451
996.67969 0.43510
994.92188 0.43539
993.16406 0.43549
991.40625 0.43566
989.64844 0.43595
987.89063 0.43614
986.13281 0.43623
984.37500 0.43637
982.61719 0.43660
980.85938 0.43691
979.10156 0.43730
977.34375 0.43759
975.58594 0.43767
973.82813 0.43778
972.07031 0.43812
970.31250 0.43858
968.55469 0.43906
966.79688 0.43951
965.03906 0.43988
963.28125 0.44019
961.52344 0.44052
959.76563 0.44079
958.00781 0.44082
956.25000 0.44063
954.49219 0.44041
952.73438 0.44028
950.97656 0.44039
949.21875 0.44078
947.46094 0.44125
945.70313 0.44153
943.94531 0.44158
942.18750 0.44164
940.42969 0.44178
938.67188 0.44190
936.91406 0.44193
935.15625 0.44190
933.39844 0.44181
931.64063 0.44145
929.88281 0.44065
928.12500 0.43960
926.36719 0.43874
924.60938 0.43823
922.85156 0.43784
921.09375 0.43738
919.33594 0.43691
917.57813 0.43651
915.82031 0.43610
914.06250 0.43559
912.30469 0.43504
910.54688 0.43442
908.78906 0.43377
907.03125 0.43312
905.27344 0.43252
903.51563 0.43210
901.75781 0.43180
900.00000 0.43142
898.24219 0.43090
896.48438 0.43029
894.72656 0.42967
892.96875 0.42927
891.21094 0.42909
889.45313 0.42879
887.69531 0.42816
885.93750 0.42745
884.17969 0.42699
882.42188 0.42682
880.66406 0.42684
878.90625 0.42693
877.14844 0.42687
875.39063 0.42650
873.63281 0.42602
871.87500 0.42573
870.11719 0.42583
868.35938 0.42616
866.60156 0.42632
864.84375 0.42624
863.08594 0.42629
861.32813 0.42675
859.57031 0.42782
857.81250 0.42950
856.05469 0.43168
854.29688 0.43432
852.53906 0.43716
850.78125 0.43949
849.02344 0.44095
847.26563 0.44200
845.50781 0.44291
843.75000 0.44333
841.99219 0.44320
840.23438 0.44301
838.47656 0.44306
836.71875 0.44329
834.96094 0.44350
833.20313 0.44350
831.44531 0.44335
829.68750 0.44325
827.92969 0.44326
826.17188 0.44334
824.41406 0.44360
822.65625 0.44407
820.89844 0.44443
819.14063 0.44441
817.38281 0.44428
815.62500 0.44458
813.86719 0.44544
812.10938 0.44663
810.35156 0.44782
808.59375 0.44872
806.83594 0.44961
805.07813 0.45112
803.32031 0.45330
801.56250 0.45550
799.80469 0.45679
798.04688 0.45664
796.28906 0.45563
794.53125 0.45464
792.77344 0.45373
791.01563 0.45280
789.25781 0.45224
787.50000 0.45245
785.74219 0.45343
783.98438 0.45469
782.22656 0.45562
780.46875 0.45620
778.71094 0.45660
776.95313 0.45697
775.19531 0.45780
773.43750 0.45929
771.67969 0.46088
769.92188 0.46209
768.16406 0.46282
766.40625 0.46327
764.64844 0.46423
762.89063 0.46618
761.13281 0.46842
759.37500 0.47019
757.61719 0.47143
755.85938 0.47255
754.10156 0.47385
752.34375 0.47515
750.58594 0.47593
748.82813 0.47581
747.07031 0.47519
745.31250 0.47490
743.55469 0.47511
741.79688 0.47530
740.03906 0.47504
738.28125 0.47412
736.52344 0.47278
734.76563 0.47169
733.00781 0.47131
731.25000 0.47174
729.49219 0.47285
727.73438 0.47422
725.97656 0.47573
724.21875 0.47747
722.46094 0.47898
720.70313 0.47985
718.94531 0.48052
717.18750 0.48133
715.42969 0.48252
713.67188 0.48440
711.91406 0.48642
710.15625 0.48766
708.39844 0.48854
706.64063 0.48978
704.88281 0.49100
703.12500 0.49207
701.36719 0.49357
699.60938 0.49518
697.85156 0.49617
696.09375 0.49643
694.33594 0.49598
692.57813 0.49501
690.82031 0.49453
689.06250 0.49561
687.30469 0.49739
685.54688 0.49740
683.78906 0.49567
682.03125 0.49509
680.27344 0.49646
678.51563 0.49771
676.75781 0.49714
675.00000 0.49517
673.24219 0.49349
671.48438 0.49308
669.72656 0.49381
667.96875 0.49494
666.21094 0.49590
664.45313 0.49596
662.69531 0.49549
660.93750 0.49571
659.17969 0.49504
657.42188 0.49130
655.66406 0.48626
653.90625 0.48288
652.14844 0.48263
650.39063 0.48568
648.63281 0.48965
646.87500 0.49091
645.11719 0.48751
643.35938 0.47995
641.60156 0.47035
639.84375 0.46168
638.08594 0.45649
636.32813 0.45379
634.57031 0.44970
632.81250 0.44319
631.05469 0.43733
629.29688 0.43536
627.53906 0.43796
625.78125 0.44424
624.02344 0.45305
622.26563 0.45736
620.50781 0.44855
618.75000 0.43290
616.99219 0.42301
615.23438 0.42011
613.47656 0.42053
611.71875 0.42053
609.96094 0.41608
608.20313 0.40944
606.44531 0.40732
604.68750 0.41160
602.92969 0.41680
601.17188 0.41406
599.41406 0.40094
