3996.50324 1.24352
3994.45480 1.24462
3992.40636 1.24551
3990.35792 1.24636
3988.30948 1.24714
3986.26104 1.24749
3984.21261 1.24760
3982.16417 1.24769
3980.11573 1.24771
3978.06729 1.24786
3976.01885 1.24844
3973.97041 1.24898
3971.92198 1.24902
3969.87354 1.24901
3967.82510 1.24937
3965.77666 1.24987
3963.72822 1.24990
3961.67978 1.24954
3959.63135 1.24876
3957.58291 1.24747
3955.53447 1.24600
3953.48603 1.24430
3951.43759 1.24293
3949.38915 1.24283
3947.34072 1.24270
3945.29228 1.24138
3943.24384 1.24064
3941.19540 1.24089
3939.14696 1.24056
3937.09852 1.23995
3935.05009 1.23951
3933.00165 1.23939
3930.95321 1.23964
3928.90477 1.23901
3926.85633 1.23777
3924.80789 1.23776
3922.75946 1.23797
3920.71102 1.23673
3918.66258 1.23573
3916.61414 1.23576
3914.56570 1.23502
3912.51726 1.23363
3910.46883 1.23267
3908.42039 1.23184
3906.37195 1.23126
3904.32351 1.23226
3902.27507 1.23358
3900.22663 1.23349
3898.17820 1.23276
3896.12976 1.23120
3894.08132 1.22956
3892.03288 1.22954
3889.98444 1.22951
3887.93600 1.22731
3885.88756 1.22574
3883.83913 1.22555
3881.79069 1.22479
3879.74225 1.22485
3877.69381 1.22321
3875.64537 1.21990
3873.59693 1.21850
3871.54850 1.21942
3869.50006 1.22169
3867.45162 1.22194
3865.40318 1.22065
3863.35474 1.22104
3861.30630 1.22057
3859.25787 1.21884
3857.20943 1.21691
3855.16099 1.21480
3853.11255 1.21917
3851.06411 1.22449
3849.01567 1.22254
3846.96724 1.21926
3844.91880 1.21758
3842.87036 1.21784
3840.82192 1.21856
3838.77348 1.22041
3836.72504 1.22293
3834.67661 1.22254
3832.62817 1.22102
3830.57973 1.22059
3828.53129 1.22041
3826.48285 1.21975
3824.43441 1.21794
3822.38598 1.21680
3820.33754 1.22037
3818.28910 1.22179
3816.24066 1.22134
3814.19222 1.22188
3812.14378 1.22030
3810.09535 1.21769
3808.04691 1.21694
3805.99847 1.21891
3803.95003 1.21901
3801.90159 1.21985
3799.85315 1.22277
3797.80472 1.22222
3795.75628 1.22138
3793.70784 1.22067
3791.65940 1.21948
3789.61096 1.21910
3787.56252 1.21900
3785.51409 1.21899
3783.46565 1.21877
3781.41721 1.21831
3779.36877 1.22013
3777.32033 1.22212
3775.27189 1.22093
3773.22346 1.21883
3771.17502 1.21882
3769.12658 1.22157
3767.07814 1.22317
3765.02970 1.22269
3762.98126 1.22109
3760.93283 1.22020
3758.88439 1.22237
3756.83595 1.22345
3754.78751 1.22080
3752.73907 1.21815
3750.69063 1.22214
3748.64219 1.22762
3746.59376 1.22680
3744.54532 1.22784
3742.49688 1.23124
3740.44844 1.23059
3738.40000 1.22883
3736.35156 1.23031
3734.30313 1.23512
3732.25469 1.23680
3730.20625 1.23492
3728.15781 1.23270
3726.10937 1.23305
3724.06093 1.23569
3722.01250 1.23735
3719.96406 1.23753
3717.91562 1.23673
3715.86718 1.23485
3713.81874 1.23279
3711.77030 1.23516
3709.72187 1.24129
3707.67343 1.24302
3705.62499 1.24234
3703.57655 1.24188
3701.52811 1.24350
3699.47967 1.24560
3697.43124 1.24643
3695.38280 1.24669
3693.33436 1.24640
3691.28592 1.24717
3689.23748 1.25166
3687.18904 1.25459
3685.14061 1.25357
3683.09217 1.25204
3681.04373 1.25175
3678.99529 1.25236
3676.94685 1.25419
3674.89841 1.25985
3672.84998 1.26246
3670.80154 1.26323
3668.75310 1.26653
3666.70466 1.26734
3664.65622 1.26678
3662.60778 1.26733
3660.55935 1.26861
3658.51091 1.27025
3656.46247 1.27405
3654.41403 1.27804
3652.36559 1.27897
3650.31715 1.28161
3648.26872 1.29069
3646.22028 1.29458
3644.17184 1.29451
3642.12340 1.29517
3640.07496 1.29702
3638.02652 1.29948
3635.97809 1.30247
3633.92965 1.30553
3631.88121 1.30726
3629.83277 1.30970
3627.78433 1.31653
3625.73589 1.31992
3623.68746 1.32014
3621.63902 1.32126
3619.59058 1.32531
3617.54214 1.32931
3615.49370 1.33054
3613.44526 1.33264
3611.39682 1.33604
3609.34839 1.33900
3607.29995 1.34181
3605.25151 1.34357
3603.20307 1.34491
3601.15463 1.34720
3599.10619 1.34976
3597.05776 1.35193
3595.00932 1.35416
3592.96088 1.35586
3590.91244 1.35640
3588.86400 1.35690
3586.81556 1.35739
3584.76713 1.35635
3582.71869 1.35568
3580.67025 1.35712
3578.62181 1.35967
3576.57337 1.36134
3574.52493 1.36247
3572.47650 1.36382
3570.42806 1.36519
3568.37962 1.36727
3566.33118 1.37008
3564.28274 1.37110
3562.23430 1.37087
3560.18587 1.37037
3558.13743 1.36994
3556.08899 1.36998
3554.04055 1.37078
3551.99211 1.37203
3549.94367 1.37276
3547.89524 1.37335
3545.84680 1.37459
3543.79836 1.37545
3541.74992 1.37563
3539.70148 1.37625
3537.65304 1.37726
3535.60461 1.37798
3533.55617 1.37851
3531.50773 1.37894
3529.45929 1.37939
3527.41085 1.38034
3525.36241 1.38129
3523.31398 1.38145
3521.26554 1.38090
3519.21710 1.38008
3517.16866 1.37987
3515.12022 1.38047
3513.07178 1.38153
3511.02335 1.38266
3508.97491 1.38322
3506.92647 1.38346
3504.87803 1.38453
3502.82959 1.38564
3500.78115 1.38505
3498.73272 1.38384
3496.68428 1.38309
3494.63584 1.38308
3492.58740 1.38390
3490.53896 1.38499
3488.49052 1.38553
3486.44209 1.38507
3484.39365 1.38449
3482.34521 1.38513
3480.29677 1.38622
3478.24833 1.38665
3476.19989 1.38715
3474.15146 1.38747
3472.10302 1.38722
3470.05458 1.38700
3468.00614 1.38663
3465.95770 1.38610
3463.90926 1.38624
3461.86082 1.38706
3459.81239 1.38772
3457.76395 1.38812
3455.71551 1.38857
3453.66707 1.38888
3451.61863 1.38882
3449.57019 1.38865
3447.52176 1.38867
3445.47332 1.38867
3443.42488 1.38841
3441.37644 1.38840
3439.32800 1.38894
3437.27956 1.38958
3435.23113 1.38986
3433.18269 1.39001
3431.13425 1.39035
3429.08581 1.39048
3427.03737 1.39034
3424.98893 1.39016
3422.94050 1.38984
3420.89206 1.38923
3418.84362 1.38844
3416.79518 1.38825
3414.74674 1.38914
3412.69830 1.39005
3410.64987 1.39028
3408.60143 1.39064
3406.55299 1.39114
3404.50455 1.39125
3402.45611 1.39152
3400.40767 1.39213
3398.35924 1.39208
3396.31080 1.39106
3394.26236 1.39026
3392.21392 1.39053
3390.16548 1.39117
3388.11704 1.39146
3386.06861 1.39138
3384.02017 1.39127
3381.97173 1.39158
3379.92329 1.39216
3377.87485 1.39236
3375.82641 1.39209
3373.77798 1.39229
3371.72954 1.39323
3369.68110 1.39374
3367.63266 1.39318
3365.58422 1.39237
3363.53578 1.39218
3361.48735 1.39237
3359.43891 1.39248
3357.39047 1.39264
3355.34203 1.39278
3353.29359 1.39245
3351.24515 1.39178
3349.19672 1.39138
3347.14828 1.39161
3345.09984 1.39216
3343.05140 1.39253
3341.00296 1.39275
3338.95452 1.39316
3336.90609 1.39350
3334.85765 1.39336
3332.80921 1.39311
3330.76077 1.39269
3328.71233 1.39219
3326.66389 1.39214
3324.61545 1.39230
3322.56702 1.39281
3320.51858 1.39365
3318.47014 1.39374
3316.42170 1.39358
3314.37326 1.39411
3312.32482 1.39467
3310.27639 1.39471
3308.22795 1.39451
3306.17951 1.39458
3304.13107 1.39465
3302.08263 1.39410
3300.03419 1.39344
3297.98576 1.39365
3295.93732 1.39446
3293.88888 1.39485
3291.84044 1.39455
3289.79200 1.39392
3287.74356 1.39352
3285.69513 1.39371
3283.64669 1.39430
3281.59825 1.39499
3279.54981 1.39567
3277.50137 1.39620
3275.45293 1.39623
3273.40450 1.39605
3271.35606 1.39631
3269.30762 1.39681
3267.25918 1.39672
3265.21074 1.39597
3263.16230 1.39538
3261.11387 1.39527
3259.06543 1.39526
3257.01699 1.39482
3254.96855 1.39443
3252.92011 1.39491
3250.87167 1.39571
3248.82324 1.39592
3246.77480 1.39550
3244.72636 1.39492
3242.67792 1.39495
3240.62948 1.39533
3238.58104 1.39519
3236.53261 1.39510
3234.48417 1.39570
3232.43573 1.39617
3230.38729 1.39592
3228.33885 1.39540
3226.29041 1.39511
3224.24198 1.39523
3222.19354 1.39558
3220.14510 1.39576
3218.09666 1.39574
3216.04822 1.39546
3213.99978 1.39507
3211.95135 1.39512
3209.90291 1.39575
3207.85447 1.39633
3205.80603 1.39661
3203.75759 1.39684
3201.70915 1.39700
3199.66072 1.39713
3197.61228 1.39733
3195.56384 1.39720
3193.51540 1.39677
3191.46696 1.39642
3189.41852 1.39605
3187.37008 1.39573
3185.32165 1.39563
3183.27321 1.39521
3181.22477 1.39479
3179.17633 1.39521
3177.12789 1.39564
3175.07945 1.39535
3173.03102 1.39487
3170.98258 1.39499
3168.93414 1.39535
3166.88570 1.39511
3164.83726 1.39456
3162.78882 1.39424
3160.74039 1.39419
3158.69195 1.39363
3156.64351 1.39271
3154.59507 1.39260
3152.54663 1.39296
3150.49819 1.39298
3148.44976 1.39289
3146.40132 1.39291
3144.35288 1.39274
3142.30444 1.39212
3140.25600 1.39128
3138.20756 1.39126
3136.15913 1.39216
3134.11069 1.39255
3132.06225 1.39208
3130.01381 1.39173
3127.96537 1.39175
3125.91693 1.39172
3123.86850 1.39155
3121.82006 1.39127
3119.77162 1.39057
3117.72318 1.38958
3115.67474 1.38940
3113.62630 1.39036
3111.57787 1.39105
3109.52943 1.39117
3107.48099 1.39184
3105.43255 1.39234
3103.38411 1.39149
3101.33567 1.39019
3099.28724 1.38975
3097.23880 1.39023
3095.19036 1.39066
3093.14192 1.38981
3091.09348 1.38803
3089.04504 1.38704
3086.99661 1.38693
3084.94817 1.38666
3082.89973 1.38610
3080.85129 1.38573
3078.80285 1.38622
3076.75441 1.38757
3074.70598 1.38858
3072.65754 1.38837
3070.60910 1.38734
3068.56066 1.38661
3066.51222 1.38698
3064.46378 1.38790
3062.41535 1.38817
3060.36691 1.38756
3058.31847 1.38694
3056.27003 1.38672
3054.22159 1.38655
3052.17315 1.38636
3050.12471 1.38651
3048.07628 1.38654
3046.02784 1.38581
3043.97940 1.38487
3041.93096 1.38475
3039.88252 1.38584
3037.83408 1.38686
3035.78565 1.38659
3033.73721 1.38577
3031.68877 1.38548
3029.64033 1.38561
3027.59189 1.38527
3025.54345 1.38463
3023.49502 1.38462
3021.44658 1.38460
3019.39814 1.38409
3017.34970 1.38370
3015.30126 1.38341
3013.25282 1.38340
3011.20439 1.38392
3009.15595 1.38493
3007.10751 1.38597
3005.05907 1.38651
3003.01063 1.38672
3000.96219 1.38663
2998.91376 1.38628
2996.86532 1.38603
2994.81688 1.38572
2992.76844 1.38528
2990.72000 1.38537
2988.67156 1.38609
2986.62313 1.38622
2984.57469 1.38514
2982.52625 1.38376
2980.47781 1.38308
2978.42937 1.38313
2976.38093 1.38303
2974.33250 1.38252
2972.28406 1.38241
2970.23562 1.38283
2968.18718 1.38343
2966.13874 1.38365
2964.09030 1.38316
2962.04187 1.38259
2959.99343 1.38262
2957.94499 1.38295
2955.89655 1.38268
2953.84811 1.38175
2951.79967 1.38135
2949.75124 1.38188
2947.70280 1.38217
2945.65436 1.38162
2943.60592 1.38112
2941.55748 1.38171
2939.50904 1.38320
2937.46061 1.38431
2935.41217 1.38449
2933.36373 1.38400
2931.31529 1.38285
2929.26685 1.38201
2927.21841 1.38284
2925.16998 1.38443
2923.12154 1.38518
2921.07310 1.38470
2919.02466 1.38351
2916.97622 1.38208
2914.92778 1.37997
2912.87934 1.37734
2910.83091 1.37544
2908.78247 1.37440
2906.73403 1.37348
2904.68559 1.37259
2902.63715 1.37183
2900.58871 1.37135
2898.54028 1.37086
2896.49184 1.36986
2894.44340 1.36894
2892.39496 1.36837
2890.34652 1.36770
2888.29808 1.36702
2886.24965 1.36632
2884.20121 1.36533
2882.15277 1.36420
2880.10433 1.36364
2878.05589 1.36384
2876.00745 1.36371
2873.95902 1.36291
2871.91058 1.36247
2869.86214 1.36264
2867.81370 1.36276
2865.76526 1.36289
2863.71682 1.36298
2861.66839 1.36276
2859.61995 1.36291
2857.57151 1.36365
2855.52307 1.36454
2853.47463 1.36513
2851.42619 1.36461
2849.37776 1.36299
2847.32932 1.36109
2845.28088 1.35908
2843.23244 1.35688
2841.18400 1.35462
2839.13556 1.35277
2837.08713 1.35179
2835.03869 1.35100
2832.99025 1.34993
2830.94181 1.34890
2828.89337 1.34795
2826.84493 1.34675
2824.79650 1.34497
2822.74806 1.34299
2820.69962 1.34124
2818.65118 1.33981
2816.60274 1.33895
2814.55430 1.33821
2812.50587 1.33702
2810.45743 1.33581
2808.40899 1.33499
2806.36055 1.33459
2804.31211 1.33428
2802.26367 1.33341
2800.21524 1.33208
2798.16680 1.33096
2796.11836 1.33029
2794.06992 1.33001
2792.02148 1.32975
2789.97304 1.32902
2787.92461 1.32836
2785.87617 1.32826
2783.82773 1.32818
2781.77929 1.32800
2779.73085 1.32787
2777.68241 1.32766
2775.63397 1.32736
2773.58554 1.32688
2771.53710 1.32622
2769.48866 1.32567
2767.44022 1.32509
2765.39178 1.32428
2763.34334 1.32359
2761.29491 1.32302
2759.24647 1.32238
2757.19803 1.32195
2755.14959 1.32191
2753.10115 1.32173
2751.05271 1.32141
2749.00428 1.32124
2746.95584 1.32084
2744.90740 1.32029
2742.85896 1.32000
2740.81052 1.32005
2738.76208 1.32040
2736.71365 1.32086
2734.66521 1.32105
2732.61677 1.32068
2730.56833 1.32008
2728.51989 1.31965
2726.47145 1.31953
2724.42302 1.31965
2722.37458 1.31964
2720.32614 1.31944
2718.27770 1.31953
2716.22926 1.31984
2714.18082 1.31996
2712.13239 1.31987
2710.08395 1.31960
2708.03551 1.31909
2705.98707 1.31880
2703.93863 1.31947
2701.89019 1.32082
2699.84176 1.32153
2697.79332 1.32149
2695.74488 1.32176
2693.69644 1.32209
2691.64800 1.32195
2689.59956 1.32229
2687.55113 1.32332
2685.50269 1.32426
2683.45425 1.32516
2681.40581 1.32637
2679.35737 1.32778
2677.30893 1.32908
2675.26050 1.33035
2673.21206 1.33222
2671.16362 1.33477
2669.11518 1.33753
2667.06674 1.34035
2665.01830 1.34356
2662.96987 1.34674
2660.92143 1.34931
2658.87299 1.35151
2656.82455 1.35331
2654.77611 1.35436
2652.72767 1.35486
2650.67924 1.35530
2648.63080 1.35597
2646.58236 1.35670
2644.53392 1.35720
2642.48548 1.35766
2640.43704 1.35823
2638.38860 1.35888
2636.34017 1.35971
2634.29173 1.36048
2632.24329 1.36081
2630.19485 1.36084
2628.14641 1.36085
2626.09797 1.36075
2624.04954 1.36058
2622.00110 1.36030
2619.95266 1.36006
2617.90422 1.36011
2615.85578 1.36009
2613.80734 1.35999
2611.75891 1.36008
2609.71047 1.36000
2607.66203 1.35940
2605.61359 1.35859
2603.56515 1.35794
2601.51671 1.35762
2599.46828 1.35771
2597.41984 1.35796
2595.37140 1.35806
2593.32296 1.35856
2591.27452 1.35945
2589.22608 1.35993
2587.17765 1.36028
2585.12921 1.36090
2583.08077 1.36143
2581.03233 1.36199
2578.98389 1.36290
2576.93545 1.36403
2574.88702 1.36539
2572.83858 1.36691
2570.79014 1.36802
2568.74170 1.36862
2566.69326 1.36946
2564.64482 1.37082
2562.59639 1.37207
2560.54795 1.37276
2558.49951 1.37339
2556.45107 1.37486
2554.40263 1.37706
2552.35419 1.37911
2550.30576 1.38020
2548.25732 1.37945
2546.20888 1.37684
2544.16044 1.37380
2542.11200 1.37226
2540.06356 1.37342
2538.01513 1.37663
2535.96669 1.38041
2533.91825 1.38417
2531.86981 1.38734
2529.82137 1.38898
2527.77293 1.38890
2525.72450 1.38789
2523.67606 1.38633
2521.62762 1.38379
2519.57918 1.38068
2517.53074 1.37774
2515.48230 1.37520
2513.43387 1.37363
2511.38543 1.37385
2509.33699 1.37593
2507.28855 1.37895
2505.24011 1.38178
2503.19167 1.38392
2501.14324 1.38495
2499.09480 1.38495
2497.04636 1.38431
2494.99792 1.38287
2492.94948 1.38081
2490.90104 1.37851
2488.85260 1.37620
2486.80417 1.37392
2484.75573 1.37122
2482.70729 1.36815
2480.65885 1.36513
2478.61041 1.36189
2476.56197 1.35830
2474.51354 1.35497
2472.46510 1.35219
2470.41666 1.34980
2468.36822 1.34765
2466.31978 1.34563
2464.27134 1.34354
2462.22291 1.34105
2460.17447 1.33789
2458.12603 1.33477
2456.07759 1.33251
2454.02915 1.33075
2451.98071 1.32916
2449.93228 1.32792
2447.88384 1.32725
2445.83540 1.32689
2443.78696 1.32618
2441.73852 1.32521
2439.69008 1.32453
2437.64165 1.32398
2435.59321 1.32334
2433.54477 1.32286
2431.49633 1.32249
2429.44789 1.32185
2427.39945 1.32117
2425.35102 1.32071
2423.30258 1.32011
2421.25414 1.31928
2419.20570 1.31851
2417.15726 1.31790
2415.10882 1.31775
2413.06039 1.31823
2411.01195 1.31890
2408.96351 1.31927
2406.91507 1.31923
2404.86663 1.31916
2402.81819 1.31954
2400.76976 1.32020
2398.72132 1.32086
2396.67288 1.32164
2394.62444 1.32231
2392.57600 1.32281
2390.52756 1.32368
2388.47913 1.32506
2386.43069 1.32655
2384.38225 1.32800
2382.33381 1.32984
2380.28537 1.33213
2378.23693 1.33426
2376.18850 1.33666
2374.14006 1.34014
2372.09162 1.34378
2370.04318 1.34536
2367.99474 1.34404
2365.94630 1.34187
2363.89787 1.34205
2361.84943 1.34549
2359.80099 1.35046
2357.75255 1.35456
2355.70411 1.35712
2353.65567 1.35795
2351.60723 1.35696
2349.55880 1.35491
2347.51036 1.35310
2345.46192 1.35191
2343.41348 1.35045
2341.36504 1.34953
2339.31660 1.34986
2337.26817 1.35023
2335.21973 1.35006
2333.17129 1.34954
2331.12285 1.34918
2329.07441 1.34887
2327.02597 1.34824
2324.97754 1.34770
2322.92910 1.34728
2320.88066 1.34550
2318.83222 1.34207
2316.78378 1.33889
2314.73534 1.33750
2312.68691 1.33778
2310.63847 1.33781
2308.59003 1.33596
2306.54159 1.33321
2304.49315 1.33096
2302.44471 1.32856
2300.39628 1.32529
2298.34784 1.32176
2296.29940 1.31860
2294.25096 1.31594
2292.20252 1.31397
2290.15408 1.31278
2288.10565 1.31208
2286.05721 1.31162
2284.00877 1.31147
2281.96033 1.31169
2279.91189 1.31246
2277.86345 1.31367
2275.81502 1.31470
2273.76658 1.31555
2271.71814 1.31669
2269.66970 1.31817
2267.62126 1.31968
2265.57282 1.32066
2263.52439 1.32132
2261.47595 1.32221
2259.42751 1.32301
2257.37907 1.32343
2255.33063 1.32347
2253.28219 1.32333
2251.23376 1.32329
2249.18532 1.32353
2247.13688 1.32380
2245.08844 1.32376
2243.04000 1.32364
2240.99156 1.32391
2238.94313 1.32457
2236.89469 1.32534
2234.84625 1.32610
2232.79781 1.32679
2230.74937 1.32704
2228.70093 1.32708
2226.65250 1.32770
2224.60406 1.32881
2222.55562 1.32992
2220.50718 1.33096
2218.45874 1.33192
2216.41030 1.33261
2214.36186 1.33318
2212.31343 1.33383
2210.26499 1.33458
2208.21655 1.33581
2206.16811 1.33772
2204.11967 1.34002
2202.07123 1.34214
2200.02280 1.34376
2197.97436 1.34519
2195.92592 1.34661
2193.87748 1.34791
2191.82904 1.34929
2189.78060 1.35074
2187.73217 1.35247
2185.68373 1.35467
2183.63529 1.35681
2181.58685 1.35842
2179.53841 1.35926
2177.48997 1.35954
2175.44154 1.35937
2173.39310 1.35917
2171.34466 1.35983
2169.29622 1.36157
2167.24778 1.36365
2165.19934 1.36563
2163.15091 1.36768
2161.10247 1.36974
2159.05403 1.37156
2157.00559 1.37310
2154.95715 1.37452
2152.90871 1.37521
2150.86028 1.37434
2148.81184 1.37209
2146.76340 1.36969
2144.71496 1.36839
2142.66652 1.36812
2140.61808 1.36848
2138.56965 1.36942
2136.52121 1.36973
2134.47277 1.36816
2132.42433 1.36604
2130.37589 1.36502
2128.32745 1.36465
2126.27902 1.36404
2124.23058 1.36338
2122.18214 1.36300
2120.13370 1.36267
2118.08526 1.36197
2116.03682 1.36070
2113.98839 1.35926
2111.93995 1.35752
2109.89151 1.35516
2107.84307 1.35246
2105.79463 1.34970
2103.74619 1.34673
2101.69776 1.34355
2099.64932 1.34043
2097.60088 1.33763
2095.55244 1.33554
2093.50400 1.33412
2091.45556 1.33279
2089.40713 1.33136
2087.35869 1.32999
2085.31025 1.32887
2083.26181 1.32796
2081.21337 1.32721
2079.16493 1.32694
2077.11649 1.32728
2075.06806 1.32799
2073.01962 1.32866
2070.97118 1.32934
2068.92274 1.33067
2066.87430 1.33240
2064.82586 1.33359
2062.77743 1.33415
2060.72899 1.33485
2058.68055 1.33574
2056.63211 1.33655
2054.58367 1.33740
2052.53523 1.33804
2050.48680 1.33850
2048.43836 1.33892
2046.38992 1.33917
2044.34148 1.33934
2042.29304 1.33918
2040.24460 1.33864
2038.19617 1.33852
2036.14773 1.33907
2034.09929 1.33966
2032.05085 1.34013
2030.00241 1.34083
2027.95397 1.34197
2025.90554 1.34345
2023.85710 1.34488
2021.80866 1.34594
2019.76022 1.34697
2017.71178 1.34848
2015.66334 1.35020
2013.61491 1.35138
2011.56647 1.35192
2009.51803 1.35231
2007.46959 1.35278
2005.42115 1.35307
2003.37271 1.35308
2001.32428 1.35353
1999.27584 1.35463
1997.22740 1.35561
1995.17896 1.35626
1993.13052 1.35721
1991.08208 1.35878
1989.03365 1.36064
1986.98521 1.36253
1984.93677 1.36436
1982.88833 1.36635
1980.83989 1.36824
1978.79145 1.36949
1976.74302 1.37045
1974.69458 1.37177
1972.64614 1.37361
1970.59770 1.37535
1968.54926 1.37675
1966.50082 1.37824
1964.45239 1.37929
1962.40395 1.37955
1960.35551 1.37988
1958.30707 1.38052
1956.25863 1.38119
1954.21019 1.38181
1952.16176 1.38255
1950.11332 1.38353
1948.06488 1.38466
1946.01644 1.38568
1943.96800 1.38693
1941.91956 1.38910
1939.87112 1.39097
1937.82269 1.39214
1935.77425 1.39378
1933.72581 1.39591
1931.67737 1.39749
1929.62893 1.39858
1927.58049 1.39974
1925.53206 1.40099
1923.48362 1.40294
1921.43518 1.40498
1919.38674 1.40638
1917.33830 1.40827
1915.28986 1.41014
1913.24143 1.41116
1911.19299 1.41245
1909.14455 1.41428
1907.09611 1.41556
1905.04767 1.41649
1902.99923 1.41783
1900.95080 1.41939
1898.90236 1.42091
1896.85392 1.42281
1894.80548 1.42546
1892.75704 1.42815
1890.70860 1.43051
1888.66017 1.43301
1886.61173 1.43518
1884.56329 1.43735
1882.51485 1.43979
1880.46641 1.44262
1878.41797 1.44570
1876.36954 1.44820
1874.32110 1.45056
1872.27266 1.45326
1870.22422 1.45681
1868.17578 1.46090
1866.12734 1.46323
1864.07891 1.46438
1862.03047 1.46619
1859.98203 1.46897
1857.93359 1.47232
1855.88515 1.47592
1853.83671 1.47956
1851.78828 1.48309
1849.73984 1.48687
1847.69140 1.49111
1845.64296 1.49546
1843.59452 1.50120
1841.54608 1.50625
1839.49765 1.50989
1837.44921 1.51427
1835.40077 1.51910
1833.35233 1.52305
1831.30389 1.52710
1829.25545 1.53270
1827.20702 1.53794
1825.15858 1.54317
1823.11014 1.54879
1821.06170 1.55379
1819.01326 1.55902
1816.96482 1.56480
1814.91639 1.57046
1812.86795 1.57670
1810.81951 1.58393
1808.77107 1.59038
1806.72263 1.59591
1804.67419 1.60179
1802.62575 1.60866
1800.57732 1.61481
1798.52888 1.61748
1796.48044 1.61846
1794.43200 1.61961
1792.38356 1.61859
1790.33512 1.61130
1788.28669 1.60142
1786.23825 1.59375
1784.18981 1.59007
1782.14137 1.58847
1780.09293 1.58612
1778.04449 1.58412
1775.99606 1.58526
1773.94762 1.58999
1771.89918 1.59793
1769.85074 1.60523
1767.80230 1.60953
1765.75386 1.61173
1763.70543 1.61412
1761.65699 1.61890
1759.60855 1.62398
1757.56011 1.62871
1755.51167 1.63341
1753.46323 1.63805
1751.41480 1.64503
1749.36636 1.65323
1747.31792 1.65724
1745.26948 1.65863
1743.22104 1.65966
1741.17260 1.66129
1739.12417 1.66489
1737.07573 1.66909
1735.02729 1.67523
1732.97885 1.67914
1730.93041 1.67711
1728.88197 1.67593
1726.83354 1.67657
1724.78510 1.67894
1722.73666 1.68283
1720.68822 1.68885
1718.63978 1.69789
1716.59134 1.70419
1714.54291 1.70086
1712.49447 1.69854
1710.44603 1.69899
1708.39759 1.70152
1706.34915 1.70512
1704.30071 1.70655
1702.25228 1.70704
1700.20384 1.71106
1698.15540 1.71721
1696.10696 1.71746
1694.05852 1.71572
1692.01008 1.71593
1689.96165 1.71974
1687.91321 1.72501
1685.86477 1.73051
1683.81633 1.73502
1681.76789 1.73382
1679.71945 1.73286
1677.67102 1.73313
1675.62258 1.73470
1673.57414 1.73551
1671.52570 1.73689
1669.47726 1.73793
1667.42882 1.73736
1665.38038 1.73617
1663.33195 1.73600
1661.28351 1.73418
1659.23507 1.73168
1657.18663 1.73212
1655.13819 1.73527
1653.08975 1.73892
1651.04132 1.73486
1648.99288 1.73343
1646.94444 1.73020
1644.89600 1.72422
1642.84756 1.71933
1640.79912 1.71658
1638.75069 1.71447
1636.70225 1.70936
1634.65381 1.69834
1632.60537 1.68985
1630.55693 1.68380
1628.50849 1.67464
1626.46006 1.66349
1624.41162 1.64884
1622.36318 1.63155
1620.31474 1.61735
1618.26630 1.60306
1616.21786 1.57698
1614.16943 1.55262
1612.12099 1.53288
1610.07255 1.50741
1608.02411 1.47418
1605.97567 1.43689
1603.92723 1.39689
1601.87880 1.35022
1599.83036 1.29968
1597.78192 1.24467
1595.73348 1.18046
1593.68504 1.10775
1591.63660 1.03347
1589.58817 0.95994
1587.53973 0.89297
1585.49129 0.83954
1583.44285 0.80353
1581.39441 0.78647
1579.34597 0.78441
1577.29754 0.79622
1575.24910 0.82237
1573.20066 0.84257
1571.15222 0.85664
1569.10378 0.86729
1567.05534 0.85780
1565.00691 0.82353
1562.95847 0.78123
1560.91003 0.73762
1558.86159 0.63964
1556.81315 0.56003
1554.76471 0.53086
1552.71628 0.50586
1550.66784 0.48436
1548.61940 0.46652
1546.57096 0.45486
1544.52252 0.44640
1542.47408 0.43746
1540.42565 0.42515
1538.37721 0.41643
1536.32877 0.41325
1534.28033 0.40984
1532.23189 0.40514
1530.18345 0.40189
1528.13501 0.39989
1526.08658 0.39834
1524.03814 0.39685
1521.98970 0.39456
1519.94126 0.39215
1517.89282 0.39064
1515.84438 0.38902
1513.79595 0.38725
1511.74751 0.38645
1509.69907 0.38629
1507.65063 0.38502
1505.60219 0.38248
1503.55375 0.38161
1501.50532 0.38106
1499.45688 0.38065
1497.40844 0.38035
1495.36000 0.37961
1493.31156 0.37918
1491.26312 0.37989
1489.21469 0.38123
1487.16625 0.38055
1485.11781 0.37922
1483.06937 0.37873
1481.02093 0.37896
1478.97249 0.37943
1476.92406 0.38047
1474.87562 0.38229
1472.82718 0.38422
1470.77874 0.38510
1468.73030 0.38586
1466.68186 0.38886
1464.63343 0.39646
1462.58499 0.40671
1460.53655 0.41847
1458.48811 0.44610
1456.43967 0.51145
1454.39123 0.55962
1452.34280 0.58805
1450.29436 0.61595
1448.24592 0.64643
1446.19748 0.67590
1444.14904 0.69947
1442.10060 0.72030
1440.05217 0.73920
1438.00373 0.75768
1435.95529 0.78045
1433.90685 0.79761
1431.85841 0.81008
1429.80997 0.82396
1427.76154 0.83657
1425.71310 0.84675
1423.66466 0.85688
1421.61622 0.86605
1419.56778 0.87640
1417.51934 0.88930
1415.47091 0.89802
1413.42247 0.90560
1411.37403 0.91425
1409.32559 0.92316
1407.27715 0.93138
1405.22871 0.94027
1403.18028 0.94849
1401.13184 0.95525
1399.08340 0.96304
1397.03496 0.97116
1394.98652 0.97840
1392.93808 0.98395
1390.88965 0.98825
1388.84121 0.99340
1386.79277 1.00034
1384.74433 1.00592
1382.69589 1.01066
1380.64745 1.01611
1378.59901 1.02200
1376.55058 1.02777
1374.50214 1.03380
1372.45370 1.03899
1370.40526 1.04285
1368.35682 1.04726
1366.30838 1.05160
1364.25995 1.05627
1362.21151 1.06159
1360.16307 1.06580
1358.11463 1.06887
1356.06619 1.07237
1354.01775 1.07613
1351.96932 1.07972
1349.92088 1.08351
1347.87244 1.08739
1345.82400 1.09118
1343.77556 1.09469
1341.72712 1.09884
1339.67869 1.10365
1337.63025 1.10749
1335.58181 1.10968
1333.53337 1.11199
1331.48493 1.11495
1329.43649 1.11809
1327.38806 1.12105
1325.33962 1.12391
1323.29118 1.12694
1321.24274 1.13015
1319.19430 1.13367
1317.14586 1.13674
1315.09743 1.13946
1313.04899 1.14217
1311.00055 1.14484
1308.95211 1.14726
1306.90367 1.14952
1304.85523 1.15170
1302.80680 1.15401
1300.75836 1.15654
1298.70992 1.15917
1296.66148 1.16184
1294.61304 1.16415
1292.56460 1.16642
1290.51617 1.16874
1288.46773 1.17098
1286.41929 1.17287
1284.37085 1.17465
1282.32241 1.17637
1280.27397 1.17797
1278.22554 1.17977
1276.17710 1.18176
1274.12866 1.18391
1272.08022 1.18612
1270.03178 1.18815
1267.98334 1.18970
1265.93491 1.19114
1263.88647 1.19265
1261.83803 1.19446
1259.78959 1.19662
1257.74115 1.19889
1255.69271 1.20117
1253.64428 1.20326
1251.59584 1.20468
1249.54740 1.20576
1247.49896 1.20728
1245.45052 1.20897
1243.40208 1.21076
1241.35364 1.21261
1239.30521 1.21439
1237.25677 1.21611
1235.20833 1.21789
1233.15989 1.21968
1231.11145 1.22127
1229.06301 1.22272
1227.01458 1.22431
1224.96614 1.22606
1222.91770 1.22780
1220.86926 1.22959
1218.82082 1.23150
1216.77238 1.23343
1214.72395 1.23518
1212.67551 1.23672
1210.62707 1.23801
1208.57863 1.23924
1206.53019 1.24053
1204.48175 1.24209
1202.43332 1.24422
1200.38488 1.24616
1198.33644 1.24749
1196.28800 1.24869
1194.23956 1.25006
1192.19112 1.25143
1190.14269 1.25291
1188.09425 1.25455
1186.04581 1.25604
1183.99737 1.25717
1181.94893 1.25811
1179.90049 1.25901
1177.85206 1.25989
1175.80362 1.26084
1173.75518 1.26165
1171.70674 1.26213
1169.65830 1.26249
1167.60986 1.26325
1165.56143 1.26453
1163.51299 1.26595
1161.46455 1.26700
1159.41611 1.26770
1157.36767 1.26854
1155.31923 1.26962
1153.27080 1.27085
1151.22236 1.27228
1149.17392 1.27369
1147.12548 1.27472
1145.07704 1.27539
1143.02860 1.27592
1140.98017 1.27663
1138.93173 1.27740
1136.88329 1.27799
1134.83485 1.27821
1132.78641 1.27804
1130.73797 1.27781
1128.68954 1.27766
1126.64110 1.27755
1124.59266 1.27721
1122.54422 1.27686
1120.49578 1.27672
1118.44734 1.27682
1116.39891 1.27713
1114.35047 1.27769
1112.30203 1.27876
1110.25359 1.28072
1108.20515 1.28316
1106.15671 1.28568
1104.10827 1.28866
1102.05984 1.29230
1100.01140 1.29700
1097.96296 1.30308
1095.91452 1.31092
1093.86608 1.32058
1091.81764 1.33279
1089.76921 1.34969
1087.72077 1.36338
1085.67233 1.32052
1083.62389 1.23078
1081.57545 1.19633
1079.52701 1.23118
1077.47858 1.26929
1075.43014 1.28221
1073.38170 1.28370
1071.33326 1.28278
1069.28482 1.28152
1067.23638 1.27825
1065.18795 1.27498
1063.13951 1.27738
1061.09107 1.28609
1059.04263 1.28943
1056.99419 1.28160
1054.94575 1.27324
1052.89732 1.27078
1050.84888 1.27055
1048.80044 1.27093
1046.75200 1.27206
1044.70356 1.27339
1042.65512 1.27431
1040.60669 1.27506
1038.55825 1.27592
1036.50981 1.27706
1034.46137 1.27837
1032.41293 1.27904
1030.36449 1.27981
1028.31606 1.28085
1026.26762 1.28192
1024.21918 1.28329
1022.17074 1.28507
1020.12230 1.28724
1018.07386 1.28970
1016.02543 1.29190
1013.97699 1.29418
1011.92855 1.29698
1009.88011 1.30016
1007.83167 1.30375
1005.78323 1.30744
1003.73480 1.31149
1001.68636 1.31565
999.63792 1.32033
997.58948 1.32561
995.54104 1.33079
993.49260 1.33611
991.44417 1.34157
989.39573 1.34651
987.34729 1.35077
985.29885 1.35453
983.25041 1.35786
981.20197 1.36041
979.15354 1.36222
977.10510 1.36400
975.05666 1.36541
973.00822 1.36700
970.95978 1.36914
968.91134 1.37129
966.86290 1.37356
964.81447 1.37633
962.76603 1.38007
960.71759 1.38408
958.66915 1.38741
956.62071 1.39119
954.57227 1.39583
952.52384 1.39982
950.47540 1.40348
948.42696 1.40735
946.37852 1.41107
944.33008 1.41399
942.28164 1.41599
940.23321 1.41814
938.18477 1.42142
936.13633 1.42555
934.08789 1.42986
932.03945 1.43399
929.99101 1.43783
927.94258 1.44211
925.89414 1.44685
923.84570 1.45205
921.79726 1.45801
919.74882 1.46432
917.70038 1.47092
915.65195 1.47908
913.60351 1.48940
911.55507 1.49969
909.50663 1.50536
907.45819 1.50660
905.40975 1.50755
903.36132 1.50938
901.31288 1.51168
899.26444 1.51246
897.21600 1.51047
895.16756 1.50613
893.11912 1.49833
891.07069 1.48307
889.02225 1.45620
886.97381 1.41086
884.92537 1.33274
882.87693 1.19772
880.82849 0.99276
878.78006 0.76701
876.73162 0.59103
874.68318 0.48905
872.63474 0.44301
870.58630 0.42383
868.53786 0.41401
866.48943 0.40802
864.44099 0.40445
862.39255 0.40274
860.34411 0.40294
858.29567 0.40601
856.24723 0.41771
854.19880 0.45696
852.15036 0.54455
850.10192 0.67048
848.05348 0.79147
846.00504 0.86868
843.95660 0.89611
841.90817 0.91397
839.85973 0.95089
837.81129 0.99126
835.76285 1.02295
833.71441 1.04901
831.66597 1.07096
829.61753 1.08955
827.56910 1.10624
825.52066 1.12150
823.47222 1.13542
821.42378 1.14800
819.37534 1.15932
817.32690 1.16944
815.27847 1.17793
813.23003 1.18507
811.18159 1.19166
809.13315 1.19880
807.08471 1.20673
805.03627 1.21417
802.98784 1.21986
800.93940 1.22433
798.89096 1.22887
796.84252 1.23443
794.79408 1.23969
792.74564 1.24358
790.69721 1.24846
788.64877 1.25452
786.60033 1.25891
784.55189 1.26232
782.50345 1.26649
780.45501 1.27025
778.40658 1.27365
776.35814 1.27756
774.30970 1.28124
772.26126 1.28398
770.21282 1.28670
768.16438 1.29014
766.11595 1.29353
764.06751 1.29608
762.01907 1.29878
759.97063 1.30275
757.92219 1.30760
755.87375 1.31231
753.82532 1.31630
751.77688 1.31970
749.72844 1.32290
747.68000 1.32621
745.63156 1.33005
743.58312 1.33487
741.53469 1.33986
739.48625 1.34503
737.43781 1.35033
735.38937 1.35667
733.34093 1.36486
731.29249 1.37368
729.24406 1.38276
727.19562 1.39357
725.14718 1.40825
723.09874 1.42937
721.05030 1.45746
719.00186 1.48089
716.95343 1.41111
714.90499 1.23065
712.85655 1.11729
710.80811 1.13854
708.75967 1.22377
706.71123 1.28839
704.66280 1.32739
702.61436 1.33948
700.56592 1.31776
698.51748 1.29785
696.46904 1.30419
694.42060 1.31930
692.37216 1.33179
690.32373 1.34247
688.27529 1.34914
686.22685 1.35117
684.17841 1.35215
682.12997 1.35544
680.08153 1.36038
678.03310 1.36365
675.98466 1.36646
673.93622 1.37144
671.88778 1.37732
669.83934 1.38648
667.79090 1.39124
665.74247 1.38826
663.69403 1.38923
661.64559 1.39195
659.59715 1.39256
657.54871 1.39165
655.50027 1.39134
653.45184 1.39697
651.40340 1.40479
649.35496 1.40470
647.30652 1.40157
645.25808 1.40135
643.20964 1.40251
641.16121 1.40224
639.11277 1.40596
637.06433 1.41247
635.01589 1.41363
632.96745 1.41517
630.91901 1.42222
628.87058 1.42428
626.82214 1.41730
624.77370 1.41011
622.72526 1.40571
620.67682 1.40957
618.62838 1.42459
616.57995 1.43665
614.53151 1.43459
612.48307 1.43634
610.43463 1.45318
608.38619 1.46830
606.33775 1.46794
604.28932 1.46279
602.24088 1.46617
600.19244 1.47357
598.14400 1.47857
