3996.50324 1.35566
3994.45480 1.35634
3992.40636 1.35718
3990.35792 1.35803
3988.30948 1.35868
3986.26104 1.35897
3984.21261 1.35860
3982.16417 1.35798
3980.11573 1.35799
3978.06729 1.35853
3976.01885 1.35922
3973.97041 1.35971
3971.92198 1.35990
3969.87354 1.36039
3967.82510 1.36065
3965.77666 1.35995
3963.72822 1.35908
3961.67978 1.35879
3959.63135 1.35872
3957.58291 1.35800
3955.53447 1.35671
3953.48603 1.35601
3951.43759 1.35622
3949.38915 1.35668
3947.34072 1.35616
3945.29228 1.35422
3943.24384 1.35361
3941.19540 1.35489
3939.14696 1.35441
3937.09852 1.35269
3935.05009 1.35219
3933.00165 1.35345
3930.95321 1.35514
3928.90477 1.35436
3926.85633 1.35184
3924.80789 1.35066
3922.75946 1.35058
3920.71102 1.34982
3918.66258 1.34920
3916.61414 1.34904
3914.56570 1.34766
3912.51726 1.34512
3910.46883 1.34290
3908.42039 1.34138
3906.37195 1.34110
3904.32351 1.34362
3902.27507 1.34716
3900.22663 1.34897
3898.17820 1.34858
3896.12976 1.34516
3894.08132 1.34111
3892.03288 1.34069
3889.98444 1.34158
3887.93600 1.33831
3885.88756 1.33612
3883.83913 1.33757
3881.79069 1.33726
3879.74225 1.33690
3877.69381 1.33413
3875.64537 1.32938
3873.59693 1.32849
3871.54850 1.33077
3869.50006 1.33381
3867.45162 1.33350
3865.40318 1.33114
3863.35474 1.33294
3861.30630 1.33354
3859.25787 1.32962
3857.20943 1.32412
3855.16099 1.32025
3853.11255 1.33091
3851.06411 1.34063
3849.01567 1.33568
3846.96724 1.32889
3844.91880 1.32548
3842.87036 1.32614
3840.82192 1.32821
3838.77348 1.33152
3836.72504 1.33537
3834.67661 1.33476
3832.62817 1.33233
3830.57973 1.33044
3828.53129 1.32843
3826.48285 1.32790
3824.43441 1.32732
3822.38598 1.32675
3820.33754 1.33204
3818.28910 1.33286
3816.24066 1.33099
3814.19222 1.33202
3812.14378 1.32940
3810.09535 1.32458
3808.04691 1.32286
3805.99847 1.32631
3803.95003 1.32702
3801.90159 1.32836
3799.85315 1.33389
3797.80472 1.33365
3795.75628 1.33182
3793.70784 1.33038
3791.65940 1.32819
3789.61096 1.32661
3787.56252 1.32571
3785.51409 1.32672
3783.46565 1.32834
3781.41721 1.32755
3779.36877 1.32860
3777.32033 1.33134
3775.27189 1.33032
3773.22346 1.32723
3771.17502 1.32652
3769.12658 1.33026
3767.07814 1.33297
3765.02970 1.33313
3762.98126 1.33156
3760.93283 1.32992
3758.88439 1.33285
3756.83595 1.33527
3754.78751 1.33229
3752.73907 1.33077
3750.69063 1.33998
3748.64219 1.34663
3746.59376 1.34271
3744.54532 1.34200
3742.49688 1.34506
3740.44844 1.34276
3738.40000 1.33835
3736.35156 1.33878
3734.30313 1.34787
3732.25469 1.35335
3730.20625 1.35102
3728.15781 1.34766
3726.10937 1.34802
3724.06093 1.35044
3722.01250 1.35102
3719.96406 1.35031
3717.91562 1.34877
3715.86718 1.34684
3713.81874 1.34619
3711.77030 1.35191
3709.72187 1.36012
3707.67343 1.36010
3705.62499 1.35662
3703.57655 1.35464
3701.52811 1.35678
3699.47967 1.35844
3697.43124 1.35668
3695.38280 1.35450
3693.33436 1.35312
3691.28592 1.35267
3689.23748 1.35318
3687.18904 1.35186
3685.14061 1.34896
3683.09217 1.34619
3681.04373 1.34503
3678.99529 1.34619
3676.94685 1.35009
3674.89841 1.35806
3672.84998 1.36115
3670.80154 1.36186
3668.75310 1.36479
3666.70466 1.36484
3664.65622 1.36394
3662.60778 1.36438
3660.55935 1.36512
3658.51091 1.36587
3656.46247 1.36783
3654.41403 1.36945
3652.36559 1.37073
3650.31715 1.37693
3648.26872 1.38492
3646.22028 1.38254
3644.17184 1.37872
3642.12340 1.37687
3640.07496 1.37645
3638.02652 1.37704
3635.97809 1.37877
3633.92965 1.38149
3631.88121 1.38408
3629.83277 1.38725
3627.78433 1.38996
3625.73589 1.38832
3623.68746 1.38638
3621.63902 1.38673
3619.59058 1.38941
3617.54214 1.39130
3615.49370 1.39141
3613.44526 1.39144
3611.39682 1.39123
3609.34839 1.39157
3607.29995 1.39269
3605.25151 1.39244
3603.20307 1.39167
3601.15463 1.39209
3599.10619 1.39264
3597.05776 1.39257
3595.00932 1.39307
3592.96088 1.39320
3590.91244 1.39284
3588.86400 1.39405
3586.81556 1.39549
3584.76713 1.39406
3582.71869 1.39197
3580.67025 1.39101
3578.62181 1.39148
3576.57337 1.39216
3574.52493 1.39208
3572.47650 1.39176
3570.42806 1.39220
3568.37962 1.39412
3566.33118 1.39584
3564.28274 1.39507
3562.23430 1.39428
3560.18587 1.39363
3558.13743 1.39185
3556.08899 1.39018
3554.04055 1.39040
3551.99211 1.39170
3549.94367 1.39209
3547.89524 1.39252
3545.84680 1.39355
3543.79836 1.39315
3541.74992 1.39159
3539.70148 1.39042
3537.65304 1.38965
3535.60461 1.38885
3533.55617 1.38846
3531.50773 1.38903
3529.45929 1.39036
3527.41085 1.39153
3525.36241 1.39216
3523.31398 1.39214
3521.26554 1.39058
3519.21710 1.38873
3517.16866 1.38812
3515.12022 1.38831
3513.07178 1.38860
3511.02335 1.38892
3508.97491 1.38929
3506.92647 1.38956
3504.87803 1.38993
3502.82959 1.38991
3500.78115 1.38881
3498.73272 1.38820
3496.68428 1.38857
3494.63584 1.38808
3492.58740 1.38666
3490.53896 1.38592
3488.49052 1.38625
3486.44209 1.38687
3484.39365 1.38711
3482.34521 1.38703
3480.29677 1.38659
3478.24833 1.38594
3476.19989 1.38572
3474.15146 1.38584
3472.10302 1.38590
3470.05458 1.38583
3468.00614 1.38539
3465.95770 1.38438
3463.90926 1.38335
3461.86082 1.38318
3459.81239 1.38301
3457.76395 1.38236
3455.71551 1.38247
3453.66707 1.38329
3451.61863 1.38368
3449.57019 1.38376
3447.52176 1.38431
3445.47332 1.38451
3443.42488 1.38390
3441.37644 1.38328
3439.32800 1.38280
3437.27956 1.38239
3435.23113 1.38195
3433.18269 1.38150
3431.13425 1.38130
3429.08581 1.38145
3427.03737 1.38115
3424.98893 1.38001
3422.94050 1.37961
3420.89206 1.38049
3418.84362 1.38081
3416.79518 1.38050
3414.74674 1.38046
3412.69830 1.38010
3410.64987 1.37981
3408.60143 1.38009
3406.55299 1.38032
3404.50455 1.38071
3402.45611 1.38095
3400.40767 1.38066
3398.35924 1.38077
3396.31080 1.38068
3394.26236 1.38011
3392.21392 1.38009
3390.16548 1.37977
3388.11704 1.37863
3386.06861 1.37780
3384.02017 1.37765
3381.97173 1.37765
3379.92329 1.37751
3377.87485 1.37715
3375.82641 1.37678
3373.77798 1.37680
3371.72954 1.37729
3369.68110 1.37785
3367.63266 1.37826
3365.58422 1.37869
3363.53578 1.37878
3361.48735 1.37834
3359.43891 1.37788
3357.39047 1.37728
3355.34203 1.37659
3353.29359 1.37660
3351.24515 1.37728
3349.19672 1.37718
3347.14828 1.37583
3345.09984 1.37500
3343.05140 1.37526
3341.00296 1.37553
3338.95452 1.37607
3336.90609 1.37683
3334.85765 1.37658
3332.80921 1.37566
3330.76077 1.37489
3328.71233 1.37479
3326.66389 1.37568
3324.61545 1.37604
3322.56702 1.37539
3320.51858 1.37523
3318.47014 1.37563
3316.42170 1.37561
3314.37326 1.37497
3312.32482 1.37416
3310.27639 1.37402
3308.22795 1.37451
3306.17951 1.37470
3304.13107 1.37477
3302.08263 1.37516
3300.03419 1.37558
3297.98576 1.37582
3295.93732 1.37560
3293.88888 1.37569
3291.84044 1.37646
3289.79200 1.37650
3287.74356 1.37549
3285.69513 1.37464
3283.64669 1.37466
3281.59825 1.37481
3279.54981 1.37460
3277.50137 1.37458
3275.45293 1.37472
3273.40450 1.37479
3271.35606 1.37523
3269.30762 1.37554
3267.25918 1.37517
3265.21074 1.37481
3263.16230 1.37490
3261.11387 1.37546
3259.06543 1.37609
3257.01699 1.37596
3254.96855 1.37535
3252.92011 1.37508
3250.87167 1.37493
3248.82324 1.37471
3246.77480 1.37493
3244.72636 1.37548
3242.67792 1.37540
3240.62948 1.37441
3238.58104 1.37379
3236.53261 1.37438
3234.48417 1.37508
3232.43573 1.37507
3230.38729 1.37527
3228.33885 1.37568
3226.29041 1.37565
3224.24198 1.37549
3222.19354 1.37498
3220.14510 1.37412
3218.09666 1.37375
3216.04822 1.37433
3213.99978 1.37525
3211.95135 1.37555
3209.90291 1.37522
3207.85447 1.37493
3205.80603 1.37464
3203.75759 1.37443
3201.70915 1.37466
3199.66072 1.37501
3197.61228 1.37542
3195.56384 1.37584
3193.51540 1.37597
3191.46696 1.37567
3189.41852 1.37531
3187.37008 1.37554
3185.32165 1.37589
3183.27321 1.37569
3181.22477 1.37548
3179.17633 1.37596
3177.12789 1.37674
3175.07945 1.37714
3173.03102 1.37697
3170.98258 1.37687
3168.93414 1.37751
3166.88570 1.37816
3164.83726 1.37827
3162.78882 1.37815
3160.74039 1.37788
3158.69195 1.37737
3156.64351 1.37660
3154.59507 1.37598
3152.54663 1.37627
3150.49819 1.37699
3148.44976 1.37715
3146.40132 1.37682
3144.35288 1.37632
3142.30444 1.37589
3140.25600 1.37555
3138.20756 1.37557
3136.15913 1.37632
3134.11069 1.37698
3132.06225 1.37658
3130.01381 1.37609
3127.96537 1.37660
3125.91693 1.37755
3123.86850 1.37786
3121.82006 1.37707
3119.77162 1.37602
3117.72318 1.37582
3115.67474 1.37644
3113.62630 1.37722
3111.57787 1.37766
3109.52943 1.37774
3107.48099 1.37807
3105.43255 1.37864
3103.38411 1.37876
3101.33567 1.37847
3099.28724 1.37822
3097.23880 1.37859
3095.19036 1.37918
3093.14192 1.37886
3091.09348 1.37764
3089.04504 1.37680
3086.99661 1.37695
3084.94817 1.37724
3082.89973 1.37737
3080.85129 1.37756
3078.80285 1.37758
3076.75441 1.37796
3074.70598 1.37879
3072.65754 1.37906
3070.60910 1.37861
3068.56066 1.37812
3066.51222 1.37821
3064.46378 1.37875
3062.41535 1.37901
3060.36691 1.37929
3058.31847 1.37958
3056.27003 1.37935
3054.22159 1.37869
3052.17315 1.37814
3050.12471 1.37854
3048.07628 1.37922
3046.02784 1.37876
3043.97940 1.37797
3041.93096 1.37830
3039.88252 1.37969
3037.83408 1.38066
3035.78565 1.38056
3033.73721 1.38058
3031.68877 1.38121
3029.64033 1.38175
3027.59189 1.38169
3025.54345 1.38110
3023.49502 1.38081
3021.44658 1.38070
3019.39814 1.38052
3017.34970 1.38048
3015.30126 1.37999
3013.25282 1.37939
3011.20439 1.37986
3009.15595 1.38158
3007.10751 1.38334
3005.05907 1.38405
3003.01063 1.38418
3000.96219 1.38401
2998.91376 1.38340
2996.86532 1.38317
2994.81688 1.38308
2992.76844 1.38274
2990.72000 1.38329
2988.67156 1.38432
2986.62313 1.38436
2984.57469 1.38337
2982.52625 1.38208
2980.47781 1.38122
2978.42937 1.38098
2976.38093 1.38047
2974.33250 1.37990
2972.28406 1.38039
2970.23562 1.38124
2968.18718 1.38138
2966.13874 1.38096
2964.09030 1.38034
2962.04187 1.37996
2959.99343 1.38014
2957.94499 1.38040
2955.89655 1.37987
2953.84811 1.37869
2951.79967 1.37809
2949.75124 1.37830
2947.70280 1.37831
2945.65436 1.37804
2943.60592 1.37850
2941.55748 1.37949
2939.50904 1.37980
2937.46061 1.37930
2935.41217 1.37824
2933.36373 1.37661
2931.31529 1.37503
2929.26685 1.37445
2927.21841 1.37475
2925.16998 1.37468
2923.12154 1.37379
2921.07310 1.37238
2919.02466 1.37073
2916.97622 1.36951
2914.92778 1.36923
2912.87934 1.37001
2910.83091 1.37128
2908.78247 1.37201
2906.73403 1.37235
2904.68559 1.37309
2902.63715 1.37387
2900.58871 1.37397
2898.54028 1.37349
2896.49184 1.37315
2894.44340 1.37327
2892.39496 1.37320
2890.34652 1.37262
2888.29808 1.37226
2886.24965 1.37227
2884.20121 1.37222
2882.15277 1.37234
2880.10433 1.37275
2878.05589 1.37296
2876.00745 1.37276
2873.95902 1.37259
2871.91058 1.37270
2869.86214 1.37281
2867.81370 1.37277
2865.76526 1.37285
2863.71682 1.37314
2861.66839 1.37337
2859.61995 1.37350
2857.57151 1.37355
2855.52307 1.37315
2853.47463 1.37227
2851.42619 1.37118
2849.37776 1.36982
2847.32932 1.36887
2845.28088 1.36880
2843.23244 1.36902
2841.18400 1.36931
2839.13556 1.36957
2837.08713 1.36944
2835.03869 1.36905
2832.99025 1.36885
2830.94181 1.36900
2828.89337 1.36942
2826.84493 1.36976
2824.79650 1.36991
2822.74806 1.37013
2820.69962 1.37002
2818.65118 1.36947
2816.60274 1.36932
2814.55430 1.36939
2812.50587 1.36922
2810.45743 1.36917
2808.40899 1.36921
2806.36055 1.36893
2804.31211 1.36860
2802.26367 1.36851
2800.21524 1.36841
2798.16680 1.36819
2796.11836 1.36802
2794.06992 1.36783
2792.02148 1.36749
2789.97304 1.36704
2787.92461 1.36685
2785.87617 1.36713
2783.82773 1.36756
2781.77929 1.36760
2779.73085 1.36735
2777.68241 1.36711
2775.63397 1.36689
2773.58554 1.36679
2771.53710 1.36687
2769.48866 1.36704
2767.44022 1.36696
2765.39178 1.36657
2763.34334 1.36632
2761.29491 1.36617
2759.24647 1.36583
2757.19803 1.36580
2755.14959 1.36625
2753.10115 1.36642
2751.05271 1.36628
2749.00428 1.36610
2746.95584 1.36574
2744.90740 1.36540
2742.85896 1.36545
2740.81052 1.36589
2738.76208 1.36632
2736.71365 1.36655
2734.66521 1.36681
2732.61677 1.36695
2730.56833 1.36678
2728.51989 1.36654
2726.47145 1.36633
2724.42302 1.36641
2722.37458 1.36646
2720.32614 1.36597
2718.27770 1.36550
2716.22926 1.36553
2714.18082 1.36588
2712.13239 1.36628
2710.08395 1.36650
2708.03551 1.36650
2705.98707 1.36661
2703.93863 1.36699
2701.89019 1.36733
2699.84176 1.36716
2697.79332 1.36686
2695.74488 1.36702
2693.69644 1.36723
2691.64800 1.36705
2689.59956 1.36697
2687.55113 1.36749
2685.50269 1.36808
2683.45425 1.36827
2681.40581 1.36855
2679.35737 1.36933
2677.30893 1.37028
2675.26050 1.37081
2673.21206 1.37095
2671.16362 1.37121
2669.11518 1.37172
2667.06674 1.37235
2665.01830 1.37311
2662.96987 1.37409
2660.92143 1.37532
2658.87299 1.37671
2656.82455 1.37790
2654.77611 1.37868
2652.72767 1.37903
2650.67924 1.37896
2648.63080 1.37887
2646.58236 1.37913
2644.53392 1.37958
2642.48548 1.37996
2640.43704 1.38031
2638.38860 1.38062
2636.34017 1.38077
2634.29173 1.38078
2632.24329 1.38059
2630.19485 1.38027
2628.14641 1.38049
2626.09797 1.38115
2624.04954 1.38117
2622.00110 1.38078
2619.95266 1.38096
2617.90422 1.38132
2615.85578 1.38108
2613.80734 1.38062
2611.75891 1.38050
2609.71047 1.38061
2607.66203 1.38079
2605.61359 1.38080
2603.56515 1.38050
2601.51671 1.38019
2599.46828 1.38016
2597.41984 1.38023
2595.37140 1.38034
2593.32296 1.38081
2591.27452 1.38151
2589.22608 1.38192
2587.17765 1.38205
2585.12921 1.38239
2583.08077 1.38308
2581.03233 1.38363
2578.98389 1.38400
2576.93545 1.38455
2574.88702 1.38509
2572.83858 1.38556
2570.79014 1.38638
2568.74170 1.38749
2566.69326 1.38839
2564.64482 1.38872
2562.59639 1.38869
2560.54795 1.38864
2558.49951 1.38865
2556.45107 1.38927
2554.40263 1.39079
2552.35419 1.39223
2550.30576 1.39243
2548.25732 1.39132
2546.20888 1.38952
2544.16044 1.38769
2542.11200 1.38661
2540.06356 1.38667
2538.01513 1.38748
2535.96669 1.38875
2533.91825 1.39024
2531.86981 1.39130
2529.82137 1.39174
2527.77293 1.39150
2525.72450 1.39049
2523.67606 1.38921
2521.62762 1.38786
2519.57918 1.38633
2517.53074 1.38440
2515.48230 1.38240
2513.43387 1.38135
2511.38543 1.38141
2509.33699 1.38174
2507.28855 1.38218
2505.24011 1.38301
2503.19167 1.38384
2501.14324 1.38401
2499.09480 1.38377
2497.04636 1.38369
2494.99792 1.38341
2492.94948 1.38254
2490.90104 1.38158
2488.85260 1.38099
2486.80417 1.38050
2484.75573 1.37962
2482.70729 1.37835
2480.65885 1.37724
2478.61041 1.37649
2476.56197 1.37556
2474.51354 1.37427
2472.46510 1.37322
2470.41666 1.37271
2468.36822 1.37225
2466.31978 1.37176
2464.27134 1.37130
2462.22291 1.37048
2460.17447 1.36968
2458.12603 1.36928
2456.07759 1.36849
2454.02915 1.36733
2451.98071 1.36690
2449.93228 1.36725
2447.88384 1.36749
2445.83540 1.36733
2443.78696 1.36723
2441.73852 1.36738
2439.69008 1.36748
2437.64165 1.36735
2435.59321 1.36716
2433.54477 1.36700
2431.49633 1.36677
2429.44789 1.36673
2427.39945 1.36695
2425.35102 1.36689
2423.30258 1.36615
2421.25414 1.36559
2419.20570 1.36592
2417.15726 1.36620
2415.10882 1.36599
2413.06039 1.36604
2411.01195 1.36632
2408.96351 1.36662
2406.91507 1.36713
2404.86663 1.36756
2402.81819 1.36746
2400.76976 1.36733
2398.72132 1.36750
2396.67288 1.36770
2394.62444 1.36802
2392.57600 1.36842
2390.52756 1.36885
2388.47913 1.36976
2386.43069 1.37106
2384.38225 1.37276
2382.33381 1.37521
2380.28537 1.37793
2378.23693 1.38072
2376.18850 1.38469
2374.14006 1.38986
2372.09162 1.39533
2370.04318 1.40087
2367.99474 1.40713
2365.94630 1.41464
2363.89787 1.42003
2361.84943 1.42058
2359.80099 1.41893
2357.75255 1.41702
2355.70411 1.41528
2353.65567 1.41293
2351.60723 1.40853
2349.55880 1.40384
2347.51036 1.40147
2345.46192 1.40408
2343.41348 1.41102
2341.36504 1.41346
2339.31660 1.41035
2337.26817 1.40809
2335.21973 1.40792
2333.17129 1.40844
2331.12285 1.40873
2329.07441 1.40795
2327.02597 1.40635
2324.97754 1.40422
2322.92910 1.40165
2320.88066 1.39947
2318.83222 1.39753
2316.78378 1.39474
2314.73534 1.39138
2312.68691 1.38866
2310.63847 1.38718
2308.59003 1.38619
2306.54159 1.38469
2304.49315 1.38283
2302.44471 1.38069
2300.39628 1.37805
2298.34784 1.37554
2296.29940 1.37344
2294.25096 1.37134
2292.20252 1.36948
2290.15408 1.36811
2288.10565 1.36674
2286.05721 1.36556
2284.00877 1.36503
2281.96033 1.36528
2279.91189 1.36601
2277.86345 1.36659
2275.81502 1.36678
2273.76658 1.36697
2271.71814 1.36771
2269.66970 1.36883
2267.62126 1.36994
2265.57282 1.37069
2263.52439 1.37107
2261.47595 1.37167
2259.42751 1.37232
2257.37907 1.37220
2255.33063 1.37170
2253.28219 1.37189
2251.23376 1.37260
2249.18532 1.37299
2247.13688 1.37269
2245.08844 1.37229
2243.04000 1.37262
2240.99156 1.37326
2238.94313 1.37333
2236.89469 1.37309
2234.84625 1.37315
2232.79781 1.37349
2230.74937 1.37372
2228.70093 1.37353
2226.65250 1.37342
2224.60406 1.37377
2222.55562 1.37432
2220.50718 1.37514
2218.45874 1.37635
2216.41030 1.37718
2214.36186 1.37728
2212.31343 1.37755
2210.26499 1.37841
2208.21655 1.37934
2206.16811 1.38001
2204.11967 1.38050
2202.07123 1.38078
2200.02280 1.38112
2197.97436 1.38157
2195.92592 1.38208
2193.87748 1.38282
2191.82904 1.38358
2189.78060 1.38411
2187.73217 1.38475
2185.68373 1.38550
2183.63529 1.38600
2181.58685 1.38663
2179.53841 1.38745
2177.48997 1.38786
2175.44154 1.38776
2173.39310 1.38759
2171.34466 1.38760
2169.29622 1.38822
2167.24778 1.38946
2165.19934 1.39059
2163.15091 1.39131
2161.10247 1.39203
2159.05403 1.39272
2157.00559 1.39312
2154.95715 1.39376
2152.90871 1.39450
2150.86028 1.39449
2148.81184 1.39368
2146.76340 1.39289
2144.71496 1.39267
2142.66652 1.39258
2140.61808 1.39241
2138.56965 1.39254
2136.52121 1.39272
2134.47277 1.39249
2132.42433 1.39228
2130.37589 1.39226
2128.32745 1.39229
2126.27902 1.39234
2124.23058 1.39249
2122.18214 1.39264
2120.13370 1.39269
2118.08526 1.39257
2116.03682 1.39235
2113.98839 1.39203
2111.93995 1.39141
2109.89151 1.39042
2107.84307 1.38911
2105.79463 1.38778
2103.74619 1.38656
2101.69776 1.38528
2099.64932 1.38368
2097.60088 1.38212
2095.55244 1.38094
2093.50400 1.37996
2091.45556 1.37938
2089.40713 1.37916
2087.35869 1.37881
2085.31025 1.37847
2083.26181 1.37855
2081.21337 1.37893
2079.16493 1.37946
2077.11649 1.38009
2075.06806 1.38056
2073.01962 1.38081
2070.97118 1.38105
2068.92274 1.38151
2066.87430 1.38247
2064.82586 1.38357
2062.77743 1.38401
2060.72899 1.38392
2058.68055 1.38402
2056.63211 1.38456
2054.58367 1.38523
2052.53523 1.38573
2050.48680 1.38610
2048.43836 1.38634
2046.38992 1.38623
2044.34148 1.38591
2042.29304 1.38631
2040.24460 1.38729
2038.19617 1.38776
2036.14773 1.38790
2034.09929 1.38815
2032.05085 1.38851
2030.00241 1.38921
2027.95397 1.39012
2025.90554 1.39072
2023.85710 1.39116
2021.80866 1.39166
2019.76022 1.39251
2017.71178 1.39385
2015.66334 1.39480
2013.61491 1.39524
2011.56647 1.39590
2009.51803 1.39664
2007.46959 1.39711
2005.42115 1.39777
2003.37271 1.39872
2001.32428 1.39941
1999.27584 1.39994
1997.22740 1.40075
1995.17896 1.40192
1993.13052 1.40373
1991.08208 1.40564
1989.03365 1.40678
1986.98521 1.40797
1984.93677 1.40942
1982.88833 1.41038
1980.83989 1.41068
1978.79145 1.41087
1976.74302 1.41132
1974.69458 1.41192
1972.64614 1.41252
1970.59770 1.41311
1968.54926 1.41441
1966.50082 1.41618
1964.45239 1.41693
1962.40395 1.41699
1960.35551 1.41764
1958.30707 1.41875
1956.25863 1.41984
1954.21019 1.42092
1952.16176 1.42207
1950.11332 1.42299
1948.06488 1.42367
1946.01644 1.42461
1943.96800 1.42617
1941.91956 1.42817
1939.87112 1.42926
1937.82269 1.42969
1935.77425 1.43023
1933.72581 1.43108
1931.67737 1.43198
1929.62893 1.43246
1927.58049 1.43290
1925.53206 1.43427
1923.48362 1.43661
1921.43518 1.43819
1919.38674 1.43920
1917.33830 1.44045
1915.28986 1.44065
1913.24143 1.44054
1911.19299 1.44210
1909.14455 1.44447
1907.09611 1.44580
1905.04767 1.44650
1902.99923 1.44725
1900.95080 1.44790
1898.90236 1.44890
1896.85392 1.45084
1894.80548 1.45271
1892.75704 1.45349
1890.70860 1.45414
1888.66017 1.45563
1886.61173 1.45731
1884.56329 1.45892
1882.51485 1.46043
1880.46641 1.46165
1878.41797 1.46285
1876.36954 1.46446
1874.32110 1.46612
1872.27266 1.46772
1870.22422 1.47070
1868.17578 1.47417
1866.12734 1.47502
1864.07891 1.47502
1862.03047 1.47619
1859.98203 1.47786
1857.93359 1.47916
1855.88515 1.48026
1853.83671 1.48186
1851.78828 1.48422
1849.73984 1.48712
1847.69140 1.49009
1845.64296 1.49305
1843.59452 1.49570
1841.54608 1.49626
1839.49765 1.49658
1837.44921 1.49799
1835.40077 1.49980
1833.35233 1.50196
1831.30389 1.50501
1829.25545 1.50820
1827.20702 1.51037
1825.15858 1.51229
1823.11014 1.51355
1821.06170 1.51450
1819.01326 1.51623
1816.96482 1.51874
1814.91639 1.52091
1812.86795 1.52302
1810.81951 1.52591
1808.77107 1.52915
1806.72263 1.53289
1804.67419 1.53794
1802.62575 1.54487
1800.57732 1.55145
1798.52888 1.55451
1796.48044 1.55539
1794.43200 1.55626
1792.38356 1.55667
1790.33512 1.55178
1788.28669 1.54274
1786.23825 1.53493
1784.18981 1.53121
1782.14137 1.53005
1780.09293 1.52758
1778.04449 1.52402
1775.99606 1.52294
1773.94762 1.52617
1771.89918 1.53310
1769.85074 1.53810
1767.80230 1.53967
1765.75386 1.54040
1763.70543 1.54257
1761.65699 1.54691
1759.60855 1.55082
1757.56011 1.55419
1755.51167 1.55739
1753.46323 1.56166
1751.41480 1.57046
1749.36636 1.58023
1747.31792 1.58241
1745.26948 1.58175
1743.22104 1.58296
1741.17260 1.58576
1739.12417 1.58895
1737.07573 1.59251
1735.02729 1.60045
1732.97885 1.60577
1730.93041 1.60080
1728.88197 1.59696
1726.83354 1.59688
1724.78510 1.59920
1722.73666 1.60222
1720.68822 1.60810
1718.63978 1.62113
1716.59134 1.63195
1714.54291 1.62399
1712.49447 1.61676
1710.44603 1.61636
1708.39759 1.62044
1706.34915 1.62558
1704.30071 1.62671
1702.25228 1.62668
1700.20384 1.62986
1698.15540 1.63283
1696.10696 1.63112
1694.05852 1.62764
1692.01008 1.62624
1689.96165 1.62924
1687.91321 1.63420
1685.86477 1.64041
1683.81633 1.64720
1681.76789 1.64444
1679.71945 1.63990
1677.67102 1.63847
1675.62258 1.64135
1673.57414 1.64443
1671.52570 1.64712
1669.47726 1.64631
1667.42882 1.64094
1665.38038 1.63828
1663.33195 1.63943
1661.28351 1.63912
1659.23507 1.63712
1657.18663 1.63818
1655.13819 1.64264
1653.08975 1.64797
1651.04132 1.64419
1648.99288 1.64337
1646.94444 1.64324
1644.89600 1.63852
1642.84756 1.63280
1640.79912 1.62960
1638.75069 1.62873
1636.70225 1.62866
1634.65381 1.62179
1632.60537 1.61187
1630.55693 1.60567
1628.50849 1.59952
1626.46006 1.59294
1624.41162 1.58374
1622.36318 1.57171
1620.31474 1.56065
1618.26630 1.55108
1616.21786 1.53244
1614.16943 1.50986
1612.12099 1.48984
1610.07255 1.46679
1608.02411 1.43904
1605.97567 1.40699
1603.92723 1.37054
1601.87880 1.32701
1599.83036 1.27931
1597.78192 1.22621
1595.73348 1.16207
1593.68504 1.08635
1591.63660 1.00561
1589.58817 0.92242
1587.53973 0.84373
1585.49129 0.77885
1583.44285 0.73387
1581.39441 0.71179
1579.34597 0.70894
1577.29754 0.72466
1575.24910 0.75922
1573.20066 0.78657
1571.15222 0.81082
1569.10378 0.84094
1567.05534 0.85068
1565.00691 0.83186
1562.95847 0.80152
1560.91003 0.76540
1558.86159 0.67197
1556.81315 0.58964
1554.76471 0.55605
1552.71628 0.52614
1550.66784 0.49887
1548.61940 0.47512
1546.57096 0.45966
1544.52252 0.44909
1542.47408 0.43793
1540.42565 0.41856
1538.37721 0.39984
1536.32877 0.39219
1534.28033 0.38600
1532.23189 0.37802
1530.18345 0.37287
1528.13501 0.37091
1526.08658 0.37015
1524.03814 0.36945
1521.98970 0.36835
1519.94126 0.36640
1517.89282 0.36529
1515.84438 0.36470
1513.79595 0.36376
1511.74751 0.36431
1509.69907 0.36654
1507.65063 0.36844
1505.60219 0.36507
1503.55375 0.36205
1501.50532 0.36098
1499.45688 0.36119
1497.40844 0.36167
1495.36000 0.36036
1493.31156 0.35924
1491.26312 0.36055
1489.21469 0.36315
1487.16625 0.36187
1485.11781 0.35920
1483.06937 0.35791
1481.02093 0.35769
1478.97249 0.35783
1476.92406 0.35904
1474.87562 0.36170
1472.82718 0.36345
1470.77874 0.36191
1468.73030 0.36097
1466.68186 0.36450
1464.63343 0.37522
1462.58499 0.38901
1460.53655 0.40396
1458.48811 0.43531
1456.43967 0.49880
1454.39123 0.53929
1452.34280 0.56249
1450.29436 0.58685
1448.24592 0.61427
1446.19748 0.64060
1444.14904 0.66157
1442.10060 0.68041
1440.05217 0.69802
1438.00373 0.71631
1435.95529 0.73890
1433.90685 0.75474
1431.85841 0.76592
1429.80997 0.77836
1427.76154 0.78910
1425.71310 0.79778
1423.66466 0.80660
1421.61622 0.81487
1419.56778 0.82519
1417.51934 0.83684
1415.47091 0.84318
1413.42247 0.84930
1411.37403 0.85725
1409.32559 0.86559
1407.27715 0.87352
1405.22871 0.88227
1403.18028 0.89007
1401.13184 0.89690
1399.08340 0.90538
1397.03496 0.91388
1394.98652 0.92077
1392.93808 0.92536
1390.88965 0.92892
1388.84121 0.93386
1386.79277 0.94051
1384.74433 0.94552
1382.69589 0.94996
1380.64745 0.95536
1378.59901 0.96108
1376.55058 0.96682
1374.50214 0.97290
1372.45370 0.97761
1370.40526 0.98081
1368.35682 0.98457
1366.30838 0.98851
1364.25995 0.99353
1362.21151 0.99895
1360.16307 1.00220
1358.11463 1.00441
1356.06619 1.00741
1354.01775 1.01082
1351.96932 1.01415
1349.92088 1.01759
1347.87244 1.02082
1345.82400 1.02406
1343.77556 1.02773
1341.72712 1.03279
1339.67869 1.03818
1337.63025 1.04114
1335.58181 1.04222
1333.53337 1.04388
1331.48493 1.04625
1329.43649 1.04885
1327.38806 1.05152
1325.33962 1.05424
1323.29118 1.05720
1321.24274 1.06030
1319.19430 1.06353
1317.14586 1.06628
1315.09743 1.06881
1313.04899 1.07111
1311.00055 1.07303
1308.95211 1.07480
1306.90367 1.07665
1304.85523 1.07864
1302.80680 1.08093
1300.75836 1.08330
1298.70992 1.08545
1296.66148 1.08765
1294.61304 1.08980
1292.56460 1.09197
1290.51617 1.09410
1288.46773 1.09621
1286.41929 1.09789
1284.37085 1.09925
1282.32241 1.10060
1280.27397 1.10198
1278.22554 1.10343
1276.17710 1.10505
1274.12866 1.10704
1272.08022 1.10923
1270.03178 1.11120
1267.98334 1.11245
1265.93491 1.11359
1263.88647 1.11518
1261.83803 1.11708
1259.78959 1.11878
1257.74115 1.12024
1255.69271 1.12186
1253.64428 1.12372
1251.59584 1.12544
1249.54740 1.12669
1247.49896 1.12776
1245.45052 1.12900
1243.40208 1.13045
1241.35364 1.13180
1239.30521 1.13308
1237.25677 1.13444
1235.20833 1.13581
1233.15989 1.13711
1231.11145 1.13839
1229.06301 1.13984
1227.01458 1.14161
1224.96614 1.14352
1222.91770 1.14506
1220.86926 1.14624
1218.82082 1.14729
1216.77238 1.14833
1214.72395 1.14943
1212.67551 1.15061
1210.62707 1.15165
1208.57863 1.15254
1206.53019 1.15350
1204.48175 1.15476
1202.43332 1.15634
1200.38488 1.15793
1198.33644 1.15931
1196.28800 1.16041
1194.23956 1.16137
1192.19112 1.16233
1190.14269 1.16345
1188.09425 1.16455
1186.04581 1.16531
1183.99737 1.16587
1181.94893 1.16651
1179.90049 1.16721
1177.85206 1.16798
1175.80362 1.16886
1173.75518 1.16944
1171.70674 1.16979
1169.65830 1.17039
1167.60986 1.17134
1165.56143 1.17242
1163.51299 1.17355
1161.46455 1.17489
1159.41611 1.17632
1157.36767 1.17757
1155.31923 1.17859
1153.27080 1.17947
1151.22236 1.18008
1149.17392 1.18053
1147.12548 1.18106
1145.07704 1.18181
1143.02860 1.18266
1140.98017 1.18333
1138.93173 1.18372
1136.88329 1.18414
1134.83485 1.18477
1132.78641 1.18543
1130.73797 1.18613
1128.68954 1.18693
1126.64110 1.18791
1124.59266 1.18913
1122.54422 1.19045
1120.49578 1.19153
1118.44734 1.19248
1116.39891 1.19347
1114.35047 1.19453
1112.30203 1.19560
1110.25359 1.19669
1108.20515 1.19771
1106.15671 1.19822
1104.10827 1.19873
1102.05984 1.19978
1100.01140 1.20156
1097.96296 1.20384
1095.91452 1.20702
1093.86608 1.21153
1091.81764 1.21823
1089.76921 1.22924
1087.72077 1.23920
1085.67233 1.20015
1083.62389 1.11302
1081.57545 1.07332
1079.52701 1.10137
1077.47858 1.13714
1075.43014 1.15225
1073.38170 1.15835
1071.33326 1.16129
1069.28482 1.16255
1067.23638 1.16219
1065.18795 1.16084
1063.13951 1.15929
1061.09107 1.15771
1059.04263 1.15536
1056.99419 1.15247
1054.94575 1.14938
1052.89732 1.14639
1050.84888 1.14303
1048.80044 1.13911
1046.75200 1.13456
1044.70356 1.12983
1042.65512 1.12498
1040.60669 1.11981
1038.55825 1.11489
1036.50981 1.11007
1034.46137 1.10449
1032.41293 1.09795
1030.36449 1.09108
1028.31606 1.08376
1026.26762 1.07610
1024.21918 1.06827
1022.17074 1.06034
1020.12230 1.05219
1018.07386 1.04424
1016.02543 1.03709
1013.97699 1.03096
1011.92855 1.02607
1009.88011 1.02222
1007.83167 1.01937
1005.78323 1.01772
1003.73480 1.01735
1001.68636 1.01804
999.63792 1.01970
997.58948 1.02215
995.54104 1.02533
993.49260 1.02943
991.44417 1.03434
989.39573 1.03982
987.34729 1.04596
985.29885 1.05287
983.25041 1.06012
981.20197 1.06770
979.15354 1.07561
977.10510 1.08345
975.05666 1.09071
973.00822 1.09734
970.95978 1.10343
968.91134 1.10879
966.86290 1.11351
964.81447 1.11785
962.76603 1.12185
960.71759 1.12545
958.66915 1.12856
956.62071 1.13140
954.57227 1.13451
952.52384 1.13777
950.47540 1.14147
948.42696 1.14614
946.37852 1.15168
944.33008 1.15749
942.28164 1.16318
940.23321 1.16895
938.18477 1.17531
936.13633 1.18253
934.08789 1.19078
932.03945 1.20016
929.99101 1.20989
927.94258 1.21929
925.89414 1.22841
923.84570 1.23739
921.79726 1.24601
919.74882 1.25472
917.70038 1.26382
915.65195 1.27277
913.60351 1.28158
911.55507 1.29002
909.50663 1.29615
907.45819 1.30012
905.40975 1.30548
903.36132 1.31281
901.31288 1.31979
899.26444 1.32569
897.21600 1.33076
895.16756 1.33419
893.11912 1.33443
891.07069 1.32914
889.02225 1.31486
886.97381 1.28544
884.92537 1.22698
882.87693 1.11095
880.82849 0.91297
878.78006 0.68387
876.73162 0.50591
874.68318 0.40503
872.63474 0.35928
870.58630 0.33788
868.53786 0.32478
866.48943 0.31575
864.44099 0.30983
862.39255 0.30659
860.34411 0.30599
858.29567 0.30909
856.24723 0.32191
854.19880 0.36149
852.15036 0.44576
850.10192 0.56561
848.05348 0.68218
846.00504 0.75831
843.95660 0.78592
841.90817 0.80243
839.85973 0.83605
837.81129 0.87302
835.76285 0.90182
833.71441 0.92521
831.66597 0.94489
829.61753 0.96175
827.56910 0.97693
825.52066 0.99061
823.47222 1.00283
821.42378 1.01405
819.37534 1.02402
817.32690 1.03218
815.27847 1.03942
813.23003 1.04736
811.18159 1.05557
809.13315 1.06257
807.08471 1.06802
805.03627 1.07285
802.98784 1.07802
800.93940 1.08401
798.89096 1.09048
796.84252 1.09666
794.79408 1.10167
792.74564 1.10564
790.69721 1.10945
788.64877 1.11330
786.60033 1.11711
784.55189 1.12110
782.50345 1.12504
780.45501 1.12847
778.40658 1.13211
776.35814 1.13609
774.30970 1.13961
772.26126 1.14276
770.21282 1.14644
768.16438 1.15002
766.11595 1.15284
764.06751 1.15584
762.01907 1.15952
759.97063 1.16347
757.92219 1.16733
755.87375 1.17037
753.82532 1.17276
751.77688 1.17576
749.72844 1.18014
747.68000 1.18520
745.63156 1.18923
743.58312 1.19262
741.53469 1.19645
739.48625 1.20094
737.43781 1.20540
735.38937 1.21003
733.34093 1.21503
731.29249 1.22113
729.24406 1.22861
727.19562 1.23763
725.14718 1.25052
723.09874 1.27021
721.05030 1.29903
719.00186 1.32881
716.95343 1.26345
714.90499 1.07011
712.85655 0.94140
710.80811 0.95479
708.75967 1.03968
706.71123 1.10354
704.66280 1.13884
702.61436 1.15412
700.56592 1.14689
698.51748 1.13807
696.46904 1.14602
694.42060 1.16041
692.37216 1.16957
690.32373 1.17413
688.27529 1.17795
686.22685 1.18190
684.17841 1.18583
682.12997 1.18972
680.08153 1.19279
678.03310 1.19334
675.98466 1.19148
673.93622 1.19156
671.88778 1.19570
669.83934 1.20421
667.79090 1.20612
665.74247 1.19791
663.69403 1.19315
661.64559 1.19375
659.59715 1.19772
657.54871 1.20157
655.50027 1.20441
653.45184 1.20619
651.40340 1.20774
649.35496 1.20912
647.30652 1.20960
645.25808 1.20829
643.20964 1.20670
641.16121 1.20625
639.11277 1.20989
637.06433 1.21556
635.01589 1.21854
632.96745 1.21840
630.91901 1.21819
628.87058 1.22065
626.82214 1.22468
624.77370 1.22781
622.72526 1.22749
620.67682 1.22913
618.62838 1.23572
616.57995 1.24402
614.53151 1.24933
612.48307 1.24726
610.43463 1.23980
608.38619 1.23458
606.33775 1.23904
604.28932 1.25683
602.24088 1.27540
600.19244 1.27709
598.14400 1.26995
