3996.50324 2.08140
3994.45480 2.08588
3992.40636 2.08711
3990.35792 2.08831
3988.30948 2.08968
3986.26104 2.09009
3984.21261 2.08864
3982.16417 2.08724
3980.11573 2.08780
3978.06729 2.08815
3976.01885 2.08854
3973.97041 2.08927
3971.92198 2.08951
3969.87354 2.09110
3967.82510 2.09354
3965.77666 2.09399
3963.72822 2.09367
3961.67978 2.09667
3959.63135 2.09880
3957.58291 2.09472
3955.53447 2.08802
3953.48603 2.08107
3951.43759 2.07544
3949.38915 2.07515
3947.34072 2.07794
3945.29228 2.07616
3943.24384 2.07291
3941.19540 2.07241
3939.14696 2.06989
3937.09852 2.06749
3935.05009 2.06713
3933.00165 2.06697
3930.95321 2.06925
3928.90477 2.06793
3926.85633 2.06130
3924.80789 2.06034
3922.75946 2.06419
3920.71102 2.06165
3918.66258 2.05498
3916.61414 2.05385
3914.56570 2.05437
3912.51726 2.04968
3910.46883 2.04369
3908.42039 2.03660
3906.37195 2.02992
3904.32351 2.03191
3902.27507 2.03774
3900.22663 2.04187
3898.17820 2.04710
3896.12976 2.04094
3894.08132 2.02563
3892.03288 2.02115
3889.98444 2.02921
3887.93600 2.02388
3885.88756 2.01333
3883.83913 2.01211
3881.79069 2.01058
3879.74225 2.01567
3877.69381 2.01292
3875.64537 1.99599
3873.59693 1.98761
3871.54850 1.98952
3869.50006 1.99989
3867.45162 2.00704
3865.40318 2.00204
3863.35474 2.00364
3861.30630 2.00475
3859.25787 1.99504
3857.20943 1.97738
3855.16099 1.95864
3853.11255 1.98371
3851.06411 2.01906
3849.01567 2.00780
3846.96724 1.98672
3844.91880 1.97271
3842.87036 1.96916
3840.82192 1.97076
3838.77348 1.97985
3836.72504 1.99719
3834.67661 2.00042
3832.62817 1.99079
3830.57973 1.98371
3828.53129 1.98164
3826.48285 1.97978
3824.43441 1.97204
3822.38598 1.96554
3820.33754 1.98640
3818.28910 2.00108
3816.24066 2.00053
3814.19222 2.00374
3812.14378 1.99499
3810.09535 1.97871
3808.04691 1.97060
3805.99847 1.97905
3803.95003 1.97905
3801.90159 1.98039
3799.85315 2.00371
3797.80472 2.00926
3795.75628 2.00607
3793.70784 2.00444
3791.65940 1.99839
3789.61096 1.99274
3787.56252 1.98908
3785.51409 1.98961
3783.46565 1.99138
3781.41721 1.98726
3779.36877 1.99125
3777.32033 2.00402
3775.27189 2.00303
3773.22346 1.99099
3771.17502 1.98323
3769.12658 1.99294
3767.07814 2.00782
3765.02970 2.01321
3762.98126 2.00837
3760.93283 1.99941
3758.88439 2.00356
3756.83595 2.01353
3754.78751 2.00581
3752.73907 1.98619
3750.69063 1.99228
3748.64219 2.02337
3746.59376 2.02631
3744.54532 2.02931
3742.49688 2.04300
3740.44844 2.03810
3738.40000 2.02390
3736.35156 2.02474
3734.30313 2.05755
3732.25469 2.08334
3730.20625 2.08342
3728.15781 2.07754
3726.10937 2.08352
3724.06093 2.10108
3722.01250 2.11374
3719.96406 2.12154
3717.91562 2.12744
3715.86718 2.12781
3713.81874 2.12461
3711.77030 2.14225
3709.72187 2.18699
3707.67343 2.20948
3705.62499 2.21353
3703.57655 2.21690
3701.52811 2.23010
3699.47967 2.24245
3697.43124 2.24312
3695.38280 2.24261
3693.33436 2.24504
3691.28592 2.25029
3689.23748 2.26738
3687.18904 2.28124
3685.14061 2.28113
3683.09217 2.27782
3681.04373 2.27613
3678.99529 2.27142
3676.94685 2.26140
3674.89841 2.26940
3672.84998 2.28307
3670.80154 2.28943
3668.75310 2.29985
3666.70466 2.29764
3664.65622 2.29081
3662.60778 2.28967
3660.55935 2.29144
3658.51091 2.29736
3656.46247 2.31017
3654.41403 2.31480
3652.36559 2.30307
3650.31715 2.29196
3648.26872 2.31889
3646.22028 2.34236
3644.17184 2.33485
3642.12340 2.32332
3640.07496 2.32112
3638.02652 2.32348
3635.97809 2.32570
3633.92965 2.33005
3631.88121 2.33559
3629.83277 2.34640
3627.78433 2.35854
3625.73589 2.35975
3623.68746 2.35967
3621.63902 2.35257
3619.59058 2.34082
3617.54214 2.34380
3615.49370 2.35087
3613.44526 2.35102
3611.39682 2.34921
3609.34839 2.34965
3607.29995 2.35110
3605.25151 2.35270
3603.20307 2.35730
3601.15463 2.36582
3599.10619 2.37138
3597.05776 2.36865
3595.00932 2.36802
3592.96088 2.37486
3590.91244 2.37903
3588.86400 2.37966
3586.81556 2.38166
3584.76713 2.38216
3582.71869 2.37721
3580.67025 2.37026
3578.62181 2.36817
3576.57337 2.36963
3574.52493 2.36834
3572.47650 2.36282
3570.42806 2.35744
3568.37962 2.35792
3566.33118 2.36636
3564.28274 2.36826
3562.23430 2.36247
3560.18587 2.35858
3558.13743 2.35815
3556.08899 2.36049
3554.04055 2.36256
3551.99211 2.36178
3549.94367 2.36320
3547.89524 2.36815
3545.84680 2.37152
3543.79836 2.37097
3541.74992 2.36868
3539.70148 2.36674
3537.65304 2.36515
3535.60461 2.36287
3533.55617 2.36358
3531.50773 2.36885
3529.45929 2.37289
3527.41085 2.36846
3525.36241 2.35825
3523.31398 2.35533
3521.26554 2.36420
3519.21710 2.37291
3517.16866 2.37472
3515.12022 2.37148
3513.07178 2.36520
3511.02335 2.36082
3508.97491 2.35950
3506.92647 2.36024
3504.87803 2.36464
3502.82959 2.37001
3500.78115 2.37052
3498.73272 2.37027
3496.68428 2.37456
3494.63584 2.37686
3492.58740 2.37056
3490.53896 2.36115
3488.49052 2.35709
3486.44209 2.35675
3484.39365 2.35751
3482.34521 2.36200
3480.29677 2.36625
3478.24833 2.36374
3476.19989 2.35621
3474.15146 2.35287
3472.10302 2.35544
3470.05458 2.35598
3468.00614 2.35602
3465.95770 2.36314
3463.90926 2.37081
3461.86082 2.36876
3459.81239 2.36676
3457.76395 2.37131
3455.71551 2.37136
3453.66707 2.36558
3451.61863 2.36022
3449.57019 2.35738
3447.52176 2.36247
3445.47332 2.37122
3443.42488 2.37130
3441.37644 2.36787
3439.32800 2.37000
3437.27956 2.37579
3435.23113 2.38029
3433.18269 2.37790
3431.13425 2.36879
3429.08581 2.36086
3427.03737 2.35620
3424.98893 2.35526
3422.94050 2.36016
3420.89206 2.36452
3418.84362 2.36303
3416.79518 2.36224
3414.74674 2.36489
3412.69830 2.36766
3410.64987 2.36901
3408.60143 2.36721
3406.55299 2.36441
3404.50455 2.36536
3402.45611 2.36989
3400.40767 2.37442
3398.35924 2.37743
3396.31080 2.37877
3394.26236 2.37572
3392.21392 2.37046
3390.16548 2.37170
3388.11704 2.38074
3386.06861 2.38758
3384.02017 2.38333
3381.97173 2.37251
3379.92329 2.36674
3377.87485 2.36913
3375.82641 2.37421
3373.77798 2.37932
3371.72954 2.38188
3369.68110 2.37951
3367.63266 2.37472
3365.58422 2.36784
3363.53578 2.36241
3361.48735 2.36586
3359.43891 2.37204
3357.39047 2.37094
3355.34203 2.36800
3353.29359 2.37026
3351.24515 2.37346
3349.19672 2.36932
3347.14828 2.36189
3345.09984 2.36051
3343.05140 2.36429
3341.00296 2.37019
3338.95452 2.37529
3336.90609 2.37979
3334.85765 2.38332
3332.80921 2.37710
3330.76077 2.36494
3328.71233 2.36047
3326.66389 2.36514
3324.61545 2.37280
3322.56702 2.37823
3320.51858 2.38024
3318.47014 2.38109
3316.42170 2.37923
3314.37326 2.37541
3312.32482 2.37645
3310.27639 2.38237
3308.22795 2.38606
3306.17951 2.38472
3304.13107 2.38216
3302.08263 2.37855
3300.03419 2.37202
3297.98576 2.36840
3295.93732 2.37186
3293.88888 2.37869
3291.84044 2.38313
3289.79200 2.38316
3287.74356 2.38321
3285.69513 2.38414
3283.64669 2.37993
3281.59825 2.37254
3279.54981 2.37190
3277.50137 2.37626
3275.45293 2.37696
3273.40450 2.37421
3271.35606 2.37238
3269.30762 2.37175
3267.25918 2.37039
3265.21074 2.37058
3263.16230 2.37363
3261.11387 2.37684
3259.06543 2.37832
3257.01699 2.37892
3254.96855 2.38177
3252.92011 2.38499
3250.87167 2.38411
3248.82324 2.38059
3246.77480 2.37854
3244.72636 2.37548
3242.67792 2.36995
3240.62948 2.36920
3238.58104 2.37187
3236.53261 2.37160
3234.48417 2.36998
3232.43573 2.36895
3230.38729 2.37141
3228.33885 2.37721
3226.29041 2.38031
3224.24198 2.37878
3222.19354 2.37423
3220.14510 2.36866
3218.09666 2.36406
3216.04822 2.36386
3213.99978 2.37060
3211.95135 2.37922
3209.90291 2.38135
3207.85447 2.37698
3205.80603 2.37153
3203.75759 2.36992
3201.70915 2.37598
3199.66072 2.38355
3197.61228 2.38337
3195.56384 2.38058
3193.51540 2.38359
3191.46696 2.38772
3189.41852 2.38800
3187.37008 2.38565
3185.32165 2.38264
3183.27321 2.38277
3181.22477 2.38261
3179.17633 2.38091
3177.12789 2.38313
3175.07945 2.38354
3173.03102 2.37831
3170.98258 2.37613
3168.93414 2.37706
3166.88570 2.37638
3164.83726 2.37645
3162.78882 2.37655
3160.74039 2.37676
3158.69195 2.37616
3156.64351 2.37314
3154.59507 2.37256
3152.54663 2.37546
3150.49819 2.37930
3148.44976 2.38258
3146.40132 2.38320
3144.35288 2.38271
3142.30444 2.38044
3140.25600 2.37226
3138.20756 2.36504
3136.15913 2.36416
3134.11069 2.36574
3132.06225 2.36762
3130.01381 2.36801
3127.96537 2.36792
3125.91693 2.36784
3123.86850 2.36751
3121.82006 2.37059
3119.77162 2.37652
3117.72318 2.37990
3115.67474 2.37843
3113.62630 2.37416
3111.57787 2.37093
3109.52943 2.37117
3107.48099 2.37309
3105.43255 2.37438
3103.38411 2.37426
3101.33567 2.37204
3099.28724 2.36964
3097.23880 2.36933
3095.19036 2.37182
3093.14192 2.37457
3091.09348 2.37308
3089.04504 2.37020
3086.99661 2.37005
3084.94817 2.36989
3082.89973 2.36859
3080.85129 2.36959
3078.80285 2.37211
3076.75441 2.37196
3074.70598 2.37104
3072.65754 2.37121
3070.60910 2.37011
3068.56066 2.36910
3066.51222 2.36944
3064.46378 2.36924
3062.41535 2.37112
3060.36691 2.37463
3058.31847 2.37394
3056.27003 2.37116
3054.22159 2.36849
3052.17315 2.36497
3050.12471 2.36504
3048.07628 2.36836
3046.02784 2.36821
3043.97940 2.36593
3041.93096 2.36837
3039.88252 2.37286
3037.83408 2.37344
3035.78565 2.37361
3033.73721 2.37518
3031.68877 2.37398
3029.64033 2.37051
3027.59189 2.36904
3025.54345 2.36963
3023.49502 2.36789
3021.44658 2.36303
3019.39814 2.35796
3017.34970 2.35562
3015.30126 2.35950
3013.25282 2.36696
3011.20439 2.37267
3009.15595 2.37467
3007.10751 2.37002
3005.05907 2.36467
3003.01063 2.36642
3000.96219 2.36971
2998.91376 2.37028
2996.86532 2.36896
2994.81688 2.36614
2992.76844 2.36567
2990.72000 2.36959
2988.67156 2.37532
2986.62313 2.37904
2984.57469 2.37732
2982.52625 2.37293
2980.47781 2.37150
2978.42937 2.37377
2976.38093 2.37684
2974.33250 2.37398
2972.28406 2.36640
2970.23562 2.36498
2968.18718 2.37128
2966.13874 2.37905
2964.09030 2.38217
2962.04187 2.37977
2959.99343 2.37874
2957.94499 2.38225
2955.89655 2.38707
2953.84811 2.38933
2951.79967 2.38776
2949.75124 2.38419
2947.70280 2.38078
2945.65436 2.38250
2943.60592 2.39009
2941.55748 2.39338
2939.50904 2.38992
2937.46061 2.38872
2935.41217 2.39007
2933.36373 2.39040
2931.31529 2.39027
2929.26685 2.38981
2927.21841 2.39217
2925.16998 2.39529
2923.12154 2.39348
2921.07310 2.38862
2919.02466 2.38477
2916.97622 2.38455
2914.92778 2.38548
2912.87934 2.38214
2910.83091 2.37555
2908.78247 2.37186
2906.73403 2.37114
2904.68559 2.36871
2902.63715 2.36367
2900.58871 2.35886
2898.54028 2.35936
2896.49184 2.36466
2894.44340 2.36755
2892.39496 2.36737
2890.34652 2.36865
2888.29808 2.37004
2886.24965 2.36922
2884.20121 2.36610
2882.15277 2.36266
2880.10433 2.36330
2878.05589 2.36689
2876.00745 2.36864
2873.95902 2.36772
2871.91058 2.36560
2869.86214 2.36297
2867.81370 2.36058
2865.76526 2.36008
2863.71682 2.36055
2861.66839 2.35871
2859.61995 2.35972
2857.57151 2.36722
2855.52307 2.37292
2853.47463 2.37321
2851.42619 2.37082
2849.37776 2.36844
2847.32932 2.36682
2845.28088 2.36218
2843.23244 2.35149
2841.18400 2.33896
2839.13556 2.33284
2837.08713 2.33355
2835.03869 2.33326
2832.99025 2.32891
2830.94181 2.32610
2828.89337 2.32649
2826.84493 2.32712
2824.79650 2.32771
2822.74806 2.32701
2820.69962 2.32433
2818.65118 2.32097
2816.60274 2.31827
2814.55430 2.31910
2812.50587 2.32102
2810.45743 2.31965
2808.40899 2.31954
2806.36055 2.31997
2804.31211 2.31378
2802.26367 2.30604
2800.21524 2.30552
2798.16680 2.30968
2796.11836 2.31142
2794.06992 2.30936
2792.02148 2.30623
2789.97304 2.30335
2787.92461 2.30162
2785.87617 2.30152
2783.82773 2.30163
2781.77929 2.30055
2779.73085 2.29700
2777.68241 2.29274
2775.63397 2.29153
2773.58554 2.29334
2771.53710 2.29385
2769.48866 2.29101
2767.44022 2.28901
2765.39178 2.28916
2763.34334 2.28867
2761.29491 2.28764
2759.24647 2.28687
2757.19803 2.28537
2755.14959 2.28392
2753.10115 2.28417
2751.05271 2.28489
2749.00428 2.28582
2746.95584 2.28627
2744.90740 2.28374
2742.85896 2.28090
2740.81052 2.28150
2738.76208 2.28324
2736.71365 2.28255
2734.66521 2.27976
2732.61677 2.27723
2730.56833 2.27601
2728.51989 2.27511
2726.47145 2.27337
2724.42302 2.27337
2722.37458 2.27689
2720.32614 2.27919
2718.27770 2.27820
2716.22926 2.27784
2714.18082 2.27790
2712.13239 2.27532
2710.08395 2.27248
2708.03551 2.27144
2705.98707 2.26956
2703.93863 2.26756
2701.89019 2.26779
2699.84176 2.26813
2697.79332 2.26614
2695.74488 2.26439
2693.69644 2.26500
2691.64800 2.26646
2689.59956 2.26948
2687.55113 2.27353
2685.50269 2.27451
2683.45425 2.27248
2681.40581 2.27234
2679.35737 2.27646
2677.30893 2.28129
2675.26050 2.28381
2673.21206 2.28564
2671.16362 2.28700
2669.11518 2.28714
2667.06674 2.28902
2665.01830 2.29296
2662.96987 2.29607
2660.92143 2.29993
2658.87299 2.30593
2656.82455 2.30982
2654.77611 2.30899
2652.72767 2.30703
2650.67924 2.30707
2648.63080 2.30968
2646.58236 2.31527
2644.53392 2.32165
2642.48548 2.32524
2640.43704 2.32581
2638.38860 2.32641
2636.34017 2.32649
2634.29173 2.32412
2632.24329 2.32380
2630.19485 2.32701
2628.14641 2.32915
2626.09797 2.32887
2624.04954 2.32645
2622.00110 2.32318
2619.95266 2.32129
2617.90422 2.32115
2615.85578 2.32182
2613.80734 2.32032
2611.75891 2.31802
2609.71047 2.31834
2607.66203 2.31742
2605.61359 2.31361
2603.56515 2.31266
2601.51671 2.31597
2599.46828 2.31833
2597.41984 2.31691
2595.37140 2.31472
2593.32296 2.31627
2591.27452 2.31969
2589.22608 2.32141
2587.17765 2.32298
2585.12921 2.32455
2583.08077 2.32425
2581.03233 2.32288
2578.98389 2.32211
2576.93545 2.32285
2574.88702 2.32825
2572.83858 2.33626
2570.79014 2.33932
2568.74170 2.33862
2566.69326 2.33882
2564.64482 2.34005
2562.59639 2.34148
2560.54795 2.34354
2558.49951 2.34556
2556.45107 2.34527
2554.40263 2.34494
2552.35419 2.34977
2550.30576 2.35566
2548.25732 2.35561
2546.20888 2.35333
2544.16044 2.35057
2542.11200 2.34564
2540.06356 2.34183
2538.01513 2.34141
2535.96669 2.34443
2533.91825 2.35072
2531.86981 2.35835
2529.82137 2.36355
2527.77293 2.36421
2525.72450 2.36000
2523.67606 2.35305
2521.62762 2.34874
2519.57918 2.34888
2517.53074 2.34917
2515.48230 2.34443
2513.43387 2.33680
2511.38543 2.33454
2509.33699 2.34118
2507.28855 2.34886
2505.24011 2.34801
2503.19167 2.34608
2501.14324 2.35044
2499.09480 2.35080
2497.04636 2.34647
2494.99792 2.34809
2492.94948 2.35292
2490.90104 2.35379
2488.85260 2.34952
2486.80417 2.34226
2484.75573 2.33486
2482.70729 2.32707
2480.65885 2.32091
2478.61041 2.31914
2476.56197 2.31823
2474.51354 2.31503
2472.46510 2.31128
2470.41666 2.30525
2468.36822 2.29460
2466.31978 2.28502
2464.27134 2.28153
2462.22291 2.28084
2460.17447 2.27850
2458.12603 2.27530
2456.07759 2.27270
2454.02915 2.27070
2451.98071 2.26942
2449.93228 2.26568
2447.88384 2.25880
2445.83540 2.25646
2443.78696 2.26005
2441.73852 2.26238
2439.69008 2.26098
2437.64165 2.25806
2435.59321 2.25708
2433.54477 2.25839
2431.49633 2.25826
2429.44789 2.25618
2427.39945 2.25546
2425.35102 2.25575
2423.30258 2.25434
2421.25414 2.25186
2419.20570 2.24878
2417.15726 2.24558
2415.10882 2.24442
2413.06039 2.24499
2411.01195 2.24407
2408.96351 2.24164
2406.91507 2.24213
2404.86663 2.24600
2402.81819 2.24862
2400.76976 2.24918
2398.72132 2.24971
2396.67288 2.24981
2394.62444 2.24999
2392.57600 2.25185
2390.52756 2.25491
2388.47913 2.25616
2386.43069 2.25493
2384.38225 2.25468
2382.33381 2.25664
2380.28537 2.26109
2378.23693 2.26718
2376.18850 2.27093
2374.14006 2.27586
2372.09162 2.28446
2370.04318 2.29339
2367.99474 2.30985
2365.94630 2.32270
2363.89787 2.30756
2361.84943 2.29573
2359.80099 2.32442
2357.75255 2.35945
2355.70411 2.35563
2353.65567 2.32850
2351.60723 2.30592
2349.55880 2.29268
2347.51036 2.28341
2345.46192 2.27932
2343.41348 2.28432
2341.36504 2.30205
2339.31660 2.32637
2337.26817 2.33501
2335.21973 2.32637
2333.17129 2.31480
2331.12285 2.30080
2329.07441 2.28180
2327.02597 2.27235
2324.97754 2.27560
2322.92910 2.27784
2320.88066 2.27751
2318.83222 2.27716
2316.78378 2.27481
2314.73534 2.27165
2312.68691 2.26971
2310.63847 2.27016
2308.59003 2.27070
2306.54159 2.26675
2304.49315 2.26187
2302.44471 2.26017
2300.39628 2.25531
2298.34784 2.24522
2296.29940 2.23625
2294.25096 2.23138
2292.20252 2.22915
2290.15408 2.22631
2288.10565 2.22185
2286.05721 2.21824
2284.00877 2.21731
2281.96033 2.21903
2279.91189 2.22271
2277.86345 2.22637
2275.81502 2.22910
2273.76658 2.22955
2271.71814 2.22675
2269.66970 2.22564
2267.62126 2.22844
2265.57282 2.23261
2263.52439 2.23770
2261.47595 2.24277
2259.42751 2.24436
2257.37907 2.24246
2255.33063 2.24203
2253.28219 2.24297
2251.23376 2.24291
2249.18532 2.24363
2247.13688 2.24521
2245.08844 2.24517
2243.04000 2.24455
2240.99156 2.24513
2238.94313 2.24466
2236.89469 2.24290
2234.84625 2.24332
2232.79781 2.24418
2230.74937 2.24120
2228.70093 2.23835
2226.65250 2.23979
2224.60406 2.24421
2222.55562 2.24829
2220.50718 2.24988
2218.45874 2.25250
2216.41030 2.25607
2214.36186 2.25670
2212.31343 2.25696
2210.26499 2.26053
2208.21655 2.26654
2206.16811 2.27228
2204.11967 2.27491
2202.07123 2.27458
2200.02280 2.27374
2197.97436 2.27296
2195.92592 2.27185
2193.87748 2.27153
2191.82904 2.27543
2189.78060 2.28200
2187.73217 2.28570
2185.68373 2.28747
2183.63529 2.28956
2181.58685 2.29165
2179.53841 2.29449
2177.48997 2.29544
2175.44154 2.29206
2173.39310 2.28895
2171.34466 2.29069
2169.29622 2.29545
2167.24778 2.29810
2165.19934 2.29907
2163.15091 2.30220
2161.10247 2.30678
2159.05403 2.31078
2157.00559 2.31476
2154.95715 2.31879
2152.90871 2.32169
2150.86028 2.32201
2148.81184 2.31873
2146.76340 2.31432
2144.71496 2.31105
2142.66652 2.30966
2140.61808 2.30964
2138.56965 2.30885
2136.52121 2.30645
2134.47277 2.30480
2132.42433 2.30563
2130.37589 2.30555
2128.32745 2.30452
2126.27902 2.30457
2124.23058 2.30333
2122.18214 2.30047
2120.13370 2.29892
2118.08526 2.29969
2116.03682 2.29918
2113.98839 2.29614
2111.93995 2.29301
2109.89151 2.28783
2107.84307 2.28042
2105.79463 2.27483
2103.74619 2.26918
2101.69776 2.26026
2099.64932 2.24990
2097.60088 2.24028
2095.55244 2.23392
2093.50400 2.23204
2091.45556 2.23135
2089.40713 2.22976
2087.35869 2.22741
2085.31025 2.22343
2083.26181 2.22043
2081.21337 2.22167
2079.16493 2.22370
2077.11649 2.22433
2075.06806 2.22616
2073.01962 2.22758
2070.97118 2.22658
2068.92274 2.22507
2066.87430 2.22410
2064.82586 2.22377
2062.77743 2.22347
2060.72899 2.22334
2058.68055 2.22585
2056.63211 2.22963
2054.58367 2.23123
2052.53523 2.23080
2050.48680 2.22870
2048.43836 2.22685
2046.38992 2.22698
2044.34148 2.22636
2042.29304 2.22470
2040.24460 2.22475
2038.19617 2.22622
2036.14773 2.22818
2034.09929 2.22950
2032.05085 2.22857
2030.00241 2.22799
2027.95397 2.23002
2025.90554 2.23236
2023.85710 2.23401
2021.80866 2.23561
2019.76022 2.23719
2017.71178 2.23938
2015.66334 2.24150
2013.61491 2.24197
2011.56647 2.24215
2009.51803 2.24489
2007.46959 2.24852
2005.42115 2.24958
2003.37271 2.24877
2001.32428 2.24929
1999.27584 2.25270
1997.22740 2.25572
1995.17896 2.25696
1993.13052 2.25930
1991.08208 2.26277
1989.03365 2.26559
1986.98521 2.26810
1984.93677 2.27134
1982.88833 2.27759
1980.83989 2.28440
1978.79145 2.28422
1976.74302 2.27956
1974.69458 2.27786
1972.64614 2.27990
1970.59770 2.28295
1968.54926 2.28461
1966.50082 2.28600
1964.45239 2.28776
1962.40395 2.28911
1960.35551 2.29081
1958.30707 2.29235
1956.25863 2.29351
1954.21019 2.29489
1952.16176 2.29514
1950.11332 2.29492
1948.06488 2.29877
1946.01644 2.30542
1943.96800 2.30949
1941.91956 2.31234
1939.87112 2.31510
1937.82269 2.31585
1935.77425 2.31443
1933.72581 2.31298
1931.67737 2.31322
1929.62893 2.31353
1927.58049 2.31418
1925.53206 2.31778
1923.48362 2.32529
1921.43518 2.33095
1919.38674 2.33168
1917.33830 2.33375
1915.28986 2.33784
1913.24143 2.34155
1911.19299 2.34466
1909.14455 2.34627
1907.09611 2.34756
1905.04767 2.35036
1902.99923 2.35414
1900.95080 2.35733
1898.90236 2.35981
1896.85392 2.36292
1894.80548 2.36823
1892.75704 2.37230
1890.70860 2.37454
1888.66017 2.37904
1886.61173 2.38352
1884.56329 2.38899
1882.51485 2.39465
1880.46641 2.39606
1878.41797 2.39691
1876.36954 2.40041
1874.32110 2.40535
1872.27266 2.41072
1870.22422 2.41582
1868.17578 2.42140
1866.12734 2.42734
1864.07891 2.43266
1862.03047 2.43802
1859.98203 2.44221
1857.93359 2.44639
1855.88515 2.45269
1853.83671 2.45945
1851.78828 2.46591
1849.73984 2.47166
1847.69140 2.47371
1845.64296 2.47590
1843.59452 2.48794
1841.54608 2.49661
1839.49765 2.49608
1837.44921 2.49789
1835.40077 2.50321
1833.35233 2.50491
1831.30389 2.50645
1829.25545 2.51873
1827.20702 2.53426
1825.15858 2.54138
1823.11014 2.54198
1821.06170 2.54103
1819.01326 2.54376
1816.96482 2.55015
1814.91639 2.55185
1812.86795 2.55063
1810.81951 2.55607
1808.77107 2.56507
1806.72263 2.56899
1804.67419 2.56944
1802.62575 2.57478
1800.57732 2.58628
1798.52888 2.59085
1796.48044 2.58675
1794.43200 2.58775
1792.38356 2.59781
1790.33512 2.59952
1788.28669 2.59219
1786.23825 2.58749
1784.18981 2.58343
1782.14137 2.57299
1780.09293 2.56300
1778.04449 2.56178
1775.99606 2.56563
1773.94762 2.57186
1771.89918 2.57545
1769.85074 2.57098
1767.80230 2.56814
1765.75386 2.57203
1763.70543 2.58350
1761.65699 2.60193
1759.60855 2.61446
1757.56011 2.62163
1755.51167 2.63170
1753.46323 2.64184
1751.41480 2.65612
1749.36636 2.67919
1747.31792 2.68398
1745.26948 2.66501
1743.22104 2.65186
1741.17260 2.65443
1739.12417 2.65921
1737.07573 2.66219
1735.02729 2.67651
1732.97885 2.68852
1730.93041 2.67585
1728.88197 2.67084
1726.83354 2.67868
1724.78510 2.68043
1722.73666 2.67268
1720.68822 2.67539
1718.63978 2.69754
1716.59134 2.71544
1714.54291 2.70430
1712.49447 2.69547
1710.44603 2.69382
1708.39759 2.69815
1706.34915 2.71117
1704.30071 2.72693
1702.25228 2.73325
1700.20384 2.72752
1698.15540 2.71759
1696.10696 2.70880
1694.05852 2.70436
1692.01008 2.70674
1689.96165 2.71545
1687.91321 2.72182
1685.86477 2.71786
1683.81633 2.70968
1681.76789 2.71268
1679.71945 2.71762
1677.67102 2.71759
1675.62258 2.71912
1673.57414 2.72521
1671.52570 2.73437
1669.47726 2.74188
1667.42882 2.73662
1665.38038 2.72499
1663.33195 2.71785
1661.28351 2.72282
1659.23507 2.73173
1657.18663 2.73914
1655.13819 2.74473
1653.08975 2.74350
1651.04132 2.74427
1648.99288 2.74753
1646.94444 2.73241
1644.89600 2.71597
1642.84756 2.71736
1640.79912 2.72267
1638.75069 2.71893
1636.70225 2.70366
1634.65381 2.69183
1632.60537 2.69112
1630.55693 2.69381
1628.50849 2.68888
1626.46006 2.67546
1624.41162 2.66273
1622.36318 2.64723
1620.31474 2.63007
1618.26630 2.61660
1616.21786 2.59444
1614.16943 2.56541
1612.12099 2.54049
1610.07255 2.51926
1608.02411 2.49224
1605.97567 2.45333
1603.92723 2.41121
1601.87880 2.36587
1599.83036 2.31885
1597.78192 2.26858
1595.73348 2.20736
1593.68504 2.13465
1591.63660 2.05964
1589.58817 1.98496
1587.53973 1.91487
1585.49129 1.85713
1583.44285 1.81670
1581.39441 1.79549
1579.34597 1.79110
1577.29754 1.80379
1575.24910 1.83368
1573.20066 1.85779
1571.15222 1.87968
1569.10378 1.90556
1567.05534 1.90842
1565.00691 1.88208
1562.95847 1.84632
1560.91003 1.80943
1558.86159 1.71595
1556.81315 1.62832
1554.76471 1.59180
1552.71628 1.56171
1550.66784 1.53703
1548.61940 1.51703
1546.57096 1.50433
1544.52252 1.49715
1542.47408 1.49270
1540.42565 1.48440
1538.37721 1.47055
1536.32877 1.46321
1534.28033 1.45944
1532.23189 1.45492
1530.18345 1.45050
1528.13501 1.44810
1526.08658 1.44643
1524.03814 1.44508
1521.98970 1.44418
1519.94126 1.44054
1517.89282 1.43711
1515.84438 1.43493
1513.79595 1.43229
1511.74751 1.43126
1509.69907 1.43276
1507.65063 1.43432
1505.60219 1.42652
1503.55375 1.41942
1501.50532 1.41632
1499.45688 1.41589
1497.40844 1.41612
1495.36000 1.41344
1493.31156 1.41067
1491.26312 1.41152
1489.21469 1.41504
1487.16625 1.41343
1485.11781 1.40903
1483.06937 1.40643
1481.02093 1.40608
1478.97249 1.40700
1476.92406 1.40950
1474.87562 1.41422
1472.82718 1.41921
1470.77874 1.41981
1468.73030 1.41963
1466.68186 1.42415
1464.63343 1.43557
1462.58499 1.44846
1460.53655 1.46269
1458.48811 1.49778
1456.43967 1.57270
1454.39123 1.61867
1452.34280 1.64397
1450.29436 1.67135
1448.24592 1.70174
1446.19748 1.72968
1444.14904 1.75108
1442.10060 1.77072
1440.05217 1.79003
1438.00373 1.80995
1435.95529 1.83348
1433.90685 1.84960
1431.85841 1.86086
1429.80997 1.87374
1427.76154 1.88599
1425.71310 1.89642
1423.66466 1.90630
1421.61622 1.91453
1419.56778 1.92380
1417.51934 1.93478
1415.47091 1.94183
1413.42247 1.94888
1411.37403 1.95715
1409.32559 1.96468
1407.27715 1.97116
1405.22871 1.97895
1403.18028 1.98564
1401.13184 1.99240
1399.08340 2.00372
1397.03496 2.01559
1394.98652 2.02442
1392.93808 2.03045
1390.88965 2.03544
1388.84121 2.04261
1386.79277 2.05253
1384.74433 2.06018
1382.69589 2.06620
1380.64745 2.07212
1378.59901 2.07691
1376.55058 2.08165
1374.50214 2.08737
1372.45370 2.09013
1370.40526 2.09064
1368.35682 2.09353
1366.30838 2.09831
1364.25995 2.10435
1362.21151 2.10930
1360.16307 2.11235
1358.11463 2.11581
1356.06619 2.11948
1354.01775 2.12329
1351.96932 2.12726
1349.92088 2.12959
1347.87244 2.13140
1345.82400 2.13406
1343.77556 2.13530
1341.72712 2.13790
1339.67869 2.14382
1337.63025 2.14738
1335.58181 2.14838
1333.53337 2.15114
1331.48493 2.15328
1329.43649 2.15431
1327.38806 2.15724
1325.33962 2.16052
1323.29118 2.16304
1321.24274 2.16756
1319.19430 2.17269
1317.14586 2.17399
1315.09743 2.17488
1313.04899 2.17796
1311.00055 2.18234
1308.95211 2.18684
1306.90367 2.18868
1304.85523 2.18767
1302.80680 2.18735
1300.75836 2.19018
1298.70992 2.19515
1296.66148 2.19972
1294.61304 2.20234
1292.56460 2.20385
1290.51617 2.20519
1288.46773 2.20713
1286.41929 2.21041
1284.37085 2.21372
1282.32241 2.21473
1280.27397 2.21451
1278.22554 2.21581
1276.17710 2.21815
1274.12866 2.21906
1272.08022 2.21877
1270.03178 2.21930
1267.98334 2.21984
1265.93491 2.22025
1263.88647 2.22147
1261.83803 2.22370
1259.78959 2.22700
1257.74115 2.22952
1255.69271 2.23179
1253.64428 2.23588
1251.59584 2.23980
1249.54740 2.24232
1247.49896 2.24435
1245.45052 2.24725
1243.40208 2.25181
1241.35364 2.25629
1239.30521 2.25806
1237.25677 2.25710
1235.20833 2.25853
1233.15989 2.26175
1231.11145 2.26242
1229.06301 2.26385
1227.01458 2.26681
1224.96614 2.26897
1222.91770 2.27167
1220.86926 2.27409
1218.82082 2.27599
1216.77238 2.27805
1214.72395 2.27595
1212.67551 2.27113
1210.62707 2.27115
1208.57863 2.27517
1206.53019 2.27710
1204.48175 2.27635
1202.43332 2.27691
1200.38488 2.27931
1198.33644 2.28077
1196.28800 2.28225
1194.23956 2.28639
1192.19112 2.29206
1190.14269 2.29583
1188.09425 2.29683
1186.04581 2.29714
1183.99737 2.29538
1181.94893 2.29219
1179.90049 2.29472
1177.85206 2.30223
1175.80362 2.30643
1173.75518 2.30634
1171.70674 2.30462
1169.65830 2.30196
1167.60986 2.30220
1165.56143 2.30621
1163.51299 2.30779
1161.46455 2.30546
1159.41611 2.30356
1157.36767 2.30365
1155.31923 2.30507
1153.27080 2.30647
1151.22236 2.30706
1149.17392 2.30855
1147.12548 2.30948
1145.07704 2.30787
1143.02860 2.30693
1140.98017 2.30820
1138.93173 2.30907
1136.88329 2.30834
1134.83485 2.30725
1132.78641 2.30644
1130.73797 2.30670
1128.68954 2.30679
1126.64110 2.30592
1124.59266 2.30723
1122.54422 2.30916
1120.49578 2.30737
1118.44734 2.30282
1116.39891 2.29840
1114.35047 2.29519
1112.30203 2.29139
1110.25359 2.28523
1108.20515 2.27903
1106.15671 2.27570
1104.10827 2.27439
1102.05984 2.27233
1100.01140 2.26940
1097.96296 2.26882
1095.91452 2.27235
1093.86608 2.27892
1091.81764 2.28890
1089.76921 2.30337
1087.72077 2.31690
1085.67233 2.29032
1083.62389 2.21902
1081.57545 2.18276
1079.52701 2.20465
1077.47858 2.23389
1075.43014 2.24320
1073.38170 2.24373
1071.33326 2.24392
1069.28482 2.24232
1067.23638 2.23859
1065.18795 2.23742
1063.13951 2.24016
1061.09107 2.24623
1059.04263 2.24835
1056.99419 2.24176
1054.94575 2.23384
1052.89732 2.22961
1050.84888 2.22675
1048.80044 2.22371
1046.75200 2.22041
1044.70356 2.21621
1042.65512 2.21216
1040.60669 2.21101
1038.55825 2.21272
1036.50981 2.21445
1034.46137 2.21297
1032.41293 2.20961
1030.36449 2.20910
1028.31606 2.21107
1026.26762 2.21316
1024.21918 2.21593
1022.17074 2.22108
1020.12230 2.22538
1018.07386 2.22430
1016.02543 2.22241
1013.97699 2.22615
1011.92855 2.23398
1009.88011 2.23963
1007.83167 2.24101
1005.78323 2.24038
1003.73480 2.23873
1001.68636 2.23710
999.63792 2.23789
997.58948 2.24070
995.54104 2.24496
993.49260 2.25226
991.44417 2.25997
989.39573 2.26349
987.34729 2.26684
985.29885 2.27489
983.25041 2.28165
981.20197 2.28547
979.15354 2.29038
977.10510 2.29072
975.05666 2.28618
973.00822 2.28521
970.95978 2.28764
968.91134 2.28886
966.86290 2.28659
964.81447 2.28502
962.76603 2.28829
960.71759 2.29137
958.66915 2.29402
956.62071 2.30100
954.57227 2.30983
952.52384 2.31496
950.47540 2.31517
948.42696 2.31492
946.37852 2.31986
944.33008 2.32490
942.28164 2.32281
940.23321 2.32179
938.18477 2.32755
936.13633 2.33574
934.08789 2.34443
932.03945 2.35247
929.99101 2.35815
927.94258 2.36258
925.89414 2.36658
923.84570 2.37005
921.79726 2.37528
919.74882 2.37914
917.70038 2.38081
915.65195 2.39037
913.60351 2.40538
911.55507 2.40930
909.50663 2.40454
907.45819 2.40769
905.40975 2.41682
903.36132 2.42211
901.31288 2.42444
899.26444 2.42500
897.21600 2.42348
895.16756 2.42265
893.11912 2.41971
891.07069 2.40784
889.02225 2.38341
886.97381 2.33955
884.92537 2.26484
882.87693 2.13774
880.82849 1.94951
878.78006 1.74568
876.73162 1.58931
874.68318 1.50195
872.63474 1.46441
870.58630 1.44876
868.53786 1.44026
866.48943 1.43460
864.44099 1.43050
862.39255 1.42750
860.34411 1.42621
858.29567 1.42818
856.24723 1.44019
854.19880 1.48209
852.15036 1.57275
850.10192 1.69814
848.05348 1.81440
846.00504 1.88652
843.95660 1.91087
841.90817 1.92592
839.85973 1.95755
837.81129 1.99347
835.76285 2.02413
833.71441 2.04884
831.66597 2.06745
829.61753 2.08264
827.56910 2.09718
825.52066 2.10932
823.47222 2.12095
821.42378 2.13756
819.37534 2.15323
817.32690 2.16393
815.27847 2.17447
813.23003 2.18124
811.18159 2.18300
809.13315 2.18867
807.08471 2.19968
805.03627 2.21147
802.98784 2.22173
800.93940 2.22935
798.89096 2.23525
796.84252 2.23963
794.79408 2.24420
792.74564 2.25073
790.69721 2.25226
788.64877 2.24565
786.60033 2.24046
784.55189 2.24340
782.50345 2.25397
780.45501 2.26846
778.40658 2.27738
776.35814 2.27726
774.30970 2.27707
772.26126 2.27987
770.21282 2.27904
768.16438 2.27281
766.11595 2.26705
764.06751 2.26800
762.01907 2.27841
759.97063 2.29286
757.92219 2.30349
755.87375 2.31061
753.82532 2.32149
751.77688 2.33143
749.72844 2.32791
747.68000 2.32225
745.63156 2.32269
743.58312 2.31925
741.53469 2.31107
739.48625 2.30816
737.43781 2.31877
735.38937 2.33343
733.34093 2.33690
731.29249 2.33667
729.24406 2.34311
727.19562 2.35225
725.14718 2.36778
723.09874 2.39547
721.05030 2.42089
719.00186 2.43536
716.95343 2.35849
714.90499 2.17096
712.85655 2.05662
710.80811 2.08034
708.75967 2.17095
706.71123 2.23953
704.66280 2.26427
702.61436 2.25837
700.56592 2.24352
698.51748 2.22954
696.46904 2.22501
694.42060 2.23233
692.37216 2.24099
690.32373 2.24550
688.27529 2.25123
686.22685 2.26313
684.17841 2.26991
682.12997 2.26942
680.08153 2.27982
678.03310 2.28539
675.98466 2.26424
673.93622 2.23894
671.88778 2.22333
669.83934 2.21750
667.79090 2.23038
665.74247 2.24178
663.69403 2.23850
661.64559 2.22675
659.59715 2.22579
657.54871 2.23249
655.50027 2.22034
653.45184 2.20878
651.40340 2.20489
649.35496 2.20771
647.30652 2.21779
645.25808 2.22214
643.20964 2.23805
641.16121 2.23973
639.11277 2.19823
637.06433 2.16553
635.01589 2.15929
632.96745 2.14095
630.91901 2.12653
628.87058 2.15960
626.82214 2.19374
624.77370 2.17382
622.72526 2.15273
620.67682 2.16030
618.62838 2.18443
616.57995 2.21724
614.53151 2.26508
612.48307 2.31676
610.43463 2.28458
608.38619 2.21393
606.33775 2.19880
604.28932 2.19034
602.24088 2.16977
600.19244 2.20560
598.14400 2.28475
