3996.50324 0.09688
3994.45480 0.09668
3992.40636 0.09648
3990.35792 0.09623
3988.30948 0.09602
3986.26104 0.09598
3984.21261 0.09599
3982.16417 0.09594
3980.11573 0.09587
3978.06729 0.09581
3976.01885 0.09565
3973.97041 0.09542
3971.92198 0.09531
3969.87354 0.09527
3967.82510 0.09525
3965.77666 0.09534
3963.72822 0.09541
3961.67978 0.09536
3959.63135 0.09544
3957.58291 0.09571
3955.53447 0.09599
3953.48603 0.09633
3951.43759 0.09662
3949.38915 0.09648
3947.34072 0.09627
3945.29228 0.09657
3943.24384 0.09663
3941.19540 0.09630
3939.14696 0.09649
3937.09852 0.09695
3935.05009 0.09729
3933.00165 0.09711
3930.95321 0.09638
3928.90477 0.09634
3926.85633 0.09697
3924.80789 0.09699
3922.75946 0.09675
3920.71102 0.09716
3918.66258 0.09725
3916.61414 0.09667
3914.56570 0.09660
3912.51726 0.09714
3910.46883 0.09767
3908.42039 0.09833
3906.37195 0.09890
3904.32351 0.09815
3902.27507 0.09657
3900.22663 0.09568
3898.17820 0.09558
3896.12976 0.09660
3894.08132 0.09794
3892.03288 0.09784
3889.98444 0.09724
3887.93600 0.09818
3885.88756 0.09861
3883.83913 0.09797
3881.79069 0.09798
3879.74225 0.09758
3877.69381 0.09809
3875.64537 0.09935
3873.59693 0.09957
3871.54850 0.09915
3869.50006 0.09811
3867.45162 0.09802
3865.40318 0.09875
3863.35474 0.09802
3861.30630 0.09761
3859.25787 0.09877
3857.20943 0.10059
3855.16099 0.10180
3853.11255 0.09822
3851.06411 0.09531
3849.01567 0.09672
3846.96724 0.09854
3844.91880 0.09943
3842.87036 0.09944
3840.82192 0.09916
3838.77348 0.09803
3836.72504 0.09659
3834.67661 0.09680
3832.62817 0.09741
3830.57973 0.09768
3828.53129 0.09813
3826.48285 0.09839
3824.43441 0.09896
3822.38598 0.09952
3820.33754 0.09775
3818.28910 0.09705
3816.24066 0.09703
3814.19222 0.09640
3812.14378 0.09730
3810.09535 0.09888
3808.04691 0.09934
3805.99847 0.09838
3803.95003 0.09864
3801.90159 0.09824
3799.85315 0.09628
3797.80472 0.09625
3795.75628 0.09647
3793.70784 0.09680
3791.65940 0.09758
3789.61096 0.09803
3787.56252 0.09819
3785.51409 0.09793
3783.46565 0.09758
3781.41721 0.09773
3779.36877 0.09718
3777.32033 0.09648
3775.27189 0.09706
3773.22346 0.09807
3771.17502 0.09828
3769.12658 0.09721
3767.07814 0.09648
3765.02970 0.09635
3762.98126 0.09682
3760.93283 0.09754
3758.88439 0.09683
3756.83595 0.09614
3754.78751 0.09726
3752.73907 0.09844
3750.69063 0.09632
3748.64219 0.09426
3746.59376 0.09520
3744.54532 0.09475
3742.49688 0.09337
3740.44844 0.09428
3738.40000 0.09586
3736.35156 0.09573
3734.30313 0.09325
3732.25469 0.09199
3730.20625 0.09281
3728.15781 0.09400
3726.10937 0.09411
3724.06093 0.09331
3722.01250 0.09285
3719.96406 0.09272
3717.91562 0.09308
3715.86718 0.09411
3713.81874 0.09515
3711.77030 0.09391
3709.72187 0.09126
3707.67343 0.09118
3705.62499 0.09224
3703.57655 0.09282
3701.52811 0.09201
3699.47967 0.09126
3697.43124 0.09149
3695.38280 0.09190
3693.33436 0.09238
3691.28592 0.09229
3689.23748 0.09018
3687.18904 0.08874
3685.14061 0.08943
3683.09217 0.09045
3681.04373 0.09104
3678.99529 0.09142
3676.94685 0.09123
3674.89841 0.08908
3672.84998 0.08866
3670.80154 0.08905
3668.75310 0.08785
3666.70466 0.08796
3664.65622 0.08890
3662.60778 0.08927
3660.55935 0.08933
3658.51091 0.08931
3656.46247 0.08850
3654.41403 0.08804
3652.36559 0.08900
3650.31715 0.08881
3648.26872 0.08531
3646.22028 0.08427
3644.17184 0.08521
3642.12340 0.08587
3640.07496 0.08586
3638.02652 0.08568
3635.97809 0.08555
3633.92965 0.08542
3631.88121 0.08554
3629.83277 0.08485
3627.78433 0.08237
3625.73589 0.08195
3623.68746 0.08285
3621.63902 0.08334
3619.59058 0.08254
3617.54214 0.08142
3615.49370 0.08136
3613.44526 0.08124
3611.39682 0.08091
3609.34839 0.08057
3607.29995 0.07997
3605.25151 0.07983
3603.20307 0.07994
3601.15463 0.07948
3599.10619 0.07875
3597.05776 0.07828
3595.00932 0.07776
3592.96088 0.07761
3590.91244 0.07825
3588.86400 0.07857
3586.81556 0.07784
3584.76713 0.07766
3582.71869 0.07811
3580.67025 0.07834
3578.62181 0.07831
3576.57337 0.07822
3574.52493 0.07815
3572.47650 0.07820
3570.42806 0.07837
3568.37962 0.07801
3566.33118 0.07678
3564.28274 0.07643
3562.23430 0.07687
3560.18587 0.07707
3558.13743 0.07710
3556.08899 0.07719
3554.04055 0.07711
3551.99211 0.07675
3549.94367 0.07661
3547.89524 0.07658
3545.84680 0.07626
3543.79836 0.07613
3541.74992 0.07640
3539.70148 0.07665
3537.65304 0.07662
3535.60461 0.07644
3533.55617 0.07643
3531.50773 0.07642
3529.45929 0.07615
3527.41085 0.07580
3525.36241 0.07560
3523.31398 0.07549
3521.26554 0.07550
3519.21710 0.07556
3517.16866 0.07551
3515.12022 0.07548
3513.07178 0.07552
3511.02335 0.07547
3508.97491 0.07529
3506.92647 0.07517
3504.87803 0.07502
3502.82959 0.07472
3500.78115 0.07471
3498.73272 0.07491
3496.68428 0.07493
3494.63584 0.07481
3492.58740 0.07477
3490.53896 0.07474
3488.49052 0.07459
3486.44209 0.07446
3484.39365 0.07443
3482.34521 0.07426
3480.29677 0.07401
3478.24833 0.07399
3476.19989 0.07410
3474.15146 0.07410
3472.10302 0.07400
3470.05458 0.07389
3468.00614 0.07378
3465.95770 0.07367
3463.90926 0.07363
3461.86082 0.07362
3459.81239 0.07360
3457.76395 0.07355
3455.71551 0.07344
3453.66707 0.07338
3451.61863 0.07340
3449.57019 0.07332
3447.52176 0.07299
3445.47332 0.07274
3443.42488 0.07272
3441.37644 0.07269
3439.32800 0.07263
3437.27956 0.07260
3435.23113 0.07258
3433.18269 0.07252
3431.13425 0.07239
3429.08581 0.07232
3427.03737 0.07233
3424.98893 0.07228
3422.94050 0.07216
3420.89206 0.07201
3418.84362 0.07190
3416.79518 0.07188
3414.74674 0.07188
3412.69830 0.07184
3410.64987 0.07179
3408.60143 0.07168
3406.55299 0.07156
3404.50455 0.07147
3402.45611 0.07139
3400.40767 0.07131
3398.35924 0.07122
3396.31080 0.07111
3394.26236 0.07100
3392.21392 0.07091
3390.16548 0.07088
3388.11704 0.07090
3386.06861 0.07086
3384.02017 0.07076
3381.97173 0.07069
3379.92329 0.07063
3377.87485 0.07055
3375.82641 0.07045
3373.77798 0.07033
3371.72954 0.07022
3369.68110 0.07013
3367.63266 0.07005
3365.58422 0.07000
3363.53578 0.06995
3361.48735 0.06989
3359.43891 0.06986
3357.39047 0.06981
3355.34203 0.06972
3353.29359 0.06960
3351.24515 0.06951
3349.19672 0.06946
3347.14828 0.06943
3345.09984 0.06937
3343.05140 0.06930
3341.00296 0.06926
3338.95452 0.06917
3336.90609 0.06900
3334.85765 0.06886
3332.80921 0.06883
3330.76077 0.06884
3328.71233 0.06883
3326.66389 0.06879
3324.61545 0.06873
3322.56702 0.06865
3320.51858 0.06858
3318.47014 0.06851
3316.42170 0.06843
3314.37326 0.06835
3312.32482 0.06824
3310.27639 0.06813
3308.22795 0.06808
3306.17951 0.06804
3304.13107 0.06799
3302.08263 0.06798
3300.03419 0.06795
3297.98576 0.06782
3295.93732 0.06768
3293.88888 0.06758
3291.84044 0.06752
3289.79200 0.06750
3287.74356 0.06744
3285.69513 0.06730
3283.64669 0.06716
3281.59825 0.06707
3279.54981 0.06703
3277.50137 0.06700
3275.45293 0.06692
3273.40450 0.06681
3271.35606 0.06673
3269.30762 0.06671
3267.25918 0.06671
3265.21074 0.06667
3263.16230 0.06657
3261.11387 0.06641
3259.06543 0.06626
3257.01699 0.06615
3254.96855 0.06609
3252.92011 0.06605
3250.87167 0.06604
3248.82324 0.06595
3246.77480 0.06579
3244.72636 0.06569
3242.67792 0.06563
3240.62948 0.06553
3238.58104 0.06541
3236.53261 0.06530
3234.48417 0.06520
3232.43573 0.06510
3230.38729 0.06497
3228.33885 0.06487
3226.29041 0.06482
3224.24198 0.06479
3222.19354 0.06474
3220.14510 0.06467
3218.09666 0.06465
3216.04822 0.06465
3213.99978 0.06464
3211.95135 0.06464
3209.90291 0.06461
3207.85447 0.06452
3205.80603 0.06435
3203.75759 0.06419
3201.70915 0.06414
3199.66072 0.06415
3197.61228 0.06415
3195.56384 0.06412
3193.51540 0.06411
3191.46696 0.06414
3189.41852 0.06414
3187.37008 0.06411
3185.32165 0.06407
3183.27321 0.06404
3181.22477 0.06402
3179.17633 0.06401
3177.12789 0.06402
3175.07945 0.06401
3173.03102 0.06396
3170.98258 0.06394
3168.93414 0.06392
3166.88570 0.06387
3164.83726 0.06382
3162.78882 0.06377
3160.74039 0.06370
3158.69195 0.06364
3156.64351 0.06359
3154.59507 0.06355
3152.54663 0.06351
3150.49819 0.06351
3148.44976 0.06354
3146.40132 0.06357
3144.35288 0.06357
3142.30444 0.06351
3140.25600 0.06337
3138.20756 0.06322
3136.15913 0.06314
3134.11069 0.06309
3132.06225 0.06307
3130.01381 0.06309
3127.96537 0.06306
3125.91693 0.06297
3123.86850 0.06286
3121.82006 0.06275
3119.77162 0.06267
3117.72318 0.06260
3115.67474 0.06257
3113.62630 0.06255
3111.57787 0.06253
3109.52943 0.06247
3107.48099 0.06240
3105.43255 0.06233
3103.38411 0.06223
3101.33567 0.06212
3099.28724 0.06203
3097.23880 0.06199
3095.19036 0.06199
3093.14192 0.06200
3091.09348 0.06197
3089.04504 0.06187
3086.99661 0.06176
3084.94817 0.06165
3082.89973 0.06155
3080.85129 0.06147
3078.80285 0.06139
3076.75441 0.06132
3074.70598 0.06127
3072.65754 0.06118
3070.60910 0.06109
3068.56066 0.06098
3066.51222 0.06079
3064.46378 0.06059
3062.41535 0.06047
3060.36691 0.06033
3058.31847 0.06008
3056.27003 0.05981
3054.22159 0.05956
3052.17315 0.05924
3050.12471 0.05876
3048.07628 0.05818
3046.02784 0.05761
3043.97940 0.05708
3041.93096 0.05658
3039.88252 0.05614
3037.83408 0.05577
3035.78565 0.05543
3033.73721 0.05506
3031.68877 0.05467
3029.64033 0.05431
3027.59189 0.05398
3025.54345 0.05365
3023.49502 0.05332
3021.44658 0.05295
3019.39814 0.05253
3017.34970 0.05204
3015.30126 0.05147
3013.25282 0.05081
3011.20439 0.05010
3009.15595 0.04935
3007.10751 0.04857
3005.05907 0.04772
3003.01063 0.04683
3000.96219 0.04596
2998.91376 0.04505
2996.86532 0.04404
2994.81688 0.04297
2992.76844 0.04201
2990.72000 0.04120
2988.67156 0.04060
2986.62313 0.04034
2984.57469 0.04042
2982.52625 0.04066
2980.47781 0.04089
2978.42937 0.04112
2976.38093 0.04138
2974.33250 0.04165
2972.28406 0.04192
2970.23562 0.04215
2968.18718 0.04233
2966.13874 0.04246
2964.09030 0.04255
2962.04187 0.04263
2959.99343 0.04269
2957.94499 0.04268
2955.89655 0.04261
2953.84811 0.04256
2951.79967 0.04250
2949.75124 0.04228
2947.70280 0.04190
2945.65436 0.04154
2943.60592 0.04126
2941.55748 0.04097
2939.50904 0.04058
2937.46061 0.04006
2935.41217 0.03948
2933.36373 0.03884
2931.31529 0.03815
2929.26685 0.03746
2927.21841 0.03684
2925.16998 0.03630
2923.12154 0.03585
2921.07310 0.03546
2919.02466 0.03513
2916.97622 0.03505
2914.92778 0.03552
2912.87934 0.03666
2910.83091 0.03825
2908.78247 0.03981
2906.73403 0.04102
2904.68559 0.04179
2902.63715 0.04220
2900.58871 0.04242
2898.54028 0.04275
2896.49184 0.04338
2894.44340 0.04434
2892.39496 0.04546
2890.34652 0.04649
2888.29808 0.04735
2886.24965 0.04805
2884.20121 0.04863
2882.15277 0.04904
2880.10433 0.04930
2878.05589 0.04948
2876.00745 0.04957
2873.95902 0.04947
2871.91058 0.04920
2869.86214 0.04885
2867.81370 0.04841
2865.76526 0.04789
2863.71682 0.04729
2861.66839 0.04651
2859.61995 0.04541
2857.57151 0.04404
2855.52307 0.04252
2853.47463 0.04122
2851.42619 0.04073
2849.37776 0.04137
2847.32932 0.04301
2845.28088 0.04527
2843.23244 0.04773
2841.18400 0.04999
2839.13556 0.05181
2837.08713 0.05320
2835.03869 0.05431
2832.99025 0.05518
2830.94181 0.05581
2828.89337 0.05627
2826.84493 0.05663
2824.79650 0.05691
2822.74806 0.05712
2820.69962 0.05731
2818.65118 0.05748
2816.60274 0.05761
2814.55430 0.05771
2812.50587 0.05782
2810.45743 0.05790
2808.40899 0.05795
2806.36055 0.05802
2804.31211 0.05810
2802.26367 0.05814
2800.21524 0.05819
2798.16680 0.05827
2796.11836 0.05832
2794.06992 0.05836
2792.02148 0.05841
2789.97304 0.05845
2787.92461 0.05846
2785.87617 0.05842
2783.82773 0.05835
2781.77929 0.05825
2779.73085 0.05817
2777.68241 0.05813
2775.63397 0.05810
2773.58554 0.05810
2771.53710 0.05814
2769.48866 0.05817
2767.44022 0.05818
2765.39178 0.05817
2763.34334 0.05819
2761.29491 0.05821
2759.24647 0.05821
2757.19803 0.05814
2755.14959 0.05806
2753.10115 0.05798
2751.05271 0.05795
2749.00428 0.05794
2746.95584 0.05792
2744.90740 0.05788
2742.85896 0.05782
2740.81052 0.05774
2738.76208 0.05770
2736.71365 0.05766
2734.66521 0.05754
2732.61677 0.05741
2730.56833 0.05736
2728.51989 0.05730
2726.47145 0.05720
2724.42302 0.05712
2722.37458 0.05706
2720.32614 0.05703
2718.27770 0.05701
2716.22926 0.05698
2714.18082 0.05691
2712.13239 0.05681
2710.08395 0.05673
2708.03551 0.05665
2705.98707 0.05657
2703.93863 0.05652
2701.89019 0.05647
2699.84176 0.05637
2697.79332 0.05626
2695.74488 0.05616
2693.69644 0.05609
2691.64800 0.05599
2689.59956 0.05586
2687.55113 0.05574
2685.50269 0.05564
2683.45425 0.05548
2681.40581 0.05530
2679.35737 0.05513
2677.30893 0.05496
2675.26050 0.05472
2673.21206 0.05440
2671.16362 0.05402
2669.11518 0.05351
2667.06674 0.05284
2665.01830 0.05206
2662.96987 0.05123
2660.92143 0.05028
2658.87299 0.04923
2656.82455 0.04820
2654.77611 0.04729
2652.72767 0.04649
2650.67924 0.04580
2648.63080 0.04519
2646.58236 0.04458
2644.53392 0.04395
2642.48548 0.04333
2640.43704 0.04271
2638.38860 0.04213
2636.34017 0.04167
2634.29173 0.04131
2632.24329 0.04106
2630.19485 0.04089
2628.14641 0.04074
2626.09797 0.04062
2624.04954 0.04058
2622.00110 0.04061
2619.95266 0.04067
2617.90422 0.04074
2615.85578 0.04079
2613.80734 0.04080
2611.75891 0.04080
2609.71047 0.04083
2607.66203 0.04090
2605.61359 0.04097
2603.56515 0.04100
2601.51671 0.04095
2599.46828 0.04085
2597.41984 0.04075
2595.37140 0.04057
2593.32296 0.04031
2591.27452 0.04000
2589.22608 0.03965
2587.17765 0.03929
2585.12921 0.03894
2583.08077 0.03866
2581.03233 0.03847
2578.98389 0.03820
2576.93545 0.03770
2574.88702 0.03707
2572.83858 0.03642
2570.79014 0.03576
2568.74170 0.03510
2566.69326 0.03447
2564.64482 0.03391
2562.59639 0.03342
2560.54795 0.03296
2558.49951 0.03252
2556.45107 0.03200
2554.40263 0.03126
2552.35419 0.03035
2550.30576 0.02954
2548.25732 0.02912
2546.20888 0.02920
2544.16044 0.02973
2542.11200 0.03042
2540.06356 0.03079
2538.01513 0.03046
2535.96669 0.02962
2533.91825 0.02870
2531.86981 0.02794
2529.82137 0.02737
2527.77293 0.02701
2525.72450 0.02681
2523.67606 0.02670
2521.62762 0.02673
2519.57918 0.02700
2517.53074 0.02754
2515.48230 0.02836
2513.43387 0.02932
2511.38543 0.03002
2509.33699 0.03023
2507.28855 0.03002
2505.24011 0.02961
2503.19167 0.02928
2501.14324 0.02914
2499.09480 0.02920
2497.04636 0.02948
2494.99792 0.03002
2492.94948 0.03079
2490.90104 0.03172
2488.85260 0.03276
2486.80417 0.03383
2484.75573 0.03496
2482.70729 0.03622
2480.65885 0.03765
2478.61041 0.03935
2476.56197 0.04131
2474.51354 0.04309
2472.46510 0.04440
2470.41666 0.04539
2468.36822 0.04626
2466.31978 0.04695
2464.27134 0.04749
2462.22291 0.04797
2460.17447 0.04841
2458.12603 0.04878
2456.07759 0.04912
2454.02915 0.04934
2451.98071 0.04945
2449.93228 0.04954
2447.88384 0.04961
2445.83540 0.04962
2443.78696 0.04962
2441.73852 0.04962
2439.69008 0.04963
2437.64165 0.04964
2435.59321 0.04964
2433.54477 0.04960
2431.49633 0.04955
2429.44789 0.04951
2427.39945 0.04949
2425.35102 0.04946
2423.30258 0.04943
2421.25414 0.04941
2419.20570 0.04938
2417.15726 0.04935
2415.10882 0.04932
2413.06039 0.04928
2411.01195 0.04920
2408.96351 0.04913
2406.91507 0.04909
2404.86663 0.04906
2402.81819 0.04899
2400.76976 0.04890
2398.72132 0.04879
2396.67288 0.04868
2394.62444 0.04859
2392.57600 0.04854
2390.52756 0.04848
2388.47913 0.04840
2386.43069 0.04823
2384.38225 0.04805
2382.33381 0.04789
2380.28537 0.04769
2378.23693 0.04745
2376.18850 0.04720
2374.14006 0.04692
2372.09162 0.04665
2370.04318 0.04650
2367.99474 0.04645
2365.94630 0.04642
2363.89787 0.04632
2361.84943 0.04608
2359.80099 0.04573
2357.75255 0.04517
2355.70411 0.04456
2353.65567 0.04428
2351.60723 0.04435
2349.55880 0.04477
2347.51036 0.04541
2345.46192 0.04587
2343.41348 0.04579
2341.36504 0.04556
2339.31660 0.04540
2337.26817 0.04519
2335.21973 0.04509
2333.17129 0.04507
2331.12285 0.04484
2329.07441 0.04459
2327.02597 0.04457
2324.97754 0.04463
2322.92910 0.04467
2320.88066 0.04471
2318.83222 0.04480
2316.78378 0.04506
2314.73534 0.04538
2312.68691 0.04556
2310.63847 0.04560
2308.59003 0.04565
2306.54159 0.04582
2304.49315 0.04607
2302.44471 0.04629
2300.39628 0.04661
2298.34784 0.04706
2296.29940 0.04740
2294.25096 0.04759
2292.20252 0.04772
2290.15408 0.04781
2288.10565 0.04784
2286.05721 0.04785
2284.00877 0.04789
2281.96033 0.04791
2279.91189 0.04786
2277.86345 0.04777
2275.81502 0.04766
2273.76658 0.04750
2271.71814 0.04732
2269.66970 0.04715
2267.62126 0.04699
2265.57282 0.04682
2263.52439 0.04665
2261.47595 0.04651
2259.42751 0.04635
2257.37907 0.04622
2255.33063 0.04613
2253.28219 0.04607
2251.23376 0.04602
2249.18532 0.04597
2247.13688 0.04591
2245.08844 0.04586
2243.04000 0.04583
2240.99156 0.04578
2238.94313 0.04572
2236.89469 0.04564
2234.84625 0.04553
2232.79781 0.04544
2230.74937 0.04538
2228.70093 0.04529
2226.65250 0.04511
2224.60406 0.04491
2222.55562 0.04473
2220.50718 0.04460
2218.45874 0.04450
2216.41030 0.04437
2214.36186 0.04420
2212.31343 0.04402
2210.26499 0.04383
2208.21655 0.04362
2206.16811 0.04337
2204.11967 0.04309
2202.07123 0.04288
2200.02280 0.04273
2197.97436 0.04258
2195.92592 0.04239
2193.87748 0.04219
2191.82904 0.04200
2189.78060 0.04186
2187.73217 0.04173
2185.68373 0.04156
2183.63529 0.04134
2181.58685 0.04109
2179.53841 0.04089
2177.48997 0.04080
2175.44154 0.04077
2173.39310 0.04070
2171.34466 0.04055
2169.29622 0.04035
2167.24778 0.04012
2165.19934 0.03987
2163.15091 0.03955
2161.10247 0.03918
2159.05403 0.03886
2157.00559 0.03858
2154.95715 0.03833
2152.90871 0.03821
2150.86028 0.03828
2148.81184 0.03852
2146.76340 0.03884
2144.71496 0.03910
2142.66652 0.03919
2140.61808 0.03915
2138.56965 0.03910
2136.52121 0.03911
2134.47277 0.03915
2132.42433 0.03919
2130.37589 0.03924
2128.32745 0.03930
2126.27902 0.03934
2124.23058 0.03929
2122.18214 0.03919
2120.13370 0.03914
2118.08526 0.03919
2116.03682 0.03928
2113.98839 0.03939
2111.93995 0.03955
2109.89151 0.03977
2107.84307 0.03999
2105.79463 0.04025
2103.74619 0.04056
2101.69776 0.04094
2099.64932 0.04136
2097.60088 0.04173
2095.55244 0.04195
2093.50400 0.04207
2091.45556 0.04216
2089.40713 0.04224
2087.35869 0.04233
2085.31025 0.04239
2083.26181 0.04238
2081.21337 0.04233
2079.16493 0.04224
2077.11649 0.04214
2075.06806 0.04205
2073.01962 0.04195
2070.97118 0.04183
2068.92274 0.04171
2066.87430 0.04158
2064.82586 0.04142
2062.77743 0.04128
2060.72899 0.04121
2058.68055 0.04115
2056.63211 0.04110
2054.58367 0.04105
2052.53523 0.04098
2050.48680 0.04090
2048.43836 0.04085
2046.38992 0.04083
2044.34148 0.04078
2042.29304 0.04066
2040.24460 0.04056
2038.19617 0.04049
2036.14773 0.04044
2034.09929 0.04040
2032.05085 0.04037
2030.00241 0.04032
2027.95397 0.04024
2025.90554 0.04013
2023.85710 0.04003
2021.80866 0.03992
2019.76022 0.03979
2017.71178 0.03962
2015.66334 0.03946
2013.61491 0.03938
2011.56647 0.03934
2009.51803 0.03922
2007.46959 0.03905
2005.42115 0.03891
2003.37271 0.03883
2001.32428 0.03875
1999.27584 0.03865
1997.22740 0.03854
1995.17896 0.03841
1993.13052 0.03815
1991.08208 0.03775
1989.03365 0.03745
1986.98521 0.03723
1984.93677 0.03702
1982.88833 0.03685
1980.83989 0.03672
1978.79145 0.03658
1976.74302 0.03645
1974.69458 0.03637
1972.64614 0.03630
1970.59770 0.03621
1968.54926 0.03603
1966.50082 0.03576
1964.45239 0.03557
1962.40395 0.03544
1960.35551 0.03528
1958.30707 0.03515
1956.25863 0.03504
1954.21019 0.03491
1952.16176 0.03480
1950.11332 0.03466
1948.06488 0.03449
1946.01644 0.03435
1943.96800 0.03419
1941.91956 0.03391
1939.87112 0.03372
1937.82269 0.03364
1935.77425 0.03352
1933.72581 0.03337
1931.67737 0.03329
1929.62893 0.03323
1927.58049 0.03317
1925.53206 0.03309
1923.48362 0.03288
1921.43518 0.03267
1919.38674 0.03258
1917.33830 0.03240
1915.28986 0.03219
1913.24143 0.03210
1911.19299 0.03193
1909.14455 0.03165
1907.09611 0.03140
1905.04767 0.03128
1902.99923 0.03121
1900.95080 0.03110
1898.90236 0.03095
1896.85392 0.03071
1894.80548 0.03043
1892.75704 0.03023
1890.70860 0.03004
1888.66017 0.02977
1886.61173 0.02957
1884.56329 0.02942
1882.51485 0.02925
1880.46641 0.02904
1878.41797 0.02879
1876.36954 0.02853
1874.32110 0.02832
1872.27266 0.02814
1870.22422 0.02784
1868.17578 0.02725
1866.12734 0.02682
1864.07891 0.02670
1862.03047 0.02661
1859.98203 0.02642
1857.93359 0.02614
1855.88515 0.02588
1853.83671 0.02565
1851.78828 0.02539
1849.73984 0.02513
1847.69140 0.02489
1845.64296 0.02461
1843.59452 0.02418
1841.54608 0.02387
1839.49765 0.02372
1837.44921 0.02350
1835.40077 0.02323
1833.35233 0.02301
1831.30389 0.02278
1829.25545 0.02240
1827.20702 0.02206
1825.15858 0.02175
1823.11014 0.02139
1821.06170 0.02108
1819.01326 0.02075
1816.96482 0.02036
1814.91639 0.01995
1812.86795 0.01950
1810.81951 0.01894
1808.77107 0.01831
1806.72263 0.01761
1804.67419 0.01670
1802.62575 0.01540
1800.57732 0.01382
1798.52888 0.01267
1796.48044 0.01212
1794.43200 0.01169
1792.38356 0.01082
1790.33512 0.00982
1788.28669 0.00938
1786.23825 0.00928
1784.18981 0.00928
1782.14137 0.00938
1780.09293 0.00967
1778.04449 0.01023
1775.99606 0.01105
1773.94762 0.01205
1771.89918 0.01292
1769.85074 0.01329
1767.80230 0.01335
1765.75386 0.01334
1763.70543 0.01325
1761.65699 0.01299
1759.60855 0.01270
1757.56011 0.01249
1755.51167 0.01226
1753.46323 0.01202
1751.41480 0.01172
1749.36636 0.01130
1747.31792 0.01104
1745.26948 0.01088
1743.22104 0.01066
1741.17260 0.01035
1739.12417 0.01003
1737.07573 0.00982
1735.02729 0.00961
1732.97885 0.00926
1730.93041 0.00900
1728.88197 0.00875
1726.83354 0.00848
1724.78510 0.00820
1722.73666 0.00791
1720.68822 0.00770
1718.63978 0.00754
1716.59134 0.00731
1714.54291 0.00724
1712.49447 0.00731
1710.44603 0.00739
1708.39759 0.00744
1706.34915 0.00743
1704.30071 0.00736
1702.25228 0.00732
1700.20384 0.00729
1698.15540 0.00715
1696.10696 0.00695
1694.05852 0.00680
1692.01008 0.00673
1689.96165 0.00661
1687.91321 0.00645
1685.86477 0.00620
1683.81633 0.00582
1681.76789 0.00564
1679.71945 0.00555
1677.67102 0.00543
1675.62258 0.00529
1673.57414 0.00515
1671.52570 0.00503
1669.47726 0.00489
1667.42882 0.00479
1665.38038 0.00476
1663.33195 0.00473
1661.28351 0.00472
1659.23507 0.00476
1657.18663 0.00484
1655.13819 0.00492
1653.08975 0.00496
1651.04132 0.00499
1648.99288 0.00507
1646.94444 0.00524
1644.89600 0.00545
1642.84756 0.00558
1640.79912 0.00564
1638.75069 0.00566
1636.70225 0.00572
1634.65381 0.00585
1632.60537 0.00596
1630.55693 0.00604
1628.50849 0.00612
1626.46006 0.00617
1624.41162 0.00621
1622.36318 0.00627
1620.31474 0.00636
1618.26630 0.00648
1616.21786 0.00656
1614.16943 0.00658
1612.12099 0.00663
1610.07255 0.00679
1608.02411 0.00701
1605.97567 0.00725
1603.92723 0.00754
1601.87880 0.00797
1599.83036 0.00845
1597.78192 0.00894
1595.73348 0.00960
1593.68504 0.01055
1591.63660 0.01181
1589.58817 0.01348
1587.53973 0.01551
1585.49129 0.01765
1583.44285 0.01957
1581.39441 0.02088
1579.34597 0.02146
1577.29754 0.02122
1575.24910 0.02003
1573.20066 0.01905
1571.15222 0.01820
1569.10378 0.01707
1567.05534 0.01676
1565.00691 0.01778
1562.95847 0.01949
1560.91003 0.02165
1558.86159 0.02748
1556.81315 0.03367
1554.76471 0.03668
1552.71628 0.03944
1550.66784 0.04189
1548.61940 0.04404
1546.57096 0.04570
1544.52252 0.04701
1542.47408 0.04814
1540.42565 0.04899
1538.37721 0.04974
1536.32877 0.05052
1534.28033 0.05116
1532.23189 0.05172
1530.18345 0.05235
1528.13501 0.05289
1526.08658 0.05309
1524.03814 0.05316
1521.98970 0.05324
1519.94126 0.05353
1517.89282 0.05397
1515.84438 0.05434
1513.79595 0.05482
1511.74751 0.05528
1509.69907 0.05556
1507.65063 0.05521
1505.60219 0.05437
1503.55375 0.05464
1501.50532 0.05525
1499.45688 0.05584
1497.40844 0.05640
1495.36000 0.05724
1493.31156 0.05818
1491.26312 0.05880
1489.21469 0.05898
1487.16625 0.05947
1485.11781 0.06035
1483.06937 0.06112
1481.02093 0.06167
1478.97249 0.06213
1476.92406 0.06252
1474.87562 0.06265
1472.82718 0.06240
1470.77874 0.06241
1468.73030 0.06268
1466.68186 0.06228
1464.63343 0.06019
1462.58499 0.05780
1460.53655 0.05635
1458.48811 0.05353
1456.43967 0.04652
1454.39123 0.04205
1452.34280 0.03991
1450.29436 0.03786
1448.24592 0.03559
1446.19748 0.03350
1444.14904 0.03201
1442.10060 0.03081
1440.05217 0.02977
1438.00373 0.02870
1435.95529 0.02720
1433.90685 0.02617
1431.85841 0.02558
1429.80997 0.02492
1427.76154 0.02433
1425.71310 0.02387
1423.66466 0.02340
1421.61622 0.02303
1419.56778 0.02259
1417.51934 0.02196
1415.47091 0.02159
1413.42247 0.02134
1411.37403 0.02107
1409.32559 0.02078
1407.27715 0.02047
1405.22871 0.02012
1403.18028 0.01984
1401.13184 0.01960
1399.08340 0.01922
1397.03496 0.01887
1394.98652 0.01871
1392.93808 0.01864
1390.88965 0.01859
1388.84121 0.01846
1386.79277 0.01818
1384.74433 0.01800
1382.69589 0.01797
1380.64745 0.01794
1378.59901 0.01782
1376.55058 0.01761
1374.50214 0.01728
1372.45370 0.01697
1370.40526 0.01685
1368.35682 0.01683
1366.30838 0.01686
1364.25995 0.01684
1362.21151 0.01669
1360.16307 0.01651
1358.11463 0.01637
1356.06619 0.01621
1354.01775 0.01604
1351.96932 0.01594
1349.92088 0.01588
1347.87244 0.01586
1345.82400 0.01589
1343.77556 0.01593
1341.72712 0.01591
1339.67869 0.01581
1337.63025 0.01569
1335.58181 0.01563
1333.53337 0.01554
1331.48493 0.01537
1329.43649 0.01516
1327.38806 0.01498
1325.33962 0.01486
1323.29118 0.01478
1321.24274 0.01471
1319.19430 0.01463
1317.14586 0.01458
1315.09743 0.01453
1313.04899 0.01445
1311.00055 0.01437
1308.95211 0.01429
1306.90367 0.01422
1304.85523 0.01414
1302.80680 0.01405
1300.75836 0.01396
1298.70992 0.01385
1296.66148 0.01372
1294.61304 0.01357
1292.56460 0.01341
1290.51617 0.01327
1288.46773 0.01311
1286.41929 0.01292
1284.37085 0.01282
1282.32241 0.01282
1280.27397 0.01289
1278.22554 0.01298
1276.17710 0.01308
1274.12866 0.01320
1272.08022 0.01336
1270.03178 0.01350
1267.98334 0.01361
1265.93491 0.01373
1263.88647 0.01389
1261.83803 0.01398
1259.78959 0.01398
1257.74115 0.01391
1255.69271 0.01376
1253.64428 0.01355
1251.59584 0.01332
1249.54740 0.01312
1247.49896 0.01302
1245.45052 0.01302
1243.40208 0.01303
1241.35364 0.01302
1239.30521 0.01298
1237.25677 0.01297
1235.20833 0.01299
1233.15989 0.01305
1231.11145 0.01312
1229.06301 0.01318
1227.01458 0.01322
1224.96614 0.01325
1222.91770 0.01329
1220.86926 0.01334
1218.82082 0.01339
1216.77238 0.01347
1214.72395 0.01355
1212.67551 0.01359
1210.62707 0.01356
1208.57863 0.01352
1206.53019 0.01347
1204.48175 0.01337
1202.43332 0.01320
1200.38488 0.01300
1198.33644 0.01282
1196.28800 0.01270
1194.23956 0.01261
1192.19112 0.01251
1190.14269 0.01235
1188.09425 0.01218
1186.04581 0.01207
1183.99737 0.01202
1181.94893 0.01198
1179.90049 0.01193
1177.85206 0.01188
1175.80362 0.01185
1173.75518 0.01185
1171.70674 0.01190
1169.65830 0.01202
1167.60986 0.01218
1165.56143 0.01234
1163.51299 0.01247
1161.46455 0.01260
1159.41611 0.01274
1157.36767 0.01286
1155.31923 0.01293
1153.27080 0.01302
1151.22236 0.01311
1149.17392 0.01319
1147.12548 0.01326
1145.07704 0.01333
1143.02860 0.01343
1140.98017 0.01356
1138.93173 0.01366
1136.88329 0.01368
1134.83485 0.01370
1132.78641 0.01375
1130.73797 0.01379
1128.68954 0.01381
1126.64110 0.01380
1124.59266 0.01376
1122.54422 0.01373
1120.49578 0.01373
1118.44734 0.01372
1116.39891 0.01367
1114.35047 0.01360
1112.30203 0.01350
1110.25359 0.01337
1108.20515 0.01325
1106.15671 0.01312
1104.10827 0.01295
1102.05984 0.01278
1100.01140 0.01262
1097.96296 0.01244
1095.91452 0.01221
1093.86608 0.01188
1091.81764 0.01141
1089.76921 0.01071
1087.72077 0.00964
1085.67233 0.00882
1083.62389 0.00920
1081.57545 0.01031
1079.52701 0.01127
1077.47858 0.01204
1075.43014 0.01255
1073.38170 0.01291
1071.33326 0.01324
1069.28482 0.01353
1067.23638 0.01390
1065.18795 0.01433
1063.13951 0.01437
1061.09107 0.01385
1059.04263 0.01365
1056.99419 0.01438
1054.94575 0.01534
1052.89732 0.01586
1050.84888 0.01605
1048.80044 0.01609
1046.75200 0.01609
1044.70356 0.01609
1042.65512 0.01609
1040.60669 0.01607
1038.55825 0.01604
1036.50981 0.01595
1034.46137 0.01583
1032.41293 0.01572
1030.36449 0.01559
1028.31606 0.01542
1026.26762 0.01523
1024.21918 0.01504
1022.17074 0.01485
1020.12230 0.01464
1018.07386 0.01444
1016.02543 0.01426
1013.97699 0.01406
1011.92855 0.01380
1009.88011 0.01347
1007.83167 0.01311
1005.78323 0.01282
1003.73480 0.01259
1001.68636 0.01237
999.63792 0.01214
997.58948 0.01188
995.54104 0.01158
993.49260 0.01130
991.44417 0.01112
989.39573 0.01100
987.34729 0.01087
985.29885 0.01075
983.25041 0.01065
981.20197 0.01058
979.15354 0.01054
977.10510 0.01051
975.05666 0.01046
973.00822 0.01039
970.95978 0.01036
968.91134 0.01034
966.86290 0.01026
964.81447 0.01017
962.76603 0.01012
960.71759 0.01006
958.66915 0.00996
956.62071 0.00986
954.57227 0.00983
952.52384 0.00984
950.47540 0.00976
948.42696 0.00956
946.37852 0.00938
944.33008 0.00926
942.28164 0.00915
940.23321 0.00905
938.18477 0.00894
936.13633 0.00885
934.08789 0.00874
932.03945 0.00854
929.99101 0.00832
927.94258 0.00820
925.89414 0.00812
923.84570 0.00806
921.79726 0.00800
919.74882 0.00786
917.70038 0.00767
915.65195 0.00752
913.60351 0.00727
911.55507 0.00674
909.50663 0.00626
907.45819 0.00632
905.40975 0.00667
903.36132 0.00682
901.31288 0.00683
899.26444 0.00686
897.21600 0.00693
895.16756 0.00699
893.11912 0.00710
891.07069 0.00738
889.02225 0.00787
886.97381 0.00854
884.92537 0.00964
882.87693 0.01170
880.82849 0.01575
878.78006 0.02297
876.73162 0.03241
874.68318 0.04053
872.63474 0.04517
870.58630 0.04728
868.53786 0.04833
866.48943 0.04890
864.44099 0.04913
862.39255 0.04920
860.34411 0.04924
858.29567 0.04909
856.24723 0.04801
854.19880 0.04425
852.15036 0.03673
850.10192 0.02805
848.05348 0.02173
846.00504 0.01857
843.95660 0.01760
841.90817 0.01704
839.85973 0.01603
837.81129 0.01509
835.76285 0.01446
833.71441 0.01411
831.66597 0.01409
829.61753 0.01416
827.56910 0.01408
825.52066 0.01390
823.47222 0.01382
821.42378 0.01382
819.37534 0.01370
817.32690 0.01347
815.27847 0.01324
813.23003 0.01306
811.18159 0.01288
809.13315 0.01261
807.08471 0.01233
805.03627 0.01220
802.98784 0.01217
800.93940 0.01203
798.89096 0.01185
796.84252 0.01174
794.79408 0.01159
792.74564 0.01141
790.69721 0.01132
788.64877 0.01124
786.60033 0.01113
784.55189 0.01109
782.50345 0.01113
780.45501 0.01110
778.40658 0.01088
776.35814 0.01068
774.30970 0.01066
772.26126 0.01066
770.21282 0.01059
768.16438 0.01044
766.11595 0.01027
764.06751 0.01023
762.01907 0.01034
759.97063 0.01040
757.92219 0.01035
755.87375 0.01034
753.82532 0.01037
751.77688 0.01038
749.72844 0.01037
747.68000 0.01035
745.63156 0.01033
743.58312 0.01027
741.53469 0.01020
739.48625 0.01016
737.43781 0.01007
735.38937 0.00988
733.34093 0.00970
731.29249 0.00961
729.24406 0.00953
727.19562 0.00937
725.14718 0.00900
723.09874 0.00826
721.05030 0.00721
719.00186 0.00633
716.95343 0.00700
714.90499 0.01020
712.85655 0.01307
710.80811 0.01255
708.75967 0.01069
706.71123 0.00981
704.66280 0.00940
702.61436 0.00899
700.56592 0.00896
698.51748 0.00933
696.46904 0.00958
694.42060 0.00958
692.37216 0.00956
690.32373 0.00963
688.27529 0.00972
686.22685 0.00974
684.17841 0.00976
682.12997 0.00996
680.08153 0.01004
678.03310 0.00984
675.98466 0.00995
673.93622 0.01023
671.88778 0.00994
669.83934 0.00930
667.79090 0.00916
665.74247 0.00944
663.69403 0.00954
661.64559 0.00938
659.59715 0.00906
657.54871 0.00893
655.50027 0.00907
653.45184 0.00930
651.40340 0.00929
649.35496 0.00891
647.30652 0.00878
645.25808 0.00907
643.20964 0.00898
641.16121 0.00862
639.11277 0.00874
637.06433 0.00890
635.01589 0.00862
632.96745 0.00825
630.91901 0.00791
628.87058 0.00749
626.82214 0.00714
624.77370 0.00711
622.72526 0.00775
620.67682 0.00891
618.62838 0.00922
616.57995 0.00801
614.53151 0.00660
612.48307 0.00593
610.43463 0.00569
608.38619 0.00547
606.33775 0.00584
604.28932 0.00751
602.24088 0.00991
600.19244 0.01126
598.14400 0.01049
