3996.50324 1.21418
3994.45480 1.21553
3992.40636 1.21716
3990.35792 1.21831
3988.30948 1.21869
3986.26104 1.21906
3984.21261 1.21966
3982.16417 1.22012
3980.11573 1.22026
3978.06729 1.22030
3976.01885 1.22078
3973.97041 1.22149
3971.92198 1.22205
3969.87354 1.22271
3967.82510 1.22307
3965.77666 1.22256
3963.72822 1.22165
3961.67978 1.22095
3959.63135 1.22017
3957.58291 1.21881
3955.53447 1.21709
3953.48603 1.21569
3951.43759 1.21487
3949.38915 1.21456
3947.34072 1.21431
3945.29228 1.21361
3943.24384 1.21327
3941.19540 1.21322
3939.14696 1.21218
3937.09852 1.21097
3935.05009 1.21057
3933.00165 1.21127
3930.95321 1.21244
3928.90477 1.21151
3926.85633 1.20941
3924.80789 1.20899
3922.75946 1.20897
3920.71102 1.20754
3918.66258 1.20622
3916.61414 1.20580
3914.56570 1.20508
3912.51726 1.20336
3910.46883 1.20152
3908.42039 1.20026
3906.37195 1.19984
3904.32351 1.20197
3902.27507 1.20570
3900.22663 1.20693
3898.17820 1.20582
3896.12976 1.20304
3894.08132 1.19976
3892.03288 1.19854
3889.98444 1.19864
3887.93600 1.19667
3885.88756 1.19517
3883.83913 1.19542
3881.79069 1.19413
3879.74225 1.19319
3877.69381 1.19195
3875.64537 1.18955
3873.59693 1.18890
3871.54850 1.18923
3869.50006 1.19050
3867.45162 1.19114
3865.40318 1.19021
3863.35474 1.19141
3861.30630 1.19196
3859.25787 1.18949
3857.20943 1.18569
3855.16099 1.18271
3853.11255 1.18883
3851.06411 1.19488
3849.01567 1.19172
3846.96724 1.18700
3844.91880 1.18468
3842.87036 1.18557
3840.82192 1.18699
3838.77348 1.18859
3836.72504 1.19112
3834.67661 1.19087
3832.62817 1.18909
3830.57973 1.18829
3828.53129 1.18793
3826.48285 1.18750
3824.43441 1.18602
3822.38598 1.18497
3820.33754 1.18993
3818.28910 1.19264
3816.24066 1.19087
3814.19222 1.18976
3812.14378 1.18772
3810.09535 1.18541
3808.04691 1.18556
3805.99847 1.18814
3803.95003 1.18797
3801.90159 1.18784
3799.85315 1.19058
3797.80472 1.19041
3795.75628 1.18916
3793.70784 1.18803
3791.65940 1.18657
3789.61096 1.18563
3787.56252 1.18521
3785.51409 1.18565
3783.46565 1.18629
3781.41721 1.18594
3779.36877 1.18695
3777.32033 1.18858
3775.27189 1.18770
3773.22346 1.18588
3771.17502 1.18577
3769.12658 1.18832
3767.07814 1.18971
3765.02970 1.18946
3762.98126 1.18895
3760.93283 1.18838
3758.88439 1.19002
3756.83595 1.19141
3754.78751 1.18934
3752.73907 1.18757
3750.69063 1.19355
3748.64219 1.19970
3746.59376 1.19803
3744.54532 1.19764
3742.49688 1.20004
3740.44844 1.19868
3738.40000 1.19566
3736.35156 1.19571
3734.30313 1.19991
3732.25469 1.20169
3730.20625 1.20038
3728.15781 1.19856
3726.10937 1.19832
3724.06093 1.19951
3722.01250 1.20003
3719.96406 1.19991
3717.91562 1.19903
3715.86718 1.19727
3713.81874 1.19534
3711.77030 1.19658
3709.72187 1.20187
3707.67343 1.20358
3705.62499 1.20217
3703.57655 1.20102
3701.52811 1.20205
3699.47967 1.20298
3697.43124 1.20270
3695.38280 1.20288
3693.33436 1.20313
3691.28592 1.20381
3689.23748 1.20800
3687.18904 1.21121
3685.14061 1.20968
3683.09217 1.20690
3681.04373 1.20564
3678.99529 1.20596
3676.94685 1.20716
3674.89841 1.21171
3672.84998 1.21365
3670.80154 1.21317
3668.75310 1.21548
3666.70466 1.21553
3664.65622 1.21324
3662.60778 1.21190
3660.55935 1.21193
3658.51091 1.21266
3656.46247 1.21526
3654.41403 1.21778
3652.36559 1.21759
3650.31715 1.21958
3648.26872 1.22758
3646.22028 1.23014
3644.17184 1.22884
3642.12340 1.22768
3640.07496 1.22752
3638.02652 1.22818
3635.97809 1.22967
3633.92965 1.23206
3631.88121 1.23371
3629.83277 1.23574
3627.78433 1.24172
3625.73589 1.24446
3623.68746 1.24429
3621.63902 1.24520
3619.59058 1.24864
3617.54214 1.25242
3615.49370 1.25424
3613.44526 1.25588
3611.39682 1.25770
3609.34839 1.25914
3607.29995 1.26087
3605.25151 1.26277
3603.20307 1.26528
3601.15463 1.26960
3599.10619 1.27409
3597.05776 1.27703
3595.00932 1.27949
3592.96088 1.28065
3590.91244 1.27929
3588.86400 1.27744
3586.81556 1.27689
3584.76713 1.27551
3582.71869 1.27366
3580.67025 1.27315
3578.62181 1.27321
3576.57337 1.27315
3574.52493 1.27418
3572.47650 1.27611
3570.42806 1.27761
3568.37962 1.27957
3566.33118 1.28301
3564.28274 1.28458
3562.23430 1.28437
3560.18587 1.28414
3558.13743 1.28400
3556.08899 1.28382
3554.04055 1.28400
3551.99211 1.28518
3549.94367 1.28657
3547.89524 1.28743
3545.84680 1.28795
3543.79836 1.28754
3541.74992 1.28658
3539.70148 1.28660
3537.65304 1.28777
3535.60461 1.28867
3533.55617 1.28882
3531.50773 1.28942
3529.45929 1.29069
3527.41085 1.29168
3525.36241 1.29262
3523.31398 1.29404
3521.26554 1.29518
3519.21710 1.29572
3517.16866 1.29597
3515.12022 1.29624
3513.07178 1.29689
3511.02335 1.29778
3508.97491 1.29895
3506.92647 1.30049
3504.87803 1.30181
3502.82959 1.30243
3500.78115 1.30284
3498.73272 1.30380
3496.68428 1.30525
3494.63584 1.30645
3492.58740 1.30668
3490.53896 1.30670
3488.49052 1.30758
3486.44209 1.30868
3484.39365 1.30944
3482.34521 1.31023
3480.29677 1.31069
3478.24833 1.31096
3476.19989 1.31160
3474.15146 1.31249
3472.10302 1.31352
3470.05458 1.31401
3468.00614 1.31390
3465.95770 1.31402
3463.90926 1.31441
3461.86082 1.31459
3459.81239 1.31446
3457.76395 1.31428
3455.71551 1.31428
3453.66707 1.31473
3451.61863 1.31534
3449.57019 1.31589
3447.52176 1.31669
3445.47332 1.31725
3443.42488 1.31696
3441.37644 1.31641
3439.32800 1.31629
3437.27956 1.31682
3435.23113 1.31778
3433.18269 1.31861
3431.13425 1.31891
3429.08581 1.31870
3427.03737 1.31868
3424.98893 1.31918
3422.94050 1.31971
3420.89206 1.32021
3418.84362 1.32087
3416.79518 1.32173
3414.74674 1.32262
3412.69830 1.32305
3410.64987 1.32275
3408.60143 1.32236
3406.55299 1.32257
3404.50455 1.32299
3402.45611 1.32331
3400.40767 1.32380
3398.35924 1.32455
3396.31080 1.32547
3394.26236 1.32651
3392.21392 1.32730
3390.16548 1.32760
3388.11704 1.32778
3386.06861 1.32779
3384.02017 1.32758
3381.97173 1.32761
3379.92329 1.32803
3377.87485 1.32874
3375.82641 1.32947
3373.77798 1.32972
3371.72954 1.32981
3369.68110 1.33030
3367.63266 1.33112
3365.58422 1.33177
3363.53578 1.33193
3361.48735 1.33218
3359.43891 1.33258
3357.39047 1.33247
3355.34203 1.33206
3353.29359 1.33199
3351.24515 1.33235
3349.19672 1.33257
3347.14828 1.33203
3345.09984 1.33130
3343.05140 1.33106
3341.00296 1.33112
3338.95452 1.33166
3336.90609 1.33261
3334.85765 1.33339
3332.80921 1.33385
3330.76077 1.33393
3328.71233 1.33375
3326.66389 1.33370
3324.61545 1.33360
3322.56702 1.33342
3320.51858 1.33374
3318.47014 1.33431
3316.42170 1.33494
3314.37326 1.33563
3312.32482 1.33608
3310.27639 1.33661
3308.22795 1.33701
3306.17951 1.33659
3304.13107 1.33583
3302.08263 1.33591
3300.03419 1.33685
3297.98576 1.33752
3295.93732 1.33757
3293.88888 1.33740
3291.84044 1.33744
3289.79200 1.33784
3287.74356 1.33819
3285.69513 1.33827
3283.64669 1.33833
3281.59825 1.33854
3279.54981 1.33897
3277.50137 1.33962
3275.45293 1.34018
3273.40450 1.34026
3271.35606 1.33996
3269.30762 1.34000
3267.25918 1.34069
3265.21074 1.34174
3263.16230 1.34285
3261.11387 1.34392
3259.06543 1.34469
3257.01699 1.34467
3254.96855 1.34429
3252.92011 1.34422
3250.87167 1.34444
3248.82324 1.34469
3246.77480 1.34476
3244.72636 1.34497
3242.67792 1.34567
3240.62948 1.34670
3238.58104 1.34774
3236.53261 1.34846
3234.48417 1.34894
3232.43573 1.34943
3230.38729 1.35013
3228.33885 1.35088
3226.29041 1.35113
3224.24198 1.35061
3222.19354 1.34982
3220.14510 1.34917
3218.09666 1.34865
3216.04822 1.34851
3213.99978 1.34850
3211.95135 1.34834
3209.90291 1.34848
3207.85447 1.34888
3205.80603 1.34863
3203.75759 1.34797
3201.70915 1.34787
3199.66072 1.34781
3197.61228 1.34732
3195.56384 1.34652
3193.51540 1.34562
3191.46696 1.34503
3189.41852 1.34467
3187.37008 1.34414
3185.32165 1.34328
3183.27321 1.34216
3181.22477 1.34109
3179.17633 1.34054
3177.12789 1.34012
3175.07945 1.33944
3173.03102 1.33911
3170.98258 1.33909
3168.93414 1.33878
3166.88570 1.33808
3164.83726 1.33727
3162.78882 1.33660
3160.74039 1.33605
3158.69195 1.33574
3156.64351 1.33573
3154.59507 1.33548
3152.54663 1.33499
3150.49819 1.33451
3148.44976 1.33392
3146.40132 1.33341
3144.35288 1.33315
3142.30444 1.33304
3140.25600 1.33319
3138.20756 1.33367
3136.15913 1.33417
3134.11069 1.33449
3132.06225 1.33418
3130.01381 1.33359
3127.96537 1.33376
3125.91693 1.33393
3123.86850 1.33345
3121.82006 1.33330
3119.77162 1.33354
3117.72318 1.33376
3115.67474 1.33429
3113.62630 1.33494
3111.57787 1.33486
3109.52943 1.33443
3107.48099 1.33454
3105.43255 1.33469
3103.38411 1.33429
3101.33567 1.33370
3099.28724 1.33377
3097.23880 1.33438
3095.19036 1.33505
3093.14192 1.33543
3091.09348 1.33507
3089.04504 1.33452
3086.99661 1.33427
3084.94817 1.33441
3082.89973 1.33508
3080.85129 1.33557
3078.80285 1.33587
3076.75441 1.33678
3074.70598 1.33796
3072.65754 1.33869
3070.60910 1.33893
3068.56066 1.33901
3066.51222 1.33987
3064.46378 1.34162
3062.41535 1.34327
3060.36691 1.34454
3058.31847 1.34594
3056.27003 1.34770
3054.22159 1.34999
3052.17315 1.35296
3050.12471 1.35682
3048.07628 1.36140
3046.02784 1.36560
3043.97940 1.36877
3041.93096 1.37161
3039.88252 1.37472
3037.83408 1.37753
3035.78565 1.37940
3033.73721 1.38107
3031.68877 1.38306
3029.64033 1.38486
3027.59189 1.38624
3025.54345 1.38749
3023.49502 1.38904
3021.44658 1.39046
3019.39814 1.39181
3017.34970 1.39433
3015.30126 1.39710
3013.25282 1.39902
3011.20439 1.40131
3009.15595 1.40467
3007.10751 1.40846
3005.05907 1.41174
3003.01063 1.41394
3000.96219 1.41519
2998.91376 1.41607
2996.86532 1.41758
2994.81688 1.41983
2992.76844 1.42149
2990.72000 1.42264
2988.67156 1.42411
2986.62313 1.42535
2984.57469 1.42514
2982.52625 1.42325
2980.47781 1.42159
2978.42937 1.42146
2976.38093 1.42131
2974.33250 1.42049
2972.28406 1.42083
2970.23562 1.42216
2968.18718 1.42291
2966.13874 1.42330
2964.09030 1.42361
2962.04187 1.42353
2959.99343 1.42349
2957.94499 1.42383
2955.89655 1.42417
2953.84811 1.42452
2951.79967 1.42524
2949.75124 1.42618
2947.70280 1.42681
2945.65436 1.42738
2943.60592 1.42847
2941.55748 1.42976
2939.50904 1.43060
2937.46061 1.43125
2935.41217 1.43202
2933.36373 1.43253
2931.31529 1.43266
2929.26685 1.43308
2927.21841 1.43449
2925.16998 1.43660
2923.12154 1.43857
2921.07310 1.43929
2919.02466 1.43844
2916.97622 1.43650
2914.92778 1.43320
2912.87934 1.42927
2910.83091 1.42591
2908.78247 1.42327
2906.73403 1.42133
2904.68559 1.42012
2902.63715 1.41930
2900.58871 1.41812
2898.54028 1.41639
2896.49184 1.41438
2894.44340 1.41157
2892.39496 1.40769
2890.34652 1.40384
2888.29808 1.40083
2886.24965 1.39828
2884.20121 1.39578
2882.15277 1.39330
2880.10433 1.39101
2878.05589 1.38935
2876.00745 1.38851
2873.95902 1.38835
2871.91058 1.38896
2869.86214 1.39028
2867.81370 1.39175
2865.76526 1.39320
2863.71682 1.39521
2861.66839 1.39798
2859.61995 1.40103
2857.57151 1.40421
2855.52307 1.40739
2853.47463 1.40971
2851.42619 1.41005
2849.37776 1.40754
2847.32932 1.40250
2845.28088 1.39593
2843.23244 1.38798
2841.18400 1.37843
2839.13556 1.36793
2837.08713 1.35791
2835.03869 1.34895
2832.99025 1.34099
2830.94181 1.33404
2828.89337 1.32770
2826.84493 1.32183
2824.79650 1.31678
2822.74806 1.31262
2820.69962 1.30933
2818.65118 1.30695
2816.60274 1.30481
2814.55430 1.30240
2812.50587 1.30029
2810.45743 1.29873
2808.40899 1.29731
2806.36055 1.29569
2804.31211 1.29396
2802.26367 1.29223
2800.21524 1.29059
2798.16680 1.28943
2796.11836 1.28886
2794.06992 1.28841
2792.02148 1.28795
2789.97304 1.28770
2787.92461 1.28726
2785.87617 1.28660
2783.82773 1.28663
2781.77929 1.28735
2779.73085 1.28817
2777.68241 1.28902
2775.63397 1.28960
2773.58554 1.28929
2771.53710 1.28815
2769.48866 1.28667
2767.44022 1.28511
2765.39178 1.28387
2763.34334 1.28327
2761.29491 1.28296
2759.24647 1.28261
2757.19803 1.28247
2755.14959 1.28265
2753.10115 1.28258
2751.05271 1.28216
2749.00428 1.28177
2746.95584 1.28149
2744.90740 1.28133
2742.85896 1.28138
2740.81052 1.28173
2738.76208 1.28232
2736.71365 1.28296
2734.66521 1.28349
2732.61677 1.28380
2730.56833 1.28391
2728.51989 1.28397
2726.47145 1.28381
2724.42302 1.28352
2722.37458 1.28367
2720.32614 1.28424
2718.27770 1.28467
2716.22926 1.28456
2714.18082 1.28419
2712.13239 1.28419
2710.08395 1.28454
2708.03551 1.28494
2705.98707 1.28547
2703.93863 1.28588
2701.89019 1.28639
2699.84176 1.28750
2697.79332 1.28864
2695.74488 1.28948
2693.69644 1.29065
2691.64800 1.29235
2689.59956 1.29391
2687.55113 1.29501
2685.50269 1.29621
2683.45425 1.29797
2681.40581 1.30021
2679.35737 1.30283
2677.30893 1.30585
2675.26050 1.30959
2673.21206 1.31448
2671.16362 1.32028
2669.11518 1.32711
2667.06674 1.33564
2665.01830 1.34564
2662.96987 1.35627
2660.92143 1.36662
2658.87299 1.37602
2656.82455 1.38432
2654.77611 1.39109
2652.72767 1.39591
2650.67924 1.39954
2648.63080 1.40278
2646.58236 1.40564
2644.53392 1.40831
2642.48548 1.41100
2640.43704 1.41359
2638.38860 1.41624
2636.34017 1.41880
2634.29173 1.42038
2632.24329 1.42066
2630.19485 1.42045
2628.14641 1.42051
2626.09797 1.42071
2624.04954 1.42114
2622.00110 1.42178
2619.95266 1.42190
2617.90422 1.42137
2615.85578 1.42087
2613.80734 1.42056
2611.75891 1.42009
2609.71047 1.41971
2607.66203 1.41962
2605.61359 1.41941
2603.56515 1.41906
2601.51671 1.41895
2599.46828 1.41902
2597.41984 1.41951
2595.37140 1.42040
2593.32296 1.42116
2591.27452 1.42204
2589.22608 1.42287
2587.17765 1.42338
2585.12921 1.42423
2583.08077 1.42553
2581.03233 1.42670
2578.98389 1.42781
2576.93545 1.42950
2574.88702 1.43176
2572.83858 1.43375
2570.79014 1.43559
2568.74170 1.43795
2566.69326 1.44023
2564.64482 1.44191
2562.59639 1.44341
2560.54795 1.44492
2558.49951 1.44654
2556.45107 1.44898
2554.40263 1.45214
2552.35419 1.45491
2550.30576 1.45658
2548.25732 1.45646
2546.20888 1.45404
2544.16044 1.45062
2542.11200 1.44860
2540.06356 1.44945
2538.01513 1.45336
2535.96669 1.45887
2533.91825 1.46413
2531.86981 1.46867
2529.82137 1.47203
2527.77293 1.47348
2525.72450 1.47326
2523.67606 1.47200
2521.62762 1.46984
2519.57918 1.46659
2517.53074 1.46248
2515.48230 1.45866
2513.43387 1.45663
2511.38543 1.45727
2509.33699 1.45994
2507.28855 1.46349
2505.24011 1.46704
2503.19167 1.46971
2501.14324 1.47068
2499.09480 1.47025
2497.04636 1.46936
2494.99792 1.46769
2492.94948 1.46464
2490.90104 1.46074
2488.85260 1.45671
2486.80417 1.45260
2484.75573 1.44833
2482.70729 1.44358
2480.65885 1.43728
2478.61041 1.42834
2476.56197 1.41705
2474.51354 1.40560
2472.46510 1.39562
2470.41666 1.38650
2468.36822 1.37760
2466.31978 1.36945
2464.27134 1.36194
2462.22291 1.35440
2460.17447 1.34689
2458.12603 1.34014
2456.07759 1.33477
2454.02915 1.33073
2451.98071 1.32766
2449.93228 1.32522
2447.88384 1.32342
2445.83540 1.32226
2443.78696 1.32108
2441.73852 1.31982
2439.69008 1.31872
2437.64165 1.31771
2435.59321 1.31682
2433.54477 1.31586
2431.49633 1.31502
2429.44789 1.31467
2427.39945 1.31418
2425.35102 1.31303
2423.30258 1.31163
2421.25414 1.31055
2419.20570 1.31006
2417.15726 1.31008
2415.10882 1.31016
2413.06039 1.30984
2411.01195 1.30918
2408.96351 1.30898
2406.91507 1.30956
2404.86663 1.31039
2402.81819 1.31102
2400.76976 1.31146
2398.72132 1.31193
2396.67288 1.31272
2394.62444 1.31399
2392.57600 1.31562
2390.52756 1.31734
2388.47913 1.31867
2386.43069 1.31976
2384.38225 1.32129
2382.33381 1.32334
2380.28537 1.32531
2378.23693 1.32743
2376.18850 1.33048
2374.14006 1.33394
2372.09162 1.33670
2370.04318 1.33835
2367.99474 1.33916
2365.94630 1.34102
2363.89787 1.34537
2361.84943 1.35001
2359.80099 1.35302
2357.75255 1.35449
2355.70411 1.35451
2353.65567 1.35436
2351.60723 1.35374
2349.55880 1.35127
2347.51036 1.34802
2345.46192 1.34648
2343.41348 1.34630
2341.36504 1.34457
2339.31660 1.34288
2337.26817 1.34159
2335.21973 1.34096
2333.17129 1.34212
2331.12285 1.34348
2329.07441 1.34329
2327.02597 1.34218
2324.97754 1.34125
2322.92910 1.34030
2320.88066 1.33848
2318.83222 1.33542
2316.78378 1.33175
2314.73534 1.32868
2312.68691 1.32669
2310.63847 1.32525
2308.59003 1.32375
2306.54159 1.32176
2304.49315 1.31888
2302.44471 1.31529
2300.39628 1.31123
2298.34784 1.30684
2296.29940 1.30315
2294.25096 1.30073
2292.20252 1.29903
2290.15408 1.29775
2288.10565 1.29670
2286.05721 1.29584
2284.00877 1.29557
2281.96033 1.29603
2279.91189 1.29720
2277.86345 1.29850
2275.81502 1.29943
2273.76658 1.30025
2271.71814 1.30127
2269.66970 1.30246
2267.62126 1.30379
2265.57282 1.30549
2263.52439 1.30755
2261.47595 1.30957
2259.42751 1.31110
2257.37907 1.31206
2255.33063 1.31283
2253.28219 1.31345
2251.23376 1.31365
2249.18532 1.31353
2247.13688 1.31324
2245.08844 1.31289
2243.04000 1.31280
2240.99156 1.31313
2238.94313 1.31369
2236.89469 1.31422
2234.84625 1.31450
2232.79781 1.31428
2230.74937 1.31375
2228.70093 1.31357
2226.65250 1.31391
2224.60406 1.31458
2222.55562 1.31579
2220.50718 1.31749
2218.45874 1.31918
2216.41030 1.32061
2214.36186 1.32203
2212.31343 1.32363
2210.26499 1.32544
2208.21655 1.32763
2206.16811 1.33033
2204.11967 1.33334
2202.07123 1.33590
2200.02280 1.33761
2197.97436 1.33892
2195.92592 1.34032
2193.87748 1.34230
2191.82904 1.34504
2189.78060 1.34803
2187.73217 1.35096
2185.68373 1.35419
2183.63529 1.35796
2181.58685 1.36161
2179.53841 1.36385
2177.48997 1.36415
2175.44154 1.36349
2173.39310 1.36360
2171.34466 1.36542
2169.29622 1.36873
2167.24778 1.37268
2165.19934 1.37680
2163.15091 1.38127
2161.10247 1.38607
2159.05403 1.39061
2157.00559 1.39467
2154.95715 1.39817
2152.90871 1.39916
2150.86028 1.39557
2148.81184 1.38864
2146.76340 1.38152
2144.71496 1.37685
2142.66652 1.37565
2140.61808 1.37667
2138.56965 1.37776
2136.52121 1.37753
2134.47277 1.37596
2132.42433 1.37398
2130.37589 1.37239
2128.32745 1.37110
2126.27902 1.36996
2124.23058 1.36940
2122.18214 1.36942
2120.13370 1.36907
2118.08526 1.36745
2116.03682 1.36467
2113.98839 1.36077
2111.93995 1.35549
2109.89151 1.34968
2107.84307 1.34428
2105.79463 1.33905
2103.74619 1.33393
2101.69776 1.32940
2099.64932 1.32515
2097.60088 1.32105
2095.55244 1.31759
2093.50400 1.31470
2091.45556 1.31217
2089.40713 1.31042
2087.35869 1.30958
2085.31025 1.30945
2083.26181 1.30981
2081.21337 1.31013
2079.16493 1.31025
2077.11649 1.31064
2075.06806 1.31152
2073.01962 1.31260
2070.97118 1.31364
2068.92274 1.31479
2066.87430 1.31584
2064.82586 1.31620
2062.77743 1.31626
2060.72899 1.31667
2058.68055 1.31739
2056.63211 1.31832
2054.58367 1.31964
2052.53523 1.32107
2050.48680 1.32196
2048.43836 1.32261
2046.38992 1.32317
2044.34148 1.32334
2042.29304 1.32374
2040.24460 1.32479
2038.19617 1.32571
2036.14773 1.32637
2034.09929 1.32706
2032.05085 1.32778
2030.00241 1.32860
2027.95397 1.32921
2025.90554 1.32918
2023.85710 1.32901
2021.80866 1.32939
2019.76022 1.33011
2017.71178 1.33085
2015.66334 1.33148
2013.61491 1.33170
2011.56647 1.33174
2009.51803 1.33203
2007.46959 1.33265
2005.42115 1.33332
2003.37271 1.33373
2001.32428 1.33410
1999.27584 1.33466
1997.22740 1.33507
1995.17896 1.33533
1993.13052 1.33639
1991.08208 1.33842
1989.03365 1.34021
1986.98521 1.34181
1984.93677 1.34391
1982.88833 1.34656
1980.83989 1.34885
1978.79145 1.35006
1976.74302 1.35075
1974.69458 1.35148
1972.64614 1.35233
1970.59770 1.35348
1968.54926 1.35523
1966.50082 1.35694
1964.45239 1.35780
1962.40395 1.35868
1960.35551 1.36052
1958.30707 1.36266
1956.25863 1.36401
1954.21019 1.36477
1952.16176 1.36584
1950.11332 1.36729
1948.06488 1.36869
1946.01644 1.36988
1943.96800 1.37129
1941.91956 1.37330
1939.87112 1.37445
1937.82269 1.37491
1935.77425 1.37635
1933.72581 1.37838
1931.67737 1.37944
1929.62893 1.37956
1927.58049 1.37995
1925.53206 1.38064
1923.48362 1.38205
1921.43518 1.38420
1919.38674 1.38625
1917.33830 1.38866
1915.28986 1.39075
1913.24143 1.39221
1911.19299 1.39415
1909.14455 1.39679
1907.09611 1.39900
1905.04767 1.40046
1902.99923 1.40253
1900.95080 1.40535
1898.90236 1.40760
1896.85392 1.40942
1894.80548 1.41149
1892.75704 1.41315
1890.70860 1.41500
1888.66017 1.41870
1886.61173 1.42250
1884.56329 1.42530
1882.51485 1.42784
1880.46641 1.43039
1878.41797 1.43291
1876.36954 1.43519
1874.32110 1.43765
1872.27266 1.43996
1870.22422 1.44321
1868.17578 1.44936
1866.12734 1.45451
1864.07891 1.45708
1862.03047 1.46030
1859.98203 1.46486
1857.93359 1.46891
1855.88515 1.47176
1853.83671 1.47462
1851.78828 1.47858
1849.73984 1.48381
1847.69140 1.48970
1845.64296 1.49546
1843.59452 1.50121
1841.54608 1.50577
1839.49765 1.50993
1837.44921 1.51555
1835.40077 1.52226
1833.35233 1.52853
1831.30389 1.53506
1829.25545 1.54327
1827.20702 1.55070
1825.15858 1.55885
1823.11014 1.56857
1821.06170 1.57759
1819.01326 1.58696
1816.96482 1.59726
1814.91639 1.60816
1812.86795 1.62091
1810.81951 1.63634
1808.77107 1.65160
1806.72263 1.66613
1804.67419 1.68133
1802.62575 1.69737
1800.57732 1.71196
1798.52888 1.72150
1796.48044 1.72766
1794.43200 1.73347
1792.38356 1.73833
1790.33512 1.73526
1788.28669 1.72636
1786.23825 1.71857
1784.18981 1.71459
1782.14137 1.71262
1780.09293 1.70982
1778.04449 1.70701
1775.99606 1.70731
1773.94762 1.71179
1771.89918 1.71853
1769.85074 1.72299
1767.80230 1.72612
1765.75386 1.72991
1763.70543 1.73465
1761.65699 1.74051
1759.60855 1.74543
1757.56011 1.75020
1755.51167 1.75553
1753.46323 1.76171
1751.41480 1.77169
1749.36636 1.78279
1747.31792 1.78644
1745.26948 1.78632
1743.22104 1.78743
1741.17260 1.79012
1739.12417 1.79421
1737.07573 1.79969
1735.02729 1.80910
1732.97885 1.81519
1730.93041 1.81155
1728.88197 1.80825
1726.83354 1.80797
1724.78510 1.81079
1722.73666 1.81524
1720.68822 1.82164
1718.63978 1.83344
1716.59134 1.84485
1714.54291 1.83984
1712.49447 1.83350
1710.44603 1.83220
1708.39759 1.83530
1706.34915 1.84120
1704.30071 1.84550
1702.25228 1.84826
1700.20384 1.85135
1698.15540 1.85276
1696.10696 1.85297
1694.05852 1.85373
1692.01008 1.85384
1689.96165 1.85601
1687.91321 1.86045
1685.86477 1.86681
1683.81633 1.87257
1681.76789 1.87221
1679.71945 1.87166
1677.67102 1.87185
1675.62258 1.87359
1673.57414 1.87529
1671.52570 1.87780
1669.47726 1.87905
1667.42882 1.87732
1665.38038 1.87572
1663.33195 1.87674
1661.28351 1.87650
1659.23507 1.87458
1657.18663 1.87561
1655.13819 1.87977
1653.08975 1.88320
1651.04132 1.87869
1648.99288 1.87785
1646.94444 1.87388
1644.89600 1.86643
1642.84756 1.86072
1640.79912 1.85661
1638.75069 1.85288
1636.70225 1.84821
1634.65381 1.83852
1632.60537 1.82910
1630.55693 1.82191
1628.50849 1.81176
1626.46006 1.80010
1624.41162 1.78568
1622.36318 1.76704
1620.31474 1.74940
1618.26630 1.73257
1616.21786 1.70457
1614.16943 1.67653
1612.12099 1.65240
1610.07255 1.62283
1608.02411 1.58618
1605.97567 1.54509
1603.92723 1.50027
1601.87880 1.44867
1599.83036 1.39384
1597.78192 1.33570
1595.73348 1.26948
1593.68504 1.19595
1591.63660 1.12187
1589.58817 1.04863
1587.53973 0.98117
1585.49129 0.92621
1583.44285 0.88768
1581.39441 0.86744
1579.34597 0.86239
1577.29754 0.87083
1575.24910 0.89291
1573.20066 0.91217
1571.15222 0.93032
1569.10378 0.95163
1567.05534 0.95324
1565.00691 0.92767
1562.95847 0.89246
1560.91003 0.85517
1558.86159 0.76892
1556.81315 0.69607
1554.76471 0.66826
1552.71628 0.64399
1550.66784 0.62260
1548.61940 0.60438
1546.57096 0.59230
1544.52252 0.58361
1542.47408 0.57464
1540.42565 0.56129
1538.37721 0.54994
1536.32877 0.54557
1534.28033 0.54170
1532.23189 0.53630
1530.18345 0.53247
1528.13501 0.53039
1526.08658 0.52887
1524.03814 0.52749
1521.98970 0.52578
1519.94126 0.52373
1517.89282 0.52207
1515.84438 0.52012
1513.79595 0.51821
1511.74751 0.51775
1509.69907 0.51842
1507.65063 0.51832
1505.60219 0.51510
1503.55375 0.51319
1501.50532 0.51245
1499.45688 0.51234
1497.40844 0.51222
1495.36000 0.51102
1493.31156 0.51016
1491.26312 0.51083
1489.21469 0.51207
1487.16625 0.51071
1485.11781 0.50859
1483.06937 0.50744
1481.02093 0.50708
1478.97249 0.50709
1476.92406 0.50780
1474.87562 0.50930
1472.82718 0.51013
1470.77874 0.50914
1468.73030 0.50863
1466.68186 0.51078
1464.63343 0.51730
1462.58499 0.52649
1460.53655 0.53840
1458.48811 0.56969
1456.43967 0.64310
1454.39123 0.69357
1452.34280 0.72125
1450.29436 0.74866
1448.24592 0.77861
1446.19748 0.80704
1444.14904 0.82937
1442.10060 0.84898
1440.05217 0.86710
1438.00373 0.88574
1435.95529 0.90916
1433.90685 0.92641
1431.85841 0.93901
1429.80997 0.95330
1427.76154 0.96610
1425.71310 0.97625
1423.66466 0.98639
1421.61622 0.99578
1419.56778 1.00649
1417.51934 1.01910
1415.47091 1.02720
1413.42247 1.03474
1411.37403 1.04372
1409.32559 1.05302
1407.27715 1.06178
1405.22871 1.07150
1403.18028 1.08064
1401.13184 1.08828
1399.08340 1.09673
1397.03496 1.10502
1394.98652 1.11218
1392.93808 1.11754
1390.88965 1.12191
1388.84121 1.12717
1386.79277 1.13372
1384.74433 1.13878
1382.69589 1.14338
1380.64745 1.14891
1378.59901 1.15485
1376.55058 1.16073
1374.50214 1.16696
1372.45370 1.17229
1370.40526 1.17617
1368.35682 1.18061
1366.30838 1.18530
1364.25995 1.19067
1362.21151 1.19623
1360.16307 1.20011
1358.11463 1.20303
1356.06619 1.20652
1354.01775 1.21026
1351.96932 1.21416
1349.92088 1.21838
1347.87244 1.22240
1345.82400 1.22638
1343.77556 1.23038
1341.72712 1.23507
1339.67869 1.24013
1337.63025 1.24377
1335.58181 1.24584
1333.53337 1.24843
1331.48493 1.25156
1329.43649 1.25451
1327.38806 1.25723
1325.33962 1.26021
1323.29118 1.26399
1321.24274 1.26812
1319.19430 1.27212
1317.14586 1.27532
1315.09743 1.27842
1313.04899 1.28157
1311.00055 1.28417
1308.95211 1.28618
1306.90367 1.28827
1304.85523 1.29066
1302.80680 1.29326
1300.75836 1.29590
1298.70992 1.29864
1296.66148 1.30164
1294.61304 1.30432
1292.56460 1.30696
1290.51617 1.30965
1288.46773 1.31218
1286.41929 1.31417
1284.37085 1.31573
1282.32241 1.31711
1280.27397 1.31853
1278.22554 1.32007
1276.17710 1.32175
1274.12866 1.32388
1272.08022 1.32624
1270.03178 1.32805
1267.98334 1.32915
1265.93491 1.33062
1263.88647 1.33246
1261.83803 1.33407
1259.78959 1.33526
1257.74115 1.33650
1255.69271 1.33828
1253.64428 1.34045
1251.59584 1.34258
1249.54740 1.34422
1247.49896 1.34575
1245.45052 1.34741
1243.40208 1.34878
1241.35364 1.34966
1239.30521 1.35040
1237.25677 1.35116
1235.20833 1.35242
1233.15989 1.35437
1231.11145 1.35642
1229.06301 1.35813
1227.01458 1.35951
1224.96614 1.36096
1222.91770 1.36301
1220.86926 1.36515
1218.82082 1.36606
1216.77238 1.36619
1214.72395 1.36686
1212.67551 1.36830
1210.62707 1.37011
1208.57863 1.37196
1206.53019 1.37363
1204.48175 1.37564
1202.43332 1.37829
1200.38488 1.38077
1198.33644 1.38263
1196.28800 1.38414
1194.23956 1.38519
1192.19112 1.38558
1190.14269 1.38612
1188.09425 1.38760
1186.04581 1.38988
1183.99737 1.39227
1181.94893 1.39415
1179.90049 1.39537
1177.85206 1.39600
1175.80362 1.39613
1173.75518 1.39622
1171.70674 1.39704
1169.65830 1.39834
1167.60986 1.39914
1165.56143 1.39867
1163.51299 1.39751
1161.46455 1.39662
1159.41611 1.39605
1157.36767 1.39607
1155.31923 1.39660
1153.27080 1.39645
1151.22236 1.39510
1149.17392 1.39324
1147.12548 1.39203
1145.07704 1.39202
1143.02860 1.39213
1140.98017 1.39156
1138.93173 1.39060
1136.88329 1.38931
1134.83485 1.38748
1132.78641 1.38532
1130.73797 1.38374
1128.68954 1.38254
1126.64110 1.38056
1124.59266 1.37790
1122.54422 1.37562
1120.49578 1.37384
1118.44734 1.37216
1116.39891 1.37137
1114.35047 1.37294
1112.30203 1.37608
1110.25359 1.37897
1108.20515 1.38128
1106.15671 1.38322
1104.10827 1.38470
1102.05984 1.38647
1100.01140 1.39071
1097.96296 1.39795
1095.91452 1.40655
1093.86608 1.41641
1091.81764 1.43182
1089.76921 1.45767
1087.72077 1.48621
1085.67233 1.46487
1083.62389 1.38889
1081.57545 1.35164
1079.52701 1.37213
1077.47858 1.39220
1075.43014 1.39160
1073.38170 1.38500
1071.33326 1.37786
1069.28482 1.37218
1067.23638 1.36779
1065.18795 1.36483
1063.13951 1.36757
1061.09107 1.37791
1059.04263 1.38218
1056.99419 1.37188
1054.94575 1.36064
1052.89732 1.35723
1050.84888 1.35732
1048.80044 1.35731
1046.75200 1.35678
1044.70356 1.35683
1042.65512 1.35754
1040.60669 1.35872
1038.55825 1.36039
1036.50981 1.36163
1034.46137 1.36196
1032.41293 1.36174
1030.36449 1.36183
1028.31606 1.36252
1026.26762 1.36406
1024.21918 1.36594
1022.17074 1.36754
1020.12230 1.36804
1018.07386 1.36671
1016.02543 1.36472
1013.97699 1.36538
1011.92855 1.37005
1009.88011 1.37602
1007.83167 1.38075
1005.78323 1.38439
1003.73480 1.38781
1001.68636 1.39120
999.63792 1.39507
997.58948 1.39994
995.54104 1.40621
993.49260 1.41382
991.44417 1.42245
989.39573 1.43069
987.34729 1.43595
985.29885 1.43734
983.25041 1.43717
981.20197 1.43883
979.15354 1.44299
977.10510 1.44799
975.05666 1.45198
973.00822 1.45452
970.95978 1.45567
968.91134 1.45586
966.86290 1.45616
964.81447 1.45744
962.76603 1.46001
960.71759 1.46314
958.66915 1.46529
956.62071 1.46649
954.57227 1.46885
952.52384 1.47312
950.47540 1.47836
948.42696 1.48320
946.37852 1.48635
944.33008 1.48750
942.28164 1.48870
940.23321 1.49227
938.18477 1.49801
936.13633 1.50415
934.08789 1.50954
932.03945 1.51387
929.99101 1.51779
927.94258 1.52238
925.89414 1.52719
923.84570 1.53168
921.79726 1.53569
919.74882 1.53922
917.70038 1.54392
915.65195 1.55368
913.60351 1.57292
911.55507 1.60169
909.50663 1.62447
907.45819 1.62336
905.40975 1.60583
903.36132 1.58833
901.31288 1.57705
899.26444 1.57177
897.21600 1.56937
895.16756 1.56611
893.11912 1.55985
891.07069 1.54786
889.02225 1.52799
886.97381 1.49646
884.92537 1.43992
882.87693 1.32953
880.82849 1.13544
878.78006 0.89660
876.73162 0.70153
874.68318 0.59014
872.63474 0.54641
870.58630 0.53546
868.53786 0.53476
866.48943 0.53793
864.44099 0.54382
862.39255 0.55176
860.34411 0.56158
858.29567 0.57465
856.24723 0.59733
854.19880 0.64716
852.15036 0.74127
850.10192 0.86599
848.05348 0.97798
846.00504 1.04532
843.95660 1.06826
841.90817 1.08356
839.85973 1.11538
837.81129 1.14983
835.76285 1.17679
833.71441 1.19871
831.66597 1.21600
829.61753 1.22746
827.56910 1.23378
825.52066 1.23777
823.47222 1.24187
821.42378 1.24738
819.37534 1.25356
817.32690 1.25819
815.27847 1.26133
813.23003 1.26328
811.18159 1.26363
809.13315 1.26299
807.08471 1.26267
805.03627 1.26400
802.98784 1.26626
800.93940 1.26781
798.89096 1.26694
796.84252 1.26514
794.79408 1.26491
792.74564 1.26534
790.69721 1.26554
788.64877 1.26570
786.60033 1.26702
784.55189 1.27049
782.50345 1.27407
780.45501 1.27743
778.40658 1.28367
776.35814 1.29025
774.30970 1.29125
772.26126 1.28919
770.21282 1.29175
768.16438 1.29838
766.11595 1.30180
764.06751 1.30092
762.01907 1.30080
759.97063 1.30257
757.92219 1.30415
755.87375 1.30623
753.82532 1.31135
751.77688 1.31886
749.72844 1.32373
747.68000 1.32517
745.63156 1.32808
743.58312 1.33505
741.53469 1.34495
739.48625 1.35649
737.43781 1.36770
735.38937 1.37679
733.34093 1.38460
731.29249 1.39711
729.24406 1.41779
727.19562 1.44426
725.14718 1.47631
723.09874 1.51885
721.05030 1.57627
719.00186 1.62565
716.95343 1.53820
714.90499 1.31570
712.85655 1.18240
710.80811 1.20157
708.75967 1.29133
706.71123 1.35819
704.66280 1.40468
702.61436 1.43309
700.56592 1.42117
698.51748 1.39376
696.46904 1.38136
694.42060 1.37633
692.37216 1.37468
690.32373 1.37596
688.27529 1.37183
686.22685 1.36383
684.17841 1.35808
682.12997 1.35218
680.08153 1.34675
678.03310 1.35102
675.98466 1.36559
673.93622 1.37580
671.88778 1.37521
669.83934 1.37518
667.79090 1.38113
665.74247 1.38475
663.69403 1.38480
661.64559 1.38794
659.59715 1.39554
657.54871 1.40271
655.50027 1.41057
653.45184 1.41676
651.40340 1.41445
649.35496 1.40797
647.30652 1.40640
645.25808 1.41103
643.20964 1.41827
641.16121 1.42292
639.11277 1.42288
637.06433 1.41680
635.01589 1.41059
632.96745 1.41107
630.91901 1.41721
628.87058 1.42387
626.82214 1.42269
624.77370 1.41716
622.72526 1.42088
620.67682 1.43731
618.62838 1.45445
616.57995 1.45947
614.53151 1.45546
612.48307 1.46077
610.43463 1.47749
608.38619 1.48493
606.33775 1.47652
604.28932 1.47025
602.24088 1.48313
600.19244 1.51008
598.14400 1.53763
