3996.50324 1.22615
3994.45480 1.22834
3992.40636 1.23035
3990.35792 1.23156
3988.30948 1.23211
3986.26104 1.23263
3984.21261 1.23327
3982.16417 1.23380
3980.11573 1.23432
3978.06729 1.23478
3976.01885 1.23545
3973.97041 1.23656
3971.92198 1.23748
3969.87354 1.23800
3967.82510 1.23782
3965.77666 1.23698
3963.72822 1.23628
3961.67978 1.23580
3959.63135 1.23462
3957.58291 1.23255
3955.53447 1.23046
3953.48603 1.22872
3951.43759 1.22765
3949.38915 1.22747
3947.34072 1.22703
3945.29228 1.22569
3943.24384 1.22490
3941.19540 1.22532
3939.14696 1.22541
3937.09852 1.22505
3935.05009 1.22502
3933.00165 1.22566
3930.95321 1.22629
3928.90477 1.22529
3926.85633 1.22353
3924.80789 1.22292
3922.75946 1.22263
3920.71102 1.22150
3918.66258 1.22104
3916.61414 1.22161
3914.56570 1.22126
3912.51726 1.21981
3910.46883 1.21839
3908.42039 1.21758
3906.37195 1.21789
3904.32351 1.21980
3902.27507 1.22154
3900.22663 1.22181
3898.17820 1.22091
3896.12976 1.21845
3894.08132 1.21582
3892.03288 1.21531
3889.98444 1.21543
3887.93600 1.21302
3885.88756 1.21065
3883.83913 1.21014
3881.79069 1.20905
3879.74225 1.20847
3877.69381 1.20726
3875.64537 1.20485
3873.59693 1.20420
3871.54850 1.20475
3869.50006 1.20602
3867.45162 1.20684
3865.40318 1.20573
3863.35474 1.20533
3861.30630 1.20492
3859.25787 1.20348
3857.20943 1.20155
3855.16099 1.19916
3853.11255 1.20340
3851.06411 1.20899
3849.01567 1.20706
3846.96724 1.20426
3844.91880 1.20302
3842.87036 1.20280
3840.82192 1.20335
3838.77348 1.20595
3836.72504 1.20933
3834.67661 1.20922
3832.62817 1.20701
3830.57973 1.20574
3828.53129 1.20535
3826.48285 1.20536
3824.43441 1.20479
3822.38598 1.20437
3820.33754 1.20827
3818.28910 1.21002
3816.24066 1.20898
3814.19222 1.20911
3812.14378 1.20750
3810.09535 1.20467
3808.04691 1.20386
3805.99847 1.20653
3803.95003 1.20805
3801.90159 1.20981
3799.85315 1.21313
3797.80472 1.21252
3795.75628 1.21049
3793.70784 1.20916
3791.65940 1.20820
3789.61096 1.20803
3787.56252 1.20832
3785.51409 1.20923
3783.46565 1.21027
3781.41721 1.21031
3779.36877 1.21106
3777.32033 1.21192
3775.27189 1.21119
3773.22346 1.21060
3771.17502 1.21165
3769.12658 1.21407
3767.07814 1.21509
3765.02970 1.21484
3762.98126 1.21409
3760.93283 1.21331
3758.88439 1.21516
3756.83595 1.21743
3754.78751 1.21677
3752.73907 1.21591
3750.69063 1.22064
3748.64219 1.22508
3746.59376 1.22306
3744.54532 1.22267
3742.49688 1.22525
3740.44844 1.22481
3738.40000 1.22356
3736.35156 1.22562
3734.30313 1.23007
3732.25469 1.23139
3730.20625 1.23075
3728.15781 1.23022
3726.10937 1.23154
3724.06093 1.23390
3722.01250 1.23413
3719.96406 1.23322
3717.91562 1.23262
3715.86718 1.23198
3713.81874 1.23233
3711.77030 1.23786
3709.72187 1.24594
3707.67343 1.24956
3705.62499 1.25240
3703.57655 1.25590
3701.52811 1.25939
3699.47967 1.26130
3697.43124 1.26257
3695.38280 1.26529
3693.33436 1.26891
3691.28592 1.27320
3689.23748 1.27863
3687.18904 1.28088
3685.14061 1.28015
3683.09217 1.27891
3681.04373 1.27801
3678.99529 1.27765
3676.94685 1.27795
3674.89841 1.27901
3672.84998 1.27847
3670.80154 1.27724
3668.75310 1.27682
3666.70466 1.27606
3664.65622 1.27569
3662.60778 1.27671
3660.55935 1.27830
3658.51091 1.27960
3656.46247 1.28190
3654.41403 1.28464
3652.36559 1.28612
3650.31715 1.29004
3648.26872 1.29774
3646.22028 1.29904
3644.17184 1.29755
3642.12340 1.29702
3640.07496 1.29805
3638.02652 1.30003
3635.97809 1.30258
3633.92965 1.30650
3631.88121 1.31060
3629.83277 1.31455
3627.78433 1.32066
3625.73589 1.32416
3623.68746 1.32546
3621.63902 1.32783
3619.59058 1.33351
3617.54214 1.33972
3615.49370 1.34317
3613.44526 1.34626
3611.39682 1.34896
3609.34839 1.35218
3607.29995 1.35743
3605.25151 1.36241
3603.20307 1.36731
3601.15463 1.37336
3599.10619 1.37906
3597.05776 1.38423
3595.00932 1.38929
3592.96088 1.39180
3590.91244 1.39153
3588.86400 1.39163
3586.81556 1.39314
3584.76713 1.39291
3582.71869 1.39201
3580.67025 1.39282
3578.62181 1.39469
3576.57337 1.39698
3574.52493 1.40075
3572.47650 1.40537
3570.42806 1.40955
3568.37962 1.41393
3566.33118 1.41827
3564.28274 1.41992
3562.23430 1.42072
3560.18587 1.42178
3558.13743 1.42269
3556.08899 1.42465
3554.04055 1.42855
3551.99211 1.43247
3549.94367 1.43456
3547.89524 1.43673
3545.84680 1.44015
3543.79836 1.44290
3541.74992 1.44413
3539.70148 1.44539
3537.65304 1.44755
3535.60461 1.44976
3533.55617 1.45176
3531.50773 1.45481
3529.45929 1.45878
3527.41085 1.46218
3525.36241 1.46519
3523.31398 1.46787
3521.26554 1.46958
3519.21710 1.47100
3517.16866 1.47269
3515.12022 1.47465
3513.07178 1.47685
3511.02335 1.47947
3508.97491 1.48266
3506.92647 1.48550
3504.87803 1.48803
3502.82959 1.49030
3500.78115 1.49156
3498.73272 1.49293
3496.68428 1.49459
3494.63584 1.49576
3492.58740 1.49701
3490.53896 1.49951
3488.49052 1.50292
3486.44209 1.50578
3484.39365 1.50793
3482.34521 1.50999
3480.29677 1.51109
3478.24833 1.51125
3476.19989 1.51176
3474.15146 1.51244
3472.10302 1.51287
3470.05458 1.51324
3468.00614 1.51372
3465.95770 1.51425
3463.90926 1.51508
3461.86082 1.51626
3459.81239 1.51677
3457.76395 1.51610
3455.71551 1.51527
3453.66707 1.51507
3451.61863 1.51579
3449.57019 1.51724
3447.52176 1.51908
3445.47332 1.52117
3443.42488 1.52216
3441.37644 1.52219
3439.32800 1.52224
3437.27956 1.52192
3435.23113 1.52138
3433.18269 1.52128
3431.13425 1.52175
3429.08581 1.52271
3427.03737 1.52403
3424.98893 1.52516
3422.94050 1.52582
3420.89206 1.52641
3418.84362 1.52693
3416.79518 1.52707
3414.74674 1.52754
3412.69830 1.52882
3410.64987 1.52962
3408.60143 1.52940
3406.55299 1.52963
3404.50455 1.53100
3402.45611 1.53214
3400.40767 1.53203
3398.35924 1.53185
3396.31080 1.53291
3394.26236 1.53439
3392.21392 1.53529
3390.16548 1.53568
3388.11704 1.53602
3386.06861 1.53667
3384.02017 1.53729
3381.97173 1.53776
3379.92329 1.53840
3377.87485 1.53899
3375.82641 1.53949
3373.77798 1.53983
3371.72954 1.53974
3369.68110 1.53968
3367.63266 1.54001
3365.58422 1.54062
3363.53578 1.54160
3361.48735 1.54304
3359.43891 1.54425
3357.39047 1.54460
3355.34203 1.54452
3353.29359 1.54465
3351.24515 1.54481
3349.19672 1.54474
3347.14828 1.54508
3345.09984 1.54555
3343.05140 1.54538
3341.00296 1.54545
3338.95452 1.54627
3336.90609 1.54705
3334.85765 1.54772
3332.80921 1.54849
3330.76077 1.54880
3328.71233 1.54826
3326.66389 1.54756
3324.61545 1.54721
3322.56702 1.54670
3320.51858 1.54628
3318.47014 1.54657
3316.42170 1.54745
3314.37326 1.54870
3312.32482 1.54970
3310.27639 1.54984
3308.22795 1.54954
3306.17951 1.54913
3304.13107 1.54846
3302.08263 1.54799
3300.03419 1.54817
3297.98576 1.54858
3295.93732 1.54938
3293.88888 1.55020
3291.84044 1.55019
3289.79200 1.54978
3287.74356 1.54940
3285.69513 1.54899
3283.64669 1.54855
3281.59825 1.54868
3279.54981 1.54955
3277.50137 1.55065
3275.45293 1.55126
3273.40450 1.55122
3271.35606 1.55131
3269.30762 1.55144
3267.25918 1.55136
3265.21074 1.55225
3263.16230 1.55405
3261.11387 1.55446
3259.06543 1.55346
3257.01699 1.55286
3254.96855 1.55285
3252.92011 1.55291
3250.87167 1.55280
3248.82324 1.55238
3246.77480 1.55216
3244.72636 1.55273
3242.67792 1.55320
3240.62948 1.55266
3238.58104 1.55173
3236.53261 1.55142
3234.48417 1.55212
3232.43573 1.55312
3230.38729 1.55336
3228.33885 1.55329
3226.29041 1.55329
3224.24198 1.55341
3222.19354 1.55401
3220.14510 1.55403
3218.09666 1.55254
3216.04822 1.55009
3213.99978 1.54788
3211.95135 1.54755
3209.90291 1.54860
3207.85447 1.54887
3205.80603 1.54850
3203.75759 1.54835
3201.70915 1.54797
3199.66072 1.54713
3197.61228 1.54594
3195.56384 1.54481
3193.51540 1.54404
3191.46696 1.54333
3189.41852 1.54216
3187.37008 1.54049
3185.32165 1.53872
3183.27321 1.53739
3181.22477 1.53673
3179.17633 1.53541
3177.12789 1.53304
3175.07945 1.53115
3173.03102 1.53037
3170.98258 1.53045
3168.93414 1.53019
3166.88570 1.52863
3164.83726 1.52714
3162.78882 1.52684
3160.74039 1.52660
3158.69195 1.52523
3156.64351 1.52336
3154.59507 1.52244
3152.54663 1.52253
3150.49819 1.52235
3148.44976 1.52157
3146.40132 1.52102
3144.35288 1.52085
3142.30444 1.52042
3140.25600 1.51943
3138.20756 1.51858
3136.15913 1.51851
3134.11069 1.51870
3132.06225 1.51833
3130.01381 1.51770
3127.96537 1.51729
3125.91693 1.51666
3123.86850 1.51576
3121.82006 1.51516
3119.77162 1.51489
3117.72318 1.51469
3115.67474 1.51444
3113.62630 1.51406
3111.57787 1.51395
3109.52943 1.51425
3107.48099 1.51412
3105.43255 1.51326
3103.38411 1.51212
3101.33567 1.51087
3099.28724 1.50998
3097.23880 1.50945
3095.19036 1.50876
3093.14192 1.50810
3091.09348 1.50770
3089.04504 1.50741
3086.99661 1.50708
3084.94817 1.50658
3082.89973 1.50602
3080.85129 1.50580
3078.80285 1.50583
3076.75441 1.50578
3074.70598 1.50582
3072.65754 1.50622
3070.60910 1.50680
3068.56066 1.50740
3066.51222 1.50810
3064.46378 1.50897
3062.41535 1.50965
3060.36691 1.50937
3058.31847 1.50900
3056.27003 1.51012
3054.22159 1.51214
3052.17315 1.51455
3050.12471 1.51761
3048.07628 1.52078
3046.02784 1.52362
3043.97940 1.52657
3041.93096 1.52961
3039.88252 1.53174
3037.83408 1.53293
3035.78565 1.53388
3033.73721 1.53522
3031.68877 1.53724
3029.64033 1.53902
3027.59189 1.53989
3025.54345 1.54049
3023.49502 1.54157
3021.44658 1.54260
3019.39814 1.54359
3017.34970 1.54526
3015.30126 1.54649
3013.25282 1.54723
3011.20439 1.54929
3009.15595 1.55262
3007.10751 1.55564
3005.05907 1.55771
3003.01063 1.55918
3000.96219 1.56039
2998.91376 1.56144
2996.86532 1.56249
2994.81688 1.56354
2992.76844 1.56413
2990.72000 1.56469
2988.67156 1.56574
2986.62313 1.56633
2984.57469 1.56611
2982.52625 1.56572
2980.47781 1.56536
2978.42937 1.56530
2976.38093 1.56556
2974.33250 1.56561
2972.28406 1.56552
2970.23562 1.56544
2968.18718 1.56484
2966.13874 1.56411
2964.09030 1.56421
2962.04187 1.56447
2959.99343 1.56437
2957.94499 1.56437
2955.89655 1.56472
2953.84811 1.56550
2951.79967 1.56617
2949.75124 1.56642
2947.70280 1.56733
2945.65436 1.56925
2943.60592 1.57056
2941.55748 1.57078
2939.50904 1.57140
2937.46061 1.57325
2935.41217 1.57537
2933.36373 1.57638
2931.31529 1.57661
2929.26685 1.57728
2927.21841 1.57842
2925.16998 1.57923
2923.12154 1.57999
2921.07310 1.58109
2919.02466 1.58190
2916.97622 1.58115
2914.92778 1.57807
2912.87934 1.57352
2910.83091 1.56899
2908.78247 1.56549
2906.73403 1.56308
2904.68559 1.56130
2902.63715 1.55978
2900.58871 1.55827
2898.54028 1.55665
2896.49184 1.55458
2894.44340 1.55201
2892.39496 1.54930
2890.34652 1.54648
2888.29808 1.54333
2886.24965 1.53997
2884.20121 1.53738
2882.15277 1.53582
2880.10433 1.53412
2878.05589 1.53261
2876.00745 1.53203
2873.95902 1.53184
2871.91058 1.53217
2869.86214 1.53308
2867.81370 1.53448
2865.76526 1.53661
2863.71682 1.53839
2861.66839 1.53946
2859.61995 1.54135
2857.57151 1.54435
2855.52307 1.54735
2853.47463 1.54892
2851.42619 1.54825
2849.37776 1.54548
2847.32932 1.54100
2845.28088 1.53599
2843.23244 1.53016
2841.18400 1.52217
2839.13556 1.51299
2837.08713 1.50417
2835.03869 1.49596
2832.99025 1.48862
2830.94181 1.48257
2828.89337 1.47776
2826.84493 1.47361
2824.79650 1.46929
2822.74806 1.46541
2820.69962 1.46284
2818.65118 1.46094
2816.60274 1.45899
2814.55430 1.45701
2812.50587 1.45531
2810.45743 1.45402
2808.40899 1.45283
2806.36055 1.45146
2804.31211 1.45001
2802.26367 1.44864
2800.21524 1.44751
2798.16680 1.44666
2796.11836 1.44582
2794.06992 1.44480
2792.02148 1.44378
2789.97304 1.44308
2787.92461 1.44284
2785.87617 1.44283
2783.82773 1.44268
2781.77929 1.44237
2779.73085 1.44242
2777.68241 1.44288
2775.63397 1.44262
2773.58554 1.44159
2771.53710 1.44104
2769.48866 1.44082
2767.44022 1.44029
2765.39178 1.43968
2763.34334 1.43911
2761.29491 1.43834
2759.24647 1.43730
2757.19803 1.43645
2755.14959 1.43625
2753.10115 1.43658
2751.05271 1.43681
2749.00428 1.43671
2746.95584 1.43712
2744.90740 1.43800
2742.85896 1.43851
2740.81052 1.43890
2738.76208 1.43922
2736.71365 1.43913
2734.66521 1.43896
2732.61677 1.43908
2730.56833 1.43972
2728.51989 1.44057
2726.47145 1.44099
2724.42302 1.44100
2722.37458 1.44070
2720.32614 1.44040
2718.27770 1.44078
2716.22926 1.44158
2714.18082 1.44228
2712.13239 1.44274
2710.08395 1.44313
2708.03551 1.44366
2705.98707 1.44410
2703.93863 1.44458
2701.89019 1.44523
2699.84176 1.44610
2697.79332 1.44737
2695.74488 1.44868
2693.69644 1.44983
2691.64800 1.45067
2689.59956 1.45150
2687.55113 1.45319
2685.50269 1.45564
2683.45425 1.45810
2681.40581 1.46043
2679.35737 1.46289
2677.30893 1.46576
2675.26050 1.46902
2673.21206 1.47273
2671.16362 1.47738
2669.11518 1.48295
2667.06674 1.48942
2665.01830 1.49739
2662.96987 1.50636
2660.92143 1.51527
2658.87299 1.52364
2656.82455 1.53059
2654.77611 1.53550
2652.72767 1.53922
2650.67924 1.54275
2648.63080 1.54628
2646.58236 1.54935
2644.53392 1.55206
2642.48548 1.55466
2640.43704 1.55700
2638.38860 1.55914
2636.34017 1.56088
2634.29173 1.56251
2632.24329 1.56443
2630.19485 1.56564
2628.14641 1.56526
2626.09797 1.56421
2624.04954 1.56388
2622.00110 1.56406
2619.95266 1.56382
2617.90422 1.56364
2615.85578 1.56402
2613.80734 1.56379
2611.75891 1.56278
2609.71047 1.56216
2607.66203 1.56205
2605.61359 1.56183
2603.56515 1.56158
2601.51671 1.56188
2599.46828 1.56255
2597.41984 1.56278
2595.37140 1.56255
2593.32296 1.56249
2591.27452 1.56351
2589.22608 1.56557
2587.17765 1.56720
2585.12921 1.56831
2583.08077 1.57002
2581.03233 1.57206
2578.98389 1.57397
2576.93545 1.57593
2574.88702 1.57797
2572.83858 1.58010
2570.79014 1.58224
2568.74170 1.58452
2566.69326 1.58711
2564.64482 1.58977
2562.59639 1.59216
2560.54795 1.59448
2558.49951 1.59664
2556.45107 1.59878
2554.40263 1.60227
2552.35419 1.60735
2550.30576 1.61123
2548.25732 1.61109
2546.20888 1.60747
2544.16044 1.60299
2542.11200 1.59999
2540.06356 1.60075
2538.01513 1.60593
2535.96669 1.61327
2533.91825 1.62080
2531.86981 1.62767
2529.82137 1.63224
2527.77293 1.63372
2525.72450 1.63333
2523.67606 1.63206
2521.62762 1.62985
2519.57918 1.62630
2517.53074 1.62183
2515.48230 1.61768
2513.43387 1.61514
2511.38543 1.61547
2509.33699 1.61862
2507.28855 1.62302
2505.24011 1.62747
2503.19167 1.63125
2501.14324 1.63296
2499.09480 1.63223
2497.04636 1.63023
2494.99792 1.62767
2492.94948 1.62439
2490.90104 1.62098
2488.85260 1.61764
2486.80417 1.61298
2484.75573 1.60720
2482.70729 1.60149
2480.65885 1.59465
2478.61041 1.58524
2476.56197 1.57442
2474.51354 1.56429
2472.46510 1.55546
2470.41666 1.54719
2468.36822 1.53957
2466.31978 1.53303
2464.27134 1.52678
2462.22291 1.51974
2460.17447 1.51218
2458.12603 1.50582
2456.07759 1.50136
2454.02915 1.49811
2451.98071 1.49516
2449.93228 1.49261
2447.88384 1.49112
2445.83540 1.48987
2443.78696 1.48828
2441.73852 1.48701
2439.69008 1.48609
2437.64165 1.48528
2435.59321 1.48467
2433.54477 1.48401
2431.49633 1.48323
2429.44789 1.48242
2427.39945 1.48176
2425.35102 1.48112
2423.30258 1.48051
2421.25414 1.48035
2419.20570 1.48059
2417.15726 1.48086
2415.10882 1.48098
2413.06039 1.48123
2411.01195 1.48183
2408.96351 1.48233
2406.91507 1.48253
2404.86663 1.48296
2402.81819 1.48361
2400.76976 1.48412
2398.72132 1.48470
2396.67288 1.48567
2394.62444 1.48714
2392.57600 1.48876
2390.52756 1.49021
2388.47913 1.49177
2386.43069 1.49385
2384.38225 1.49667
2382.33381 1.50020
2380.28537 1.50358
2378.23693 1.50657
2376.18850 1.51083
2374.14006 1.51595
2372.09162 1.52039
2370.04318 1.52610
2367.99474 1.53267
2365.94630 1.53649
2363.89787 1.53673
2361.84943 1.53627
2359.80099 1.54056
2357.75255 1.54761
2355.70411 1.55073
2353.65567 1.54821
2351.60723 1.54289
2349.55880 1.53854
2347.51036 1.53681
2345.46192 1.53796
2343.41348 1.53942
2341.36504 1.53786
2339.31660 1.53584
2337.26817 1.53620
2335.21973 1.53676
2333.17129 1.53556
2331.12285 1.53430
2329.07441 1.53520
2327.02597 1.53743
2324.97754 1.53789
2322.92910 1.53575
2320.88066 1.53171
2318.83222 1.52644
2316.78378 1.52136
2314.73534 1.51763
2312.68691 1.51515
2310.63847 1.51314
2308.59003 1.51113
2306.54159 1.50877
2304.49315 1.50591
2302.44471 1.50261
2300.39628 1.49870
2298.34784 1.49456
2296.29940 1.49110
2294.25096 1.48848
2292.20252 1.48639
2290.15408 1.48471
2288.10565 1.48321
2286.05721 1.48164
2284.00877 1.48087
2281.96033 1.48146
2279.91189 1.48264
2277.86345 1.48406
2275.81502 1.48563
2273.76658 1.48685
2271.71814 1.48795
2269.66970 1.48954
2267.62126 1.49137
2265.57282 1.49326
2263.52439 1.49517
2261.47595 1.49665
2259.42751 1.49775
2257.37907 1.49845
2255.33063 1.49887
2253.28219 1.49947
2251.23376 1.50042
2249.18532 1.50175
2247.13688 1.50288
2245.08844 1.50322
2243.04000 1.50297
2240.99156 1.50264
2238.94313 1.50263
2236.89469 1.50325
2234.84625 1.50421
2232.79781 1.50539
2230.74937 1.50674
2228.70093 1.50785
2226.65250 1.50888
2224.60406 1.51010
2222.55562 1.51136
2220.50718 1.51238
2218.45874 1.51339
2216.41030 1.51509
2214.36186 1.51702
2212.31343 1.51850
2210.26499 1.52010
2208.21655 1.52245
2206.16811 1.52550
2204.11967 1.52844
2202.07123 1.53075
2200.02280 1.53275
2197.97436 1.53471
2195.92592 1.53692
2193.87748 1.53916
2191.82904 1.54105
2189.78060 1.54264
2187.73217 1.54469
2185.68373 1.54807
2183.63529 1.55213
2181.58685 1.55547
2179.53841 1.55730
2177.48997 1.55748
2175.44154 1.55739
2173.39310 1.55851
2171.34466 1.56055
2169.29622 1.56322
2167.24778 1.56644
2165.19934 1.56979
2163.15091 1.57299
2161.10247 1.57587
2159.05403 1.57948
2157.00559 1.58409
2154.95715 1.58777
2152.90871 1.58859
2150.86028 1.58622
2148.81184 1.58203
2146.76340 1.57770
2144.71496 1.57443
2142.66652 1.57294
2140.61808 1.57341
2138.56965 1.57493
2136.52121 1.57589
2134.47277 1.57506
2132.42433 1.57302
2130.37589 1.57137
2128.32745 1.57014
2126.27902 1.56907
2124.23058 1.56850
2122.18214 1.56837
2120.13370 1.56853
2118.08526 1.56839
2116.03682 1.56736
2113.98839 1.56560
2111.93995 1.56259
2109.89151 1.55812
2107.84307 1.55372
2105.79463 1.55011
2103.74619 1.54625
2101.69776 1.54148
2099.64932 1.53668
2097.60088 1.53329
2095.55244 1.53151
2093.50400 1.53082
2091.45556 1.53054
2089.40713 1.53015
2087.35869 1.52944
2085.31025 1.52859
2083.26181 1.52844
2081.21337 1.52919
2079.16493 1.53032
2077.11649 1.53184
2075.06806 1.53373
2073.01962 1.53528
2070.97118 1.53643
2068.92274 1.53805
2066.87430 1.53994
2064.82586 1.54135
2062.77743 1.54245
2060.72899 1.54355
2058.68055 1.54463
2056.63211 1.54549
2054.58367 1.54634
2052.53523 1.54743
2050.48680 1.54844
2048.43836 1.54930
2046.38992 1.55022
2044.34148 1.55116
2042.29304 1.55176
2040.24460 1.55189
2038.19617 1.55230
2036.14773 1.55369
2034.09929 1.55530
2032.05085 1.55615
2030.00241 1.55681
2027.95397 1.55777
2025.90554 1.55889
2023.85710 1.56030
2021.80866 1.56182
2019.76022 1.56318
2017.71178 1.56420
2015.66334 1.56472
2013.61491 1.56509
2011.56647 1.56574
2009.51803 1.56651
2007.46959 1.56737
2005.42115 1.56873
2003.37271 1.57038
2001.32428 1.57187
1999.27584 1.57336
1997.22740 1.57495
1995.17896 1.57700
1993.13052 1.58068
1991.08208 1.58524
1989.03365 1.58835
1986.98521 1.59041
1984.93677 1.59276
1982.88833 1.59515
1980.83989 1.59677
1978.79145 1.59809
1976.74302 1.59980
1974.69458 1.60172
1972.64614 1.60381
1970.59770 1.60590
1968.54926 1.60850
1966.50082 1.61122
1964.45239 1.61241
1962.40395 1.61305
1960.35551 1.61474
1958.30707 1.61700
1956.25863 1.61918
1954.21019 1.62120
1952.16176 1.62300
1950.11332 1.62494
1948.06488 1.62708
1946.01644 1.62902
1943.96800 1.63100
1941.91956 1.63320
1939.87112 1.63508
1937.82269 1.63713
1935.77425 1.63940
1933.72581 1.64127
1931.67737 1.64239
1929.62893 1.64270
1927.58049 1.64323
1925.53206 1.64478
1923.48362 1.64721
1921.43518 1.64969
1919.38674 1.65212
1917.33830 1.65514
1915.28986 1.65755
1913.24143 1.65924
1911.19299 1.66125
1909.14455 1.66324
1907.09611 1.66521
1905.04767 1.66769
1902.99923 1.67076
1900.95080 1.67410
1898.90236 1.67684
1896.85392 1.67909
1894.80548 1.68155
1892.75704 1.68424
1890.70860 1.68771
1888.66017 1.69194
1886.61173 1.69503
1884.56329 1.69740
1882.51485 1.70025
1880.46641 1.70360
1878.41797 1.70674
1876.36954 1.70906
1874.32110 1.71163
1872.27266 1.71463
1870.22422 1.71865
1868.17578 1.72423
1866.12734 1.72795
1864.07891 1.73039
1862.03047 1.73419
1859.98203 1.73858
1857.93359 1.74238
1855.88515 1.74636
1853.83671 1.75109
1851.78828 1.75589
1849.73984 1.76048
1847.69140 1.76552
1845.64296 1.77129
1843.59452 1.77785
1841.54608 1.78366
1839.49765 1.78887
1837.44921 1.79452
1835.40077 1.80000
1833.35233 1.80491
1831.30389 1.81106
1829.25545 1.81979
1827.20702 1.82680
1825.15858 1.83206
1823.11014 1.83894
1821.06170 1.84662
1819.01326 1.85478
1816.96482 1.86455
1814.91639 1.87441
1812.86795 1.88343
1810.81951 1.89332
1808.77107 1.90395
1806.72263 1.91511
1804.67419 1.92686
1802.62575 1.93949
1800.57732 1.95325
1798.52888 1.96441
1796.48044 1.97108
1794.43200 1.97655
1792.38356 1.98260
1790.33512 1.98186
1788.28669 1.97287
1786.23825 1.96341
1784.18981 1.95922
1782.14137 1.95869
1780.09293 1.95704
1778.04449 1.95472
1775.99606 1.95497
1773.94762 1.95871
1771.89918 1.96582
1769.85074 1.97349
1767.80230 1.97837
1765.75386 1.97985
1763.70543 1.98043
1761.65699 1.98430
1759.60855 1.99025
1757.56011 1.99582
1755.51167 2.00050
1753.46323 2.00524
1751.41480 2.01445
1749.36636 2.02546
1747.31792 2.02982
1745.26948 2.03153
1743.22104 2.03375
1741.17260 2.03607
1739.12417 2.03853
1737.07573 2.04026
1735.02729 2.04394
1732.97885 2.04974
1730.93041 2.05199
1728.88197 2.05302
1726.83354 2.05419
1724.78510 2.05618
1722.73666 2.05930
1720.68822 2.06404
1718.63978 2.07174
1716.59134 2.07905
1714.54291 2.07645
1712.49447 2.07280
1710.44603 2.07278
1708.39759 2.07634
1706.34915 2.08206
1704.30071 2.08685
1702.25228 2.09213
1700.20384 2.10082
1698.15540 2.10409
1696.10696 2.09827
1694.05852 2.09333
1692.01008 2.09157
1689.96165 2.09545
1687.91321 2.10390
1685.86477 2.11399
1683.81633 2.12207
1681.76789 2.11917
1679.71945 2.11544
1677.67102 2.11290
1675.62258 2.11120
1673.57414 2.11054
1671.52570 2.11397
1669.47726 2.11898
1667.42882 2.11935
1665.38038 2.11682
1663.33195 2.11571
1661.28351 2.11623
1659.23507 2.11807
1657.18663 2.12004
1655.13819 2.11795
1653.08975 2.11113
1651.04132 2.11231
1648.99288 2.11752
1646.94444 2.11341
1644.89600 2.10660
1642.84756 2.10484
1640.79912 2.10407
1638.75069 2.10418
1636.70225 2.10420
1634.65381 2.09329
1632.60537 2.08185
1630.55693 2.07610
1628.50849 2.06950
1626.46006 2.06125
1624.41162 2.05050
1622.36318 2.03784
1620.31474 2.02492
1618.26630 2.01330
1616.21786 1.99279
1614.16943 1.96908
1612.12099 1.94978
1610.07255 1.92918
1608.02411 1.90330
1605.97567 1.87262
1603.92723 1.83910
1601.87880 1.79971
1599.83036 1.75711
1597.78192 1.71020
1595.73348 1.65486
1593.68504 1.59025
1591.63660 1.52068
1589.58817 1.44690
1587.53973 1.37441
1585.49129 1.31209
1583.44285 1.26744
1581.39441 1.24526
1579.34597 1.24271
1577.29754 1.26161
1575.24910 1.30655
1573.20066 1.34346
1571.15222 1.37066
1569.10378 1.39201
1567.05534 1.37694
1565.00691 1.32313
1562.95847 1.26132
1560.91003 1.20166
1558.86159 1.07511
1556.81315 0.97642
1554.76471 0.94068
1552.71628 0.91097
1550.66784 0.88671
1548.61940 0.86782
1546.57096 0.85654
1544.52252 0.84976
1542.47408 0.84339
1540.42565 0.83338
1538.37721 0.82421
1536.32877 0.82011
1534.28033 0.81676
1532.23189 0.81247
1530.18345 0.80930
1528.13501 0.80781
1526.08658 0.80703
1524.03814 0.80591
1521.98970 0.80444
1519.94126 0.80294
1517.89282 0.80168
1515.84438 0.80010
1513.79595 0.79840
1511.74751 0.79810
1509.69907 0.79877
1507.65063 0.79782
1505.60219 0.79287
1503.55375 0.78970
1501.50532 0.78772
1499.45688 0.78647
1497.40844 0.78551
1495.36000 0.78361
1493.31156 0.78206
1491.26312 0.78245
1489.21469 0.78421
1487.16625 0.78325
1485.11781 0.78106
1483.06937 0.78019
1481.02093 0.78083
1478.97249 0.78211
1476.92406 0.78431
1474.87562 0.78799
1472.82718 0.79227
1470.77874 0.79445
1468.73030 0.79577
1466.68186 0.79995
1464.63343 0.80961
1462.58499 0.82145
1460.53655 0.83441
1458.48811 0.86525
1456.43967 0.93711
1454.39123 0.98794
1452.34280 1.01685
1450.29436 1.04552
1448.24592 1.07675
1446.19748 1.10616
1444.14904 1.12868
1442.10060 1.14798
1440.05217 1.16577
1438.00373 1.18426
1435.95529 1.20806
1433.90685 1.22575
1431.85841 1.23834
1429.80997 1.25237
1427.76154 1.26498
1425.71310 1.27497
1423.66466 1.28492
1421.61622 1.29429
1419.56778 1.30564
1417.51934 1.31917
1415.47091 1.32712
1413.42247 1.33439
1411.37403 1.34353
1409.32559 1.35269
1407.27715 1.36072
1405.22871 1.36971
1403.18028 1.37824
1401.13184 1.38547
1399.08340 1.39405
1397.03496 1.40303
1394.98652 1.41106
1392.93808 1.41694
1390.88965 1.42105
1388.84121 1.42607
1386.79277 1.43328
1384.74433 1.43891
1382.69589 1.44353
1380.64745 1.44904
1378.59901 1.45525
1376.55058 1.46178
1374.50214 1.46859
1372.45370 1.47402
1370.40526 1.47778
1368.35682 1.48207
1366.30838 1.48677
1364.25995 1.49284
1362.21151 1.50000
1360.16307 1.50506
1358.11463 1.50812
1356.06619 1.51163
1354.01775 1.51579
1351.96932 1.52017
1349.92088 1.52473
1347.87244 1.52871
1345.82400 1.53196
1343.77556 1.53499
1341.72712 1.53939
1339.67869 1.54574
1337.63025 1.55136
1335.58181 1.55367
1333.53337 1.55523
1331.48493 1.55786
1329.43649 1.56142
1327.38806 1.56495
1325.33962 1.56797
1323.29118 1.57150
1321.24274 1.57595
1319.19430 1.58053
1317.14586 1.58402
1315.09743 1.58691
1313.04899 1.58936
1311.00055 1.59178
1308.95211 1.59451
1306.90367 1.59720
1304.85523 1.59949
1302.80680 1.60142
1300.75836 1.60330
1298.70992 1.60563
1296.66148 1.60862
1294.61304 1.61161
1292.56460 1.61468
1290.51617 1.61803
1288.46773 1.62158
1286.41929 1.62431
1284.37085 1.62610
1282.32241 1.62779
1280.27397 1.62955
1278.22554 1.63113
1276.17710 1.63248
1274.12866 1.63419
1272.08022 1.63644
1270.03178 1.63915
1267.98334 1.64162
1265.93491 1.64360
1263.88647 1.64515
1261.83803 1.64656
1259.78959 1.64821
1257.74115 1.65030
1255.69271 1.65250
1253.64428 1.65442
1251.59584 1.65668
1249.54740 1.65901
1247.49896 1.66046
1245.45052 1.66180
1243.40208 1.66388
1241.35364 1.66578
1239.30521 1.66707
1237.25677 1.66868
1235.20833 1.67075
1233.15989 1.67209
1231.11145 1.67337
1229.06301 1.67589
1227.01458 1.67862
1224.96614 1.68085
1222.91770 1.68295
1220.86926 1.68484
1218.82082 1.68653
1216.77238 1.68805
1214.72395 1.68908
1212.67551 1.69014
1210.62707 1.69194
1208.57863 1.69414
1206.53019 1.69609
1204.48175 1.69800
1202.43332 1.69999
1200.38488 1.70135
1198.33644 1.70245
1196.28800 1.70424
1194.23956 1.70644
1192.19112 1.70835
1190.14269 1.70930
1188.09425 1.70958
1186.04581 1.71108
1183.99737 1.71410
1181.94893 1.71667
1179.90049 1.71784
1177.85206 1.71822
1175.80362 1.71845
1173.75518 1.71881
1171.70674 1.71943
1169.65830 1.72030
1167.60986 1.72138
1165.56143 1.72238
1163.51299 1.72295
1161.46455 1.72278
1159.41611 1.72192
1157.36767 1.72141
1155.31923 1.72155
1153.27080 1.72157
1151.22236 1.72120
1149.17392 1.72066
1147.12548 1.72030
1145.07704 1.72059
1143.02860 1.72190
1140.98017 1.72362
1138.93173 1.72419
1136.88329 1.72394
1134.83485 1.72497
1132.78641 1.72715
1130.73797 1.72783
1128.68954 1.72578
1126.64110 1.72285
1124.59266 1.72157
1122.54422 1.72283
1120.49578 1.72491
1118.44734 1.72573
1116.39891 1.72550
1114.35047 1.72621
1112.30203 1.72906
1110.25359 1.73331
1108.20515 1.73780
1106.15671 1.74211
1104.10827 1.74634
1102.05984 1.75087
1100.01140 1.75667
1097.96296 1.76416
1095.91452 1.77298
1093.86608 1.78292
1091.81764 1.79588
1089.76921 1.81615
1087.72077 1.83809
1085.67233 1.80620
1083.62389 1.71873
1081.57545 1.67873
1079.52701 1.70678
1077.47858 1.73980
1075.43014 1.74981
1073.38170 1.74964
1071.33326 1.74731
1069.28482 1.74472
1067.23638 1.74038
1065.18795 1.73693
1063.13951 1.74061
1061.09107 1.75133
1059.04263 1.75396
1056.99419 1.74184
1054.94575 1.72952
1052.89732 1.72533
1050.84888 1.72462
1048.80044 1.72466
1046.75200 1.72533
1044.70356 1.72645
1042.65512 1.72789
1040.60669 1.73067
1038.55825 1.73430
1036.50981 1.73619
1034.46137 1.73683
1032.41293 1.73776
1030.36449 1.73951
1028.31606 1.74195
1026.26762 1.74508
1024.21918 1.74881
1022.17074 1.75291
1020.12230 1.75650
1018.07386 1.75913
1016.02543 1.76171
1013.97699 1.76576
1011.92855 1.77189
1009.88011 1.77822
1007.83167 1.78327
1005.78323 1.78774
1003.73480 1.79216
1001.68636 1.79692
999.63792 1.80319
997.58948 1.81119
995.54104 1.82027
993.49260 1.82791
991.44417 1.83197
989.39573 1.83410
987.34729 1.83730
985.29885 1.84199
983.25041 1.84687
981.20197 1.85138
979.15354 1.85497
977.10510 1.85760
975.05666 1.85922
973.00822 1.86070
970.95978 1.86344
968.91134 1.86720
966.86290 1.87179
964.81447 1.87790
962.76603 1.88343
960.71759 1.88618
958.66915 1.88821
956.62071 1.89091
954.57227 1.89431
952.52384 1.89872
950.47540 1.90340
948.42696 1.90765
946.37852 1.91202
944.33008 1.91669
942.28164 1.92172
940.23321 1.92645
938.18477 1.93013
936.13633 1.93411
934.08789 1.94067
932.03945 1.95012
929.99101 1.95892
927.94258 1.96387
925.89414 1.96579
923.84570 1.96911
921.79726 1.97644
919.74882 1.98525
917.70038 1.99223
915.65195 1.99855
913.60351 2.01002
911.55507 2.02716
909.50663 2.03890
907.45819 2.03954
905.40975 2.03705
903.36132 2.03695
901.31288 2.04020
899.26444 2.04533
897.21600 2.04639
895.16756 2.04116
893.11912 2.03239
891.07069 2.01757
889.02225 1.98990
886.97381 1.94084
884.92537 1.85639
882.87693 1.71180
880.82849 1.49059
878.78006 1.25366
876.73162 1.07931
874.68318 0.98476
872.63474 0.94413
870.58630 0.92677
868.53786 0.91717
866.48943 0.91120
864.44099 0.90794
862.39255 0.90683
860.34411 0.90724
858.29567 0.90938
856.24723 0.91851
854.19880 0.95289
852.15036 1.03442
850.10192 1.15679
848.05348 1.27873
846.00504 1.35871
843.95660 1.38797
841.90817 1.40655
839.85973 1.44443
837.81129 1.48607
835.76285 1.51822
833.71441 1.54443
831.66597 1.56772
829.61753 1.58832
827.56910 1.60566
825.52066 1.61962
823.47222 1.63242
821.42378 1.64592
819.37534 1.65780
817.32690 1.66645
815.27847 1.67309
813.23003 1.67921
811.18159 1.68621
809.13315 1.69451
807.08471 1.70210
805.03627 1.70677
802.98784 1.70940
800.93940 1.71338
798.89096 1.71883
796.84252 1.72349
794.79408 1.72792
792.74564 1.73422
790.69721 1.74136
788.64877 1.74637
786.60033 1.74980
784.55189 1.75373
782.50345 1.75751
780.45501 1.75891
778.40658 1.76080
776.35814 1.76678
774.30970 1.77148
772.26126 1.77161
770.21282 1.77261
768.16438 1.77522
766.11595 1.77755
764.06751 1.78133
762.01907 1.78607
759.97063 1.79059
757.92219 1.79701
755.87375 1.80571
753.82532 1.81240
751.77688 1.81375
749.72844 1.81378
747.68000 1.81831
745.63156 1.82532
743.58312 1.82962
741.53469 1.82998
739.48625 1.82807
737.43781 1.82697
735.38937 1.83395
733.34093 1.84988
731.29249 1.86558
729.24406 1.87734
727.19562 1.88915
725.14718 1.90739
723.09874 1.93861
721.05030 1.97944
719.00186 2.00454
716.95343 1.92632
714.90499 1.74290
712.85655 1.62891
710.80811 1.65041
708.75967 1.73448
706.71123 1.78829
704.66280 1.81431
702.61436 1.83102
700.56592 1.82733
698.51748 1.81225
696.46904 1.80936
694.42060 1.81807
692.37216 1.82856
690.32373 1.83713
688.27529 1.84679
686.22685 1.85505
684.17841 1.85201
682.12997 1.84821
680.08153 1.85622
678.03310 1.85800
675.98466 1.84945
673.93622 1.84755
671.88778 1.85300
669.83934 1.86823
667.79090 1.88800
665.74247 1.89112
663.69403 1.88806
661.64559 1.88245
659.59715 1.87827
657.54871 1.88496
655.50027 1.89561
653.45184 1.88649
651.40340 1.86749
649.35496 1.87499
647.30652 1.90211
645.25808 1.90967
643.20964 1.89401
641.16121 1.88164
639.11277 1.89152
637.06433 1.91363
635.01589 1.91554
632.96745 1.90586
630.91901 1.90919
628.87058 1.90384
626.82214 1.89059
624.77370 1.89713
622.72526 1.90696
620.67682 1.90430
618.62838 1.91711
616.57995 1.93296
614.53151 1.91575
612.48307 1.90477
610.43463 1.92204
608.38619 1.95694
606.33775 1.97417
604.28932 1.95077
602.24088 1.94894
600.19244 1.98977
598.14400 2.03516
