3996.50324 1.34084
3994.45480 1.34506
3992.40636 1.34858
3990.35792 1.35087
3988.30948 1.35231
3986.26104 1.35293
3984.21261 1.35396
3982.16417 1.35569
3980.11573 1.35670
3978.06729 1.35694
3976.01885 1.35763
3973.97041 1.35912
3971.92198 1.36044
3969.87354 1.36162
3967.82510 1.36260
3965.77666 1.36217
3963.72822 1.35962
3961.67978 1.35567
3959.63135 1.35123
3957.58291 1.34648
3955.53447 1.34152
3953.48603 1.33689
3951.43759 1.33303
3949.38915 1.33046
3947.34072 1.32829
3945.29228 1.32515
3943.24384 1.32374
3941.19540 1.32412
3939.14696 1.32311
3937.09852 1.32125
3935.05009 1.31920
3933.00165 1.31841
3930.95321 1.31989
3928.90477 1.31977
3926.85633 1.31723
3924.80789 1.31579
3922.75946 1.31451
3920.71102 1.31117
3918.66258 1.30901
3916.61414 1.30930
3914.56570 1.30792
3912.51726 1.30449
3910.46883 1.30129
3908.42039 1.29850
3906.37195 1.29735
3904.32351 1.30020
3902.27507 1.30286
3900.22663 1.30212
3898.17820 1.29987
3896.12976 1.29487
3894.08132 1.28919
3892.03288 1.28712
3889.98444 1.28523
3887.93600 1.27941
3885.88756 1.27592
3883.83913 1.27471
3881.79069 1.27078
3879.74225 1.26770
3877.69381 1.26351
3875.64537 1.25849
3873.59693 1.25609
3871.54850 1.25523
3869.50006 1.25645
3867.45162 1.25581
3865.40318 1.25351
3863.35474 1.25377
3861.30630 1.25216
3859.25787 1.24743
3857.20943 1.24214
3855.16099 1.24085
3853.11255 1.25408
3851.06411 1.26039
3849.01567 1.25361
3846.96724 1.24674
3844.91880 1.24365
3842.87036 1.24449
3840.82192 1.24636
3838.77348 1.25074
3836.72504 1.25520
3834.67661 1.25309
3832.62817 1.24960
3830.57973 1.24797
3828.53129 1.24668
3826.48285 1.24588
3824.43441 1.24403
3822.38598 1.24396
3820.33754 1.25165
3818.28910 1.25405
3816.24066 1.25288
3814.19222 1.25221
3812.14378 1.24838
3810.09535 1.24441
3808.04691 1.24461
3805.99847 1.24860
3803.95003 1.24939
3801.90159 1.25262
3799.85315 1.25679
3797.80472 1.25454
3795.75628 1.25269
3793.70784 1.25080
3791.65940 1.24848
3789.61096 1.24756
3787.56252 1.24767
3785.51409 1.24948
3783.46565 1.25102
3781.41721 1.25121
3779.36877 1.25385
3777.32033 1.25535
3775.27189 1.25278
3773.22346 1.25009
3771.17502 1.25085
3769.12658 1.25512
3767.07814 1.25698
3765.02970 1.25720
3762.98126 1.25695
3760.93283 1.25655
3758.88439 1.25909
3756.83595 1.26029
3754.78751 1.25736
3752.73907 1.25692
3750.69063 1.26713
3748.64219 1.27332
3746.59376 1.27093
3744.54532 1.27511
3742.49688 1.28070
3740.44844 1.27832
3738.40000 1.27547
3736.35156 1.27996
3734.30313 1.28946
3732.25469 1.29136
3730.20625 1.28789
3728.15781 1.28461
3726.10937 1.28524
3724.06093 1.28894
3722.01250 1.29168
3719.96406 1.29305
3717.91562 1.29260
3715.86718 1.29006
3713.81874 1.28828
3711.77030 1.29482
3709.72187 1.30541
3707.67343 1.30635
3705.62499 1.30400
3703.57655 1.30442
3701.52811 1.30944
3699.47967 1.31311
3697.43124 1.31354
3695.38280 1.31438
3693.33436 1.31585
3691.28592 1.32007
3689.23748 1.33052
3687.18904 1.33579
3685.14061 1.33399
3683.09217 1.33294
3681.04373 1.33435
3678.99529 1.33617
3676.94685 1.34113
3674.89841 1.35488
3672.84998 1.35984
3670.80154 1.36236
3668.75310 1.37273
3666.70466 1.37678
3664.65622 1.37774
3662.60778 1.38157
3660.55935 1.38644
3658.51091 1.39148
3656.46247 1.40155
3654.41403 1.41065
3652.36559 1.41241
3650.31715 1.42111
3648.26872 1.44609
3646.22028 1.45675
3644.17184 1.45845
3642.12340 1.46359
3640.07496 1.47353
3638.02652 1.48476
3635.97809 1.49529
3633.92965 1.50533
3631.88121 1.51397
3629.83277 1.52821
3627.78433 1.55279
3625.73589 1.56377
3623.68746 1.56823
3621.63902 1.57621
3619.59058 1.59174
3617.54214 1.60679
3615.49370 1.61414
3613.44526 1.62503
3611.39682 1.63834
3609.34839 1.64912
3607.29995 1.66380
3605.25151 1.67842
3603.20307 1.69048
3601.15463 1.70577
3599.10619 1.72287
3597.05776 1.73769
3595.00932 1.75091
3592.96088 1.75924
3590.91244 1.75976
3588.86400 1.75819
3586.81556 1.75955
3584.76713 1.76235
3582.71869 1.76545
3580.67025 1.77037
3578.62181 1.77674
3576.57337 1.78424
3574.52493 1.79481
3572.47650 1.80388
3570.42806 1.80813
3568.37962 1.81369
3566.33118 1.82492
3564.28274 1.83164
3562.23430 1.83533
3560.18587 1.84127
3558.13743 1.84741
3556.08899 1.85208
3554.04055 1.85716
3551.99211 1.86459
3549.94367 1.87002
3547.89524 1.87228
3545.84680 1.87612
3543.79836 1.88097
3541.74992 1.88470
3539.70148 1.89048
3537.65304 1.89771
3535.60461 1.90298
3533.55617 1.90530
3531.50773 1.90623
3529.45929 1.90997
3527.41085 1.91781
3525.36241 1.92569
3523.31398 1.93243
3521.26554 1.93743
3519.21710 1.93960
3517.16866 1.94340
3515.12022 1.94947
3513.07178 1.95343
3511.02335 1.95531
3508.97491 1.95844
3506.92647 1.96288
3504.87803 1.96786
3502.82959 1.97373
3500.78115 1.97740
3498.73272 1.97866
3496.68428 1.98042
3494.63584 1.98264
3492.58740 1.98277
3490.53896 1.98284
3488.49052 1.98595
3486.44209 1.99052
3484.39365 1.99443
3482.34521 1.99775
3480.29677 1.99920
3478.24833 1.99931
3476.19989 2.00095
3474.15146 2.00304
3472.10302 2.00505
3470.05458 2.00743
3468.00614 2.00937
3465.95770 2.01037
3463.90926 2.01128
3461.86082 2.01284
3459.81239 2.01443
3457.76395 2.01577
3455.71551 2.01679
3453.66707 2.01718
3451.61863 2.01685
3449.57019 2.01641
3447.52176 2.01663
3445.47332 2.01789
3443.42488 2.01896
3441.37644 2.01880
3439.32800 2.01883
3437.27956 2.02155
3435.23113 2.02491
3433.18269 2.02526
3431.13425 2.02304
3429.08581 2.02054
3427.03737 2.01991
3424.98893 2.02088
3422.94050 2.02228
3420.89206 2.02342
3418.84362 2.02435
3416.79518 2.02622
3414.74674 2.02813
3412.69830 2.02776
3410.64987 2.02552
3408.60143 2.02391
3406.55299 2.02603
3404.50455 2.03216
3402.45611 2.03632
3400.40767 2.03544
3398.35924 2.03483
3396.31080 2.03707
3394.26236 2.03823
3392.21392 2.03623
3390.16548 2.03358
3388.11704 2.03220
3386.06861 2.03238
3384.02017 2.03527
3381.97173 2.03920
3379.92329 2.04028
3377.87485 2.03972
3375.82641 2.04228
3373.77798 2.04595
3371.72954 2.04640
3369.68110 2.04543
3367.63266 2.04468
3365.58422 2.04565
3363.53578 2.04763
3361.48735 2.04759
3359.43891 2.04622
3357.39047 2.04475
3355.34203 2.04379
3353.29359 2.04411
3351.24515 2.04344
3349.19672 2.04038
3347.14828 2.03858
3345.09984 2.03906
3343.05140 2.04071
3341.00296 2.04416
3338.95452 2.04659
3336.90609 2.04577
3334.85765 2.04451
3332.80921 2.04401
3330.76077 2.04347
3328.71233 2.04463
3326.66389 2.04685
3324.61545 2.04796
3322.56702 2.04927
3320.51858 2.04836
3318.47014 2.04471
3316.42170 2.04550
3314.37326 2.05061
3312.32482 2.05305
3310.27639 2.05070
3308.22795 2.04773
3306.17951 2.04913
3304.13107 2.05328
3302.08263 2.05517
3300.03419 2.05300
3297.98576 2.04764
3295.93732 2.04285
3293.88888 2.04349
3291.84044 2.04853
3289.79200 2.05094
3287.74356 2.05111
3285.69513 2.05444
3283.64669 2.05597
3281.59825 2.05232
3279.54981 2.04964
3277.50137 2.05012
3275.45293 2.05103
3273.40450 2.05085
3271.35606 2.05003
3269.30762 2.05094
3267.25918 2.05386
3265.21074 2.05542
3263.16230 2.05409
3261.11387 2.05240
3259.06543 2.05414
3257.01699 2.05733
3254.96855 2.05702
3252.92011 2.05547
3250.87167 2.05612
3248.82324 2.05680
3246.77480 2.05632
3244.72636 2.05577
3242.67792 2.05541
3240.62948 2.05598
3238.58104 2.05772
3236.53261 2.05992
3234.48417 2.06092
3232.43573 2.05993
3230.38729 2.05762
3228.33885 2.05504
3226.29041 2.05417
3224.24198 2.05415
3222.19354 2.05353
3220.14510 2.05293
3218.09666 2.05122
3216.04822 2.04771
3213.99978 2.04514
3211.95135 2.04568
3209.90291 2.04721
3207.85447 2.04729
3205.80603 2.04777
3203.75759 2.04948
3201.70915 2.04983
3199.66072 2.04777
3197.61228 2.04609
3195.56384 2.04587
3193.51540 2.04297
3191.46696 2.03739
3189.41852 2.03353
3187.37008 2.03135
3185.32165 2.02871
3183.27321 2.02567
3181.22477 2.02303
3179.17633 2.02098
3177.12789 2.01927
3175.07945 2.01791
3173.03102 2.01673
3170.98258 2.01476
3168.93414 2.01215
3166.88570 2.01058
3164.83726 2.00906
3162.78882 2.00599
3160.74039 2.00411
3158.69195 2.00494
3156.64351 2.00542
3154.59507 2.00236
3152.54663 1.99687
3150.49819 1.99376
3148.44976 1.99462
3146.40132 1.99486
3144.35288 1.99227
3142.30444 1.99082
3140.25600 1.99222
3138.20756 1.99302
3136.15913 1.99050
3134.11069 1.98721
3132.06225 1.98524
3130.01381 1.98154
3127.96537 1.97676
3125.91693 1.97525
3123.86850 1.97686
3121.82006 1.97863
3119.77162 1.97818
3117.72318 1.97419
3115.67474 1.96920
3113.62630 1.96738
3111.57787 1.96761
3109.52943 1.96615
3107.48099 1.96299
3105.43255 1.96022
3103.38411 1.95887
3101.33567 1.95751
3099.28724 1.95525
3097.23880 1.95380
3095.19036 1.95222
3093.14192 1.95030
3091.09348 1.95039
3089.04504 1.95009
3086.99661 1.94641
3084.94817 1.94186
3082.89973 1.93946
3080.85129 1.93803
3078.80285 1.93567
3076.75441 1.93310
3074.70598 1.93120
3072.65754 1.92949
3070.60910 1.92753
3068.56066 1.92612
3066.51222 1.92539
3064.46378 1.92441
3062.41535 1.92304
3060.36691 1.92217
3058.31847 1.92245
3056.27003 1.92297
3054.22159 1.92295
3052.17315 1.92417
3050.12471 1.92751
3048.07628 1.93041
3046.02784 1.93256
3043.97940 1.93650
3041.93096 1.94064
3039.88252 1.94215
3037.83408 1.94250
3035.78565 1.94299
3033.73721 1.94295
3031.68877 1.94308
3029.64033 1.94459
3027.59189 1.94597
3025.54345 1.94503
3023.49502 1.94383
3021.44658 1.94375
3019.39814 1.94388
3017.34970 1.94597
3015.30126 1.95061
3013.25282 1.95428
3011.20439 1.95553
3009.15595 1.95813
3007.10751 1.96384
3005.05907 1.96975
3003.01063 1.97362
3000.96219 1.97645
2998.91376 1.98001
2996.86532 1.98481
2994.81688 1.99013
2992.76844 1.99428
2990.72000 1.99684
2988.67156 1.99736
2986.62313 1.99439
2984.57469 1.99012
2982.52625 1.98692
2980.47781 1.98312
2978.42937 1.97829
2976.38093 1.97379
2974.33250 1.96979
2972.28406 1.96705
2970.23562 1.96605
2968.18718 1.96548
2966.13874 1.96362
2964.09030 1.95990
2962.04187 1.95650
2959.99343 1.95542
2957.94499 1.95505
2955.89655 1.95301
2953.84811 1.95003
2951.79967 1.94848
2949.75124 1.94998
2947.70280 1.95339
2945.65436 1.95480
2943.60592 1.95420
2941.55748 1.95442
2939.50904 1.95525
2937.46061 1.95522
2935.41217 1.95510
2933.36373 1.95740
2931.31529 1.96253
2929.26685 1.96874
2927.21841 1.97347
2925.16998 1.97615
2923.12154 1.97873
2921.07310 1.98110
2919.02466 1.98279
2916.97622 1.98148
2914.92778 1.97178
2912.87934 1.95417
2910.83091 1.93452
2908.78247 1.91640
2906.73403 1.90128
2904.68559 1.89067
2902.63715 1.88447
2900.58871 1.88070
2898.54028 1.87584
2896.49184 1.86624
2894.44340 1.85307
2892.39496 1.84030
2890.34652 1.82977
2888.29808 1.82051
2886.24965 1.81071
2884.20121 1.80050
2882.15277 1.79156
2880.10433 1.78551
2878.05589 1.78259
2876.00745 1.78139
2873.95902 1.78009
2871.91058 1.77882
2869.86214 1.77929
2867.81370 1.78103
2865.76526 1.78292
2863.71682 1.78567
2861.66839 1.79023
2859.61995 1.79758
2857.57151 1.80735
2855.52307 1.81531
2853.47463 1.81823
2851.42619 1.81666
2849.37776 1.81018
2847.32932 1.79781
2845.28088 1.78137
2843.23244 1.76386
2841.18400 1.74695
2839.13556 1.73165
2837.08713 1.71863
2835.03869 1.70717
2832.99025 1.69669
2830.94181 1.68783
2828.89337 1.67999
2826.84493 1.67186
2824.79650 1.66338
2822.74806 1.65534
2820.69962 1.64835
2818.65118 1.64259
2816.60274 1.63829
2814.55430 1.63448
2812.50587 1.62993
2810.45743 1.62494
2808.40899 1.62052
2806.36055 1.61674
2804.31211 1.61258
2802.26367 1.60793
2800.21524 1.60410
2798.16680 1.60140
2796.11836 1.59838
2794.06992 1.59478
2792.02148 1.59187
2789.97304 1.58981
2787.92461 1.58755
2785.87617 1.58489
2783.82773 1.58290
2781.77929 1.58218
2779.73085 1.58255
2777.68241 1.58336
2775.63397 1.58309
2773.58554 1.58035
2771.53710 1.57587
2769.48866 1.57178
2767.44022 1.56846
2765.39178 1.56494
2763.34334 1.56168
2761.29491 1.55962
2759.24647 1.55839
2757.19803 1.55721
2755.14959 1.55590
2753.10115 1.55461
2751.05271 1.55321
2749.00428 1.55126
2746.95584 1.54944
2744.90740 1.54882
2742.85896 1.54844
2740.81052 1.54696
2738.76208 1.54543
2736.71365 1.54487
2734.66521 1.54452
2732.61677 1.54419
2730.56833 1.54381
2728.51989 1.54296
2726.47145 1.54272
2724.42302 1.54323
2722.37458 1.54290
2720.32614 1.54205
2718.27770 1.54185
2716.22926 1.54206
2714.18082 1.54225
2712.13239 1.54206
2710.08395 1.54151
2708.03551 1.54107
2705.98707 1.54103
2703.93863 1.54146
2701.89019 1.54224
2699.84176 1.54328
2697.79332 1.54459
2695.74488 1.54604
2693.69644 1.54789
2691.64800 1.55056
2689.59956 1.55347
2687.55113 1.55605
2685.50269 1.55857
2683.45425 1.56158
2681.40581 1.56514
2679.35737 1.56937
2677.30893 1.57491
2675.26050 1.58169
2673.21206 1.58979
2671.16362 1.59996
2669.11518 1.61114
2667.06674 1.62152
2665.01830 1.63131
2662.96987 1.64105
2660.92143 1.65018
2658.87299 1.65823
2656.82455 1.66543
2654.77611 1.67210
2652.72767 1.67780
2650.67924 1.68244
2648.63080 1.68656
2646.58236 1.69118
2644.53392 1.69644
2642.48548 1.70092
2640.43704 1.70478
2638.38860 1.70891
2636.34017 1.71232
2634.29173 1.71434
2632.24329 1.71513
2630.19485 1.71500
2628.14641 1.71438
2626.09797 1.71324
2624.04954 1.71250
2622.00110 1.71218
2619.95266 1.71074
2617.90422 1.70808
2615.85578 1.70544
2613.80734 1.70413
2611.75891 1.70304
2609.71047 1.70031
2607.66203 1.69680
2605.61359 1.69394
2603.56515 1.69231
2601.51671 1.69196
2599.46828 1.69170
2597.41984 1.69111
2595.37140 1.69106
2593.32296 1.69203
2591.27452 1.69403
2589.22608 1.69630
2587.17765 1.69784
2585.12921 1.69865
2583.08077 1.69949
2581.03233 1.70055
2578.98389 1.70288
2576.93545 1.70791
2574.88702 1.71412
2572.83858 1.71970
2570.79014 1.72464
2568.74170 1.72968
2566.69326 1.73542
2564.64482 1.74075
2562.59639 1.74485
2560.54795 1.74874
2558.49951 1.75317
2556.45107 1.75887
2554.40263 1.76750
2552.35419 1.77808
2550.30576 1.78583
2548.25732 1.78658
2546.20888 1.78037
2544.16044 1.77157
2542.11200 1.76585
2540.06356 1.76775
2538.01513 1.77914
2535.96669 1.79764
2533.91825 1.81837
2531.86981 1.83795
2529.82137 1.85285
2527.77293 1.85983
2525.72450 1.86096
2523.67606 1.85866
2521.62762 1.85172
2519.57918 1.84137
2517.53074 1.83023
2515.48230 1.81894
2513.43387 1.81082
2511.38543 1.81080
2509.33699 1.81911
2507.28855 1.83281
2505.24011 1.84915
2503.19167 1.86386
2501.14324 1.87182
2499.09480 1.87132
2497.04636 1.86486
2494.99792 1.85473
2492.94948 1.84111
2490.90104 1.82570
2488.85260 1.80971
2486.80417 1.79255
2484.75573 1.77464
2482.70729 1.75548
2480.65885 1.73303
2478.61041 1.70648
2476.56197 1.67861
2474.51354 1.65493
2472.46510 1.63783
2470.41666 1.62464
2468.36822 1.61290
2466.31978 1.60268
2464.27134 1.59335
2462.22291 1.58390
2460.17447 1.57496
2458.12603 1.56708
2456.07759 1.56019
2454.02915 1.55392
2451.98071 1.54800
2449.93228 1.54300
2447.88384 1.53936
2445.83540 1.53652
2443.78696 1.53348
2441.73852 1.53019
2439.69008 1.52719
2437.64165 1.52447
2435.59321 1.52241
2433.54477 1.52125
2431.49633 1.52018
2429.44789 1.51854
2427.39945 1.51627
2425.35102 1.51391
2423.30258 1.51237
2421.25414 1.51150
2419.20570 1.51058
2417.15726 1.50991
2415.10882 1.50981
2413.06039 1.50988
2411.01195 1.50992
2408.96351 1.51003
2406.91507 1.51043
2404.86663 1.51110
2402.81819 1.51162
2400.76976 1.51207
2398.72132 1.51308
2396.67288 1.51493
2394.62444 1.51701
2392.57600 1.51904
2390.52756 1.52163
2388.47913 1.52505
2386.43069 1.52844
2384.38225 1.53128
2382.33381 1.53419
2380.28537 1.53716
2378.23693 1.54025
2376.18850 1.54440
2374.14006 1.54830
2372.09162 1.54924
2370.04318 1.54735
2367.99474 1.54540
2365.94630 1.54782
2363.89787 1.55564
2361.84943 1.56198
2359.80099 1.56324
2357.75255 1.56388
2355.70411 1.56805
2353.65567 1.57474
2351.60723 1.57966
2349.55880 1.57876
2347.51036 1.57277
2345.46192 1.56463
2343.41348 1.55846
2341.36504 1.55554
2339.31660 1.55277
2337.26817 1.55053
2335.21973 1.54870
2333.17129 1.54615
2331.12285 1.54798
2329.07441 1.55434
2327.02597 1.55673
2324.97754 1.55420
2322.92910 1.55103
2320.88066 1.54666
2318.83222 1.53890
2316.78378 1.52949
2314.73534 1.52246
2312.68691 1.51859
2310.63847 1.51558
2308.59003 1.51255
2306.54159 1.50867
2304.49315 1.50298
2302.44471 1.49574
2300.39628 1.48681
2298.34784 1.47677
2296.29940 1.46791
2294.25096 1.46165
2292.20252 1.45765
2290.15408 1.45524
2288.10565 1.45404
2286.05721 1.45371
2284.00877 1.45383
2281.96033 1.45458
2279.91189 1.45625
2277.86345 1.45815
2275.81502 1.46007
2273.76658 1.46237
2271.71814 1.46517
2269.66970 1.46863
2267.62126 1.47212
2265.57282 1.47556
2263.52439 1.47977
2261.47595 1.48396
2259.42751 1.48714
2257.37907 1.48969
2255.33063 1.49201
2253.28219 1.49344
2251.23376 1.49363
2249.18532 1.49377
2247.13688 1.49420
2245.08844 1.49450
2243.04000 1.49484
2240.99156 1.49491
2238.94313 1.49462
2236.89469 1.49451
2234.84625 1.49483
2232.79781 1.49548
2230.74937 1.49632
2228.70093 1.49733
2226.65250 1.49843
2224.60406 1.50001
2222.55562 1.50235
2220.50718 1.50504
2218.45874 1.50781
2216.41030 1.51061
2214.36186 1.51357
2212.31343 1.51726
2210.26499 1.52164
2208.21655 1.52646
2206.16811 1.53219
2204.11967 1.53841
2202.07123 1.54396
2200.02280 1.54855
2197.97436 1.55257
2195.92592 1.55676
2193.87748 1.56134
2191.82904 1.56586
2189.78060 1.57030
2187.73217 1.57488
2185.68373 1.57985
2183.63529 1.58558
2181.58685 1.59118
2179.53841 1.59422
2177.48997 1.59416
2175.44154 1.59307
2173.39310 1.59329
2171.34466 1.59613
2169.29622 1.60095
2167.24778 1.60623
2165.19934 1.61114
2163.15091 1.61611
2161.10247 1.62208
2159.05403 1.62841
2157.00559 1.63362
2154.95715 1.63703
2152.90871 1.63760
2150.86028 1.63431
2148.81184 1.62747
2146.76340 1.61890
2144.71496 1.61226
2142.66652 1.60937
2140.61808 1.60913
2138.56965 1.60983
2136.52121 1.60948
2134.47277 1.60767
2132.42433 1.60535
2130.37589 1.60255
2128.32745 1.59959
2126.27902 1.59724
2124.23058 1.59580
2122.18214 1.59522
2120.13370 1.59497
2118.08526 1.59413
2116.03682 1.59138
2113.98839 1.58528
2111.93995 1.57613
2109.89151 1.56593
2107.84307 1.55571
2105.79463 1.54441
2103.74619 1.53124
2101.69776 1.51689
2099.64932 1.50385
2097.60088 1.49460
2095.55244 1.48820
2093.50400 1.48249
2091.45556 1.47726
2089.40713 1.47316
2087.35869 1.47026
2085.31025 1.46831
2083.26181 1.46719
2081.21337 1.46698
2079.16493 1.46795
2077.11649 1.46995
2075.06806 1.47212
2073.01962 1.47393
2070.97118 1.47602
2068.92274 1.47861
2066.87430 1.48110
2064.82586 1.48314
2062.77743 1.48439
2060.72899 1.48512
2058.68055 1.48611
2056.63211 1.48723
2054.58367 1.48799
2052.53523 1.48861
2050.48680 1.48939
2048.43836 1.49001
2046.38992 1.49052
2044.34148 1.49156
2042.29304 1.49308
2040.24460 1.49459
2038.19617 1.49574
2036.14773 1.49641
2034.09929 1.49703
2032.05085 1.49853
2030.00241 1.50060
2027.95397 1.50241
2025.90554 1.50430
2023.85710 1.50653
2021.80866 1.50857
2019.76022 1.51005
2017.71178 1.51174
2015.66334 1.51391
2013.61491 1.51584
2011.56647 1.51751
2009.51803 1.51891
2007.46959 1.52056
2005.42115 1.52303
2003.37271 1.52535
2001.32428 1.52731
1999.27584 1.53000
1997.22740 1.53299
1995.17896 1.53579
1993.13052 1.54036
1991.08208 1.54765
1989.03365 1.55490
1986.98521 1.56116
1984.93677 1.56736
1982.88833 1.57300
1980.83989 1.57624
1978.79145 1.57665
1976.74302 1.57629
1974.69458 1.57665
1972.64614 1.57807
1970.59770 1.57962
1968.54926 1.58135
1966.50082 1.58418
1964.45239 1.58704
1962.40395 1.58954
1960.35551 1.59233
1958.30707 1.59513
1956.25863 1.59829
1954.21019 1.60192
1952.16176 1.60485
1950.11332 1.60749
1948.06488 1.61077
1946.01644 1.61384
1943.96800 1.61721
1941.91956 1.62263
1939.87112 1.62786
1937.82269 1.63186
1935.77425 1.63615
1933.72581 1.63942
1931.67737 1.63984
1929.62893 1.63878
1927.58049 1.63897
1925.53206 1.64102
1923.48362 1.64534
1921.43518 1.65032
1919.38674 1.65473
1917.33830 1.66116
1915.28986 1.66753
1913.24143 1.67191
1911.19299 1.67687
1909.14455 1.68276
1907.09611 1.68706
1905.04767 1.69048
1902.99923 1.69490
1900.95080 1.69972
1898.90236 1.70397
1896.85392 1.70787
1894.80548 1.71220
1892.75704 1.71642
1890.70860 1.72175
1888.66017 1.72939
1886.61173 1.73607
1884.56329 1.74174
1882.51485 1.74800
1880.46641 1.75438
1878.41797 1.76136
1876.36954 1.76873
1874.32110 1.77578
1872.27266 1.78209
1870.22422 1.79037
1868.17578 1.80375
1866.12734 1.81527
1864.07891 1.82301
1862.03047 1.83153
1859.98203 1.84209
1857.93359 1.85403
1855.88515 1.86601
1853.83671 1.87692
1851.78828 1.88761
1849.73984 1.89861
1847.69140 1.90889
1845.64296 1.91998
1843.59452 1.93710
1841.54608 1.95424
1839.49765 1.96807
1837.44921 1.98356
1835.40077 1.99900
1833.35233 2.01151
1831.30389 2.02624
1829.25545 2.04992
1827.20702 2.07364
1825.15858 2.09730
1823.11014 2.12530
1821.06170 2.15076
1819.01326 2.17602
1816.96482 2.20581
1814.91639 2.23679
1812.86795 2.26562
1810.81951 2.29972
1808.77107 2.34099
1806.72263 2.38298
1804.67419 2.42849
1802.62575 2.48873
1800.57732 2.56422
1798.52888 2.62517
1796.48044 2.66007
1794.43200 2.68894
1792.38356 2.74771
1790.33512 2.84445
1788.28669 2.90497
1786.23825 2.90282
1784.18981 2.87918
1782.14137 2.86928
1780.09293 2.86495
1778.04449 2.84957
1775.99606 2.82032
1773.94762 2.78029
1771.89918 2.73665
1769.85074 2.71113
1767.80230 2.69928
1765.75386 2.69335
1763.70543 2.69450
1761.65699 2.69694
1759.60855 2.70121
1757.56011 2.72471
1755.51167 2.76578
1753.46323 2.79661
1751.41480 2.81485
1749.36636 2.83713
1747.31792 2.85805
1745.26948 2.87371
1743.22104 2.89385
1741.17260 2.92712
1739.12417 2.97889
1737.07573 3.01987
1735.02729 3.04105
1732.97885 3.04963
1730.93041 3.06000
1728.88197 3.09103
1726.83354 3.12734
1724.78510 3.15964
1722.73666 3.18879
1720.68822 3.21518
1718.63978 3.26983
1716.59134 3.33510
1714.54291 3.30999
1712.49447 3.29284
1710.44603 3.28813
1708.39759 3.26990
1706.34915 3.26299
1704.30071 3.27252
1702.25228 3.26393
1700.20384 3.26572
1698.15540 3.29482
1696.10696 3.29202
1694.05852 3.30028
1692.01008 3.34373
1689.96165 3.41559
1687.91321 3.47032
1685.86477 3.47390
1683.81633 3.45088
1681.76789 3.44116
1679.71945 3.46576
1677.67102 3.48240
1675.62258 3.52395
1673.57414 3.66767
1671.52570 3.77238
1669.47726 3.77649
1667.42882 3.83042
1665.38038 3.81024
1663.33195 3.70038
1661.28351 3.63964
1659.23507 3.64470
1657.18663 3.67862
1655.13819 3.69985
1653.08975 3.53109
1651.04132 3.45269
1648.99288 3.52735
1646.94444 3.62890
1644.89600 3.62655
1642.84756 3.59880
1640.79912 3.58395
1638.75069 3.53669
1636.70225 3.47127
1634.65381 3.44971
1632.60537 3.42922
1630.55693 3.40681
1628.50849 3.39411
1626.46006 3.38761
1624.41162 3.38894
1622.36318 3.38120
1620.31474 3.37228
1618.26630 3.36902
1616.21786 3.32281
1614.16943 3.27999
1612.12099 3.28366
1610.07255 3.30980
1608.02411 3.32847
1605.97567 3.29470
1603.92723 3.23160
1601.87880 3.18310
1599.83036 3.15415
1597.78192 3.12073
1595.73348 3.06277
1593.68504 2.99878
1591.63660 2.95133
1589.58817 2.92042
1587.53973 2.88796
1585.49129 2.84128
1583.44285 2.79797
1581.39441 2.77306
1579.34597 2.76549
1577.29754 2.78142
1575.24910 2.83300
1573.20066 2.87321
1571.15222 2.89073
1569.10378 2.90582
1567.05534 2.90372
1565.00691 2.87686
1562.95847 2.84185
1560.91003 2.80957
1558.86159 2.76529
1556.81315 2.69139
1554.76471 2.63194
1552.71628 2.58900
1550.66784 2.55578
1548.61940 2.52246
1546.57096 2.49036
1544.52252 2.46495
1542.47408 2.44656
1540.42565 2.42581
1538.37721 2.40701
1536.32877 2.38656
1534.28033 2.35952
1532.23189 2.33217
1530.18345 2.31070
1528.13501 2.29187
1526.08658 2.27676
1524.03814 2.26366
1521.98970 2.25189
1519.94126 2.24442
1517.89282 2.23645
1515.84438 2.22655
1513.79595 2.21209
1511.74751 2.19359
1509.69907 2.17465
1507.65063 2.16476
1505.60219 2.16916
1503.55375 2.15984
1501.50532 2.14431
1499.45688 2.13257
1497.40844 2.12936
1495.36000 2.12804
1493.31156 2.12349
1491.26312 2.12243
1489.21469 2.13094
1487.16625 2.13672
1485.11781 2.13538
1483.06937 2.13311
1481.02093 2.13196
1478.97249 2.13077
1476.92406 2.12896
1474.87562 2.12831
1472.82718 2.13139
1470.77874 2.13545
1468.73030 2.13667
1466.68186 2.15307
1464.63343 2.21535
1462.58499 2.28460
1460.53655 2.30237
1458.48811 2.29298
1456.43967 2.30340
1454.39123 2.31523
1452.34280 2.31335
1450.29436 2.31390
1448.24592 2.32636
1446.19748 2.34490
1444.14904 2.35644
1442.10060 2.36473
1440.05217 2.37316
1438.00373 2.38400
1435.95529 2.40399
1433.90685 2.42158
1431.85841 2.43283
1429.80997 2.44141
1427.76154 2.44657
1425.71310 2.45249
1423.66466 2.46051
1421.61622 2.46455
1419.56778 2.46856
1417.51934 2.47472
1415.47091 2.47235
1413.42247 2.47033
1411.37403 2.47240
1409.32559 2.47456
1407.27715 2.47536
1405.22871 2.47275
1403.18028 2.46908
1401.13184 2.46932
1399.08340 2.47211
1397.03496 2.47718
1394.98652 2.48726
1392.93808 2.49110
1390.88965 2.48376
1388.84121 2.47656
1386.79277 2.47476
1384.74433 2.47172
1382.69589 2.46712
1380.64745 2.46679
1378.59901 2.47173
1376.55058 2.47959
1374.50214 2.48733
1372.45370 2.49081
1370.40526 2.49285
1368.35682 2.49682
1366.30838 2.50009
1364.25995 2.50380
1362.21151 2.51310
1360.16307 2.51980
1358.11463 2.51695
1356.06619 2.51460
1354.01775 2.51828
1351.96932 2.52480
1349.92088 2.53221
1347.87244 2.53703
1345.82400 2.53503
1343.77556 2.52784
1341.72712 2.52294
1339.67869 2.52149
1337.63025 2.52125
1335.58181 2.52488
1333.53337 2.52900
1331.48493 2.53140
1329.43649 2.53533
1327.38806 2.53938
1325.33962 2.53884
1323.29118 2.53565
1321.24274 2.53666
1319.19430 2.54194
1317.14586 2.54782
1315.09743 2.56016
1313.04899 2.57771
1311.00055 2.58596
1308.95211 2.58544
1306.90367 2.58281
1304.85523 2.57978
1302.80680 2.58021
1300.75836 2.58228
1298.70992 2.58390
1296.66148 2.58578
1294.61304 2.58688
1292.56460 2.59114
1290.51617 2.60667
1288.46773 2.63016
1286.41929 2.64741
1284.37085 2.65550
1282.32241 2.65653
1280.27397 2.64660
1278.22554 2.62849
1276.17710 2.60748
1274.12866 2.58652
1272.08022 2.57114
1270.03178 2.55854
1267.98334 2.54083
1265.93491 2.51996
1263.88647 2.50145
1261.83803 2.48627
1259.78959 2.47241
1257.74115 2.46284
1255.69271 2.46348
1253.64428 2.47242
1251.59584 2.48248
1249.54740 2.48666
1247.49896 2.48130
1245.45052 2.46991
1243.40208 2.45595
1241.35364 2.44152
1239.30521 2.43019
1237.25677 2.42239
1235.20833 2.41393
1233.15989 2.40202
1231.11145 2.38981
1229.06301 2.37996
1227.01458 2.37328
1224.96614 2.37100
1222.91770 2.36989
1220.86926 2.36427
1218.82082 2.35449
1216.77238 2.34475
1214.72395 2.33642
1212.67551 2.32968
1210.62707 2.32706
1208.57863 2.32727
1206.53019 2.32697
1204.48175 2.32962
1202.43332 2.33833
1200.38488 2.35099
1198.33644 2.36573
1196.28800 2.38120
1194.23956 2.39271
1192.19112 2.40048
1190.14269 2.40831
1188.09425 2.41527
1186.04581 2.42356
1183.99737 2.43331
1181.94893 2.44166
1179.90049 2.44854
1177.85206 2.44978
1175.80362 2.44353
1173.75518 2.43320
1171.70674 2.41671
1169.65830 2.39466
1167.60986 2.37309
1165.56143 2.35100
1163.51299 2.32509
1161.46455 2.29945
1159.41611 2.27823
1157.36767 2.25983
1155.31923 2.24306
1153.27080 2.22736
1151.22236 2.21370
1149.17392 2.20259
1147.12548 2.19159
1145.07704 2.18205
1143.02860 2.17426
1140.98017 2.16384
1138.93173 2.15063
1136.88329 2.13693
1134.83485 2.12241
1132.78641 2.10841
1130.73797 2.09562
1128.68954 2.08121
1126.64110 2.06437
1124.59266 2.04613
1122.54422 2.02781
1120.49578 2.01137
1118.44734 1.99675
1116.39891 1.98503
1114.35047 1.97864
1112.30203 1.97685
1110.25359 1.97794
1108.20515 1.98004
1106.15671 1.98324
1104.10827 1.98973
1102.05984 2.00117
1100.01140 2.01766
1097.96296 2.03776
1095.91452 2.06383
1093.86608 2.10283
1091.81764 2.15911
1089.76921 2.23993
1087.72077 2.37353
1085.67233 2.59085
1083.62389 2.80058
1081.57545 2.71589
1079.52701 2.47730
1077.47858 2.29266
1075.43014 2.16703
1073.38170 2.07571
1071.33326 2.01007
1069.28482 1.95474
1067.23638 1.89473
1065.18795 1.84840
1063.13951 1.85160
1061.09107 1.90455
1059.04263 1.91686
1056.99419 1.84250
1054.94575 1.77456
1052.89732 1.74769
1050.84888 1.73850
1048.80044 1.73311
1046.75200 1.72930
1044.70356 1.72713
1042.65512 1.72623
1040.60669 1.72620
1038.55825 1.72656
1036.50981 1.72723
1034.46137 1.72866
1032.41293 1.73173
1030.36449 1.73645
1028.31606 1.74082
1026.26762 1.74409
1024.21918 1.74757
1022.17074 1.75164
1020.12230 1.75599
1018.07386 1.76196
1016.02543 1.77018
1013.97699 1.77803
1011.92855 1.78451
1009.88011 1.79172
1007.83167 1.80121
1005.78323 1.81428
1003.73480 1.82995
1001.68636 1.84571
999.63792 1.86130
997.58948 1.87799
995.54104 1.89728
993.49260 1.91879
991.44417 1.93943
989.39573 1.95685
987.34729 1.97098
985.29885 1.98045
983.25041 1.98501
981.20197 1.98776
979.15354 1.98833
977.10510 1.98452
975.05666 1.97775
973.00822 1.97062
970.95978 1.96655
968.91134 1.96609
966.86290 1.96728
964.81447 1.97166
962.76603 1.97857
960.71759 1.98480
958.66915 1.99094
956.62071 1.99836
954.57227 2.00706
952.52384 2.01738
950.47540 2.02959
948.42696 2.04303
946.37852 2.05376
944.33008 2.05728
942.28164 2.05571
940.23321 2.05614
938.18477 2.06110
936.13633 2.06695
934.08789 2.07314
932.03945 2.08115
929.99101 2.08928
927.94258 2.09667
925.89414 2.10510
923.84570 2.11478
921.79726 2.12462
919.74882 2.13594
917.70038 2.15338
915.65195 2.18504
913.60351 2.25010
911.55507 2.37862
909.50663 2.52433
907.45819 2.50341
905.40975 2.36936
903.36132 2.27733
901.31288 2.23081
899.26444 2.20096
897.21600 2.17947
895.16756 2.16512
893.11912 2.15743
891.07069 2.15852
889.02225 2.16411
886.97381 2.16839
884.92537 2.17336
882.87693 2.17726
880.82849 2.16576
878.78006 2.12918
876.73162 2.07809
874.68318 2.03274
872.63474 2.00325
870.58630 1.98522
868.53786 1.97246
866.48943 1.96274
864.44099 1.95607
862.39255 1.95283
860.34411 1.95204
858.29567 1.95125
856.24723 1.95262
854.19880 1.96631
852.15036 1.99708
850.10192 2.03212
848.05348 2.05473
846.00504 2.06484
843.95660 2.06854
841.90817 2.07070
839.85973 2.07468
837.81129 2.07569
835.76285 2.06506
833.71441 2.04017
831.66597 2.00902
829.61753 1.97994
827.56910 1.95531
825.52066 1.93528
823.47222 1.92023
821.42378 1.90881
819.37534 1.90029
817.32690 1.89616
815.27847 1.89530
813.23003 1.89291
811.18159 1.88635
809.13315 1.87945
807.08471 1.87469
805.03627 1.86955
802.98784 1.86406
800.93940 1.86242
798.89096 1.86216
796.84252 1.85712
794.79408 1.85059
792.74564 1.84874
790.69721 1.85024
788.64877 1.84986
786.60033 1.84580
784.55189 1.84074
782.50345 1.84023
780.45501 1.84267
778.40658 1.84125
776.35814 1.83807
774.30970 1.83775
772.26126 1.84099
770.21282 1.84597
768.16438 1.85053
766.11595 1.85531
764.06751 1.85943
762.01907 1.86164
759.97063 1.86346
757.92219 1.86630
755.87375 1.87118
753.82532 1.87714
751.77688 1.88157
749.72844 1.88576
747.68000 1.89355
745.63156 1.90197
743.58312 1.90819
741.53469 1.91546
739.48625 1.92381
737.43781 1.93571
735.38937 1.95486
733.34093 1.97851
731.29249 2.00175
729.24406 2.02358
727.19562 2.05257
725.14718 2.10404
723.09874 2.19871
721.05030 2.36951
719.00186 2.57624
716.95343 2.57604
714.90499 2.43201
712.85655 2.33098
710.80811 2.26060
708.75967 2.20843
706.71123 2.19297
704.66280 2.23099
702.61436 2.31878
700.56592 2.34860
698.51748 2.23941
696.46904 2.11566
694.42060 2.04300
692.37216 2.00670
690.32373 1.97995
688.27529 1.95347
686.22685 1.93410
684.17841 1.92197
682.12997 1.91524
680.08153 1.91142
678.03310 1.90934
675.98466 1.90465
673.93622 1.90170
671.88778 1.90783
669.83934 1.90326
667.79090 1.88441
665.74247 1.89109
663.69403 1.90762
661.64559 1.91554
659.59715 1.90697
657.54871 1.89535
655.50027 1.89868
653.45184 1.91351
651.40340 1.93036
649.35496 1.94760
647.30652 1.95821
645.25808 1.94916
643.20964 1.93670
641.16121 1.94986
639.11277 1.97386
637.06433 1.97873
635.01589 1.98087
632.96745 1.98375
630.91901 1.96462
628.87058 1.94174
626.82214 1.94467
624.77370 1.96586
622.72526 1.95856
620.67682 1.92186
618.62838 1.91310
616.57995 1.94694
614.53151 1.96339
612.48307 1.92960
610.43463 1.90489
608.38619 1.91755
606.33775 1.94762
604.28932 1.99620
602.24088 2.04731
600.19244 2.04840
598.14400 2.03872
