3996.50324 1.01375
3994.45480 1.01467
3992.40636 1.01558
3990.35792 1.01669
3988.30948 1.01762
3986.26104 1.01783
3984.21261 1.01777
3982.16417 1.01799
3980.11573 1.01833
3978.06729 1.01859
3976.01885 1.01932
3973.97041 1.02037
3971.92198 1.02085
3969.87354 1.02105
3967.82510 1.02114
3965.77666 1.02074
3963.72822 1.02039
3961.67978 1.02063
3959.63135 1.02027
3957.58291 1.01904
3955.53447 1.01778
3953.48603 1.01622
3951.43759 1.01493
3949.38915 1.01556
3947.34072 1.01651
3945.29228 1.01516
3943.24384 1.01491
3941.19540 1.01636
3939.14696 1.01551
3937.09852 1.01344
3935.05009 1.01195
3933.00165 1.01276
3930.95321 1.01600
3928.90477 1.01617
3926.85633 1.01336
3924.80789 1.01329
3922.75946 1.01433
3920.71102 1.01252
3918.66258 1.01210
3916.61414 1.01469
3914.56570 1.01502
3912.51726 1.01262
3910.46883 1.01025
3908.42039 1.00731
3906.37195 1.00480
3904.32351 1.00812
3902.27507 1.01517
3900.22663 1.01916
3898.17820 1.01965
3896.12976 1.01502
3894.08132 1.00902
3892.03288 1.00949
3889.98444 1.01217
3887.93600 1.00797
3885.88756 1.00610
3883.83913 1.00889
3881.79069 1.00887
3879.74225 1.01063
3877.69381 1.00838
3875.64537 1.00282
3873.59693 1.00186
3871.54850 1.00373
3869.50006 1.00828
3867.45162 1.00868
3865.40318 1.00548
3863.35474 1.00870
3861.30630 1.01048
3859.25787 1.00536
3857.20943 0.99743
3855.16099 0.99226
3853.11255 1.00779
3851.06411 1.02086
3849.01567 1.01446
3846.96724 1.00639
3844.91880 1.00247
3842.87036 1.00245
3840.82192 1.00365
3838.77348 1.00864
3836.72504 1.01508
3834.67661 1.01413
3832.62817 1.01141
3830.57973 1.01021
3828.53129 1.00818
3826.48285 1.00706
3824.43441 1.00454
3822.38598 1.00209
3820.33754 1.00988
3818.28910 1.01300
3816.24066 1.01311
3814.19222 1.01593
3812.14378 1.01190
3810.09535 1.00487
3808.04691 1.00287
3805.99847 1.00711
3803.95003 1.00593
3801.90159 1.00772
3799.85315 1.01646
3797.80472 1.01661
3795.75628 1.01561
3793.70784 1.01411
3791.65940 1.01062
3789.61096 1.00866
3787.56252 1.00795
3785.51409 1.00910
3783.46565 1.01066
3781.41721 1.00996
3779.36877 1.01242
3777.32033 1.01555
3775.27189 1.01294
3773.22346 1.00845
3771.17502 1.00754
3769.12658 1.01228
3767.07814 1.01555
3765.02970 1.01614
3762.98126 1.01403
3760.93283 1.01080
3758.88439 1.01399
3756.83595 1.01711
3754.78751 1.01205
3752.73907 1.00685
3750.69063 1.01628
3748.64219 1.02567
3746.59376 1.02135
3744.54532 1.02342
3742.49688 1.02979
3740.44844 1.02557
3738.40000 1.01838
3736.35156 1.01896
3734.30313 1.03037
3732.25469 1.03626
3730.20625 1.03243
3728.15781 1.02686
3726.10937 1.02637
3724.06093 1.03006
3722.01250 1.03221
3719.96406 1.03281
3717.91562 1.03115
3715.86718 1.02637
3713.81874 1.02161
3711.77030 1.02728
3709.72187 1.03971
3707.67343 1.04010
3705.62499 1.03508
3703.57655 1.03238
3701.52811 1.03619
3699.47967 1.03974
3697.43124 1.03864
3695.38280 1.03667
3693.33436 1.03444
3691.28592 1.03484
3689.23748 1.04488
3687.18904 1.05186
3685.14061 1.04852
3683.09217 1.04358
3681.04373 1.04077
3678.99529 1.03897
3676.94685 1.03988
3674.89841 1.05022
3672.84998 1.05228
3670.80154 1.05038
3668.75310 1.05625
3666.70466 1.05571
3664.65622 1.05110
3662.60778 1.04929
3660.55935 1.04901
3658.51091 1.04908
3656.46247 1.05306
3654.41403 1.05533
3652.36559 1.05062
3650.31715 1.05152
3648.26872 1.06899
3646.22028 1.07433
3644.17184 1.06950
3642.12340 1.06618
3640.07496 1.06620
3638.02652 1.06711
3635.97809 1.06776
3633.92965 1.06842
3631.88121 1.06782
3629.83277 1.07133
3627.78433 1.08421
3625.73589 1.08646
3623.68746 1.08169
3621.63902 1.07916
3619.59058 1.08333
3617.54214 1.08926
3615.49370 1.08956
3613.44526 1.09021
3611.39682 1.09202
3609.34839 1.09380
3607.29995 1.09709
3605.25151 1.09785
3603.20307 1.09722
3601.15463 1.09976
3599.10619 1.10375
3597.05776 1.10633
3595.00932 1.10927
3592.96088 1.11006
3590.91244 1.10649
3588.86400 1.10472
3586.81556 1.10881
3584.76713 1.10983
3582.71869 1.10731
3580.67025 1.10599
3578.62181 1.10618
3576.57337 1.10668
3574.52493 1.10707
3572.47650 1.10679
3570.42806 1.10584
3568.37962 1.10782
3566.33118 1.11476
3564.28274 1.11672
3562.23430 1.11427
3560.18587 1.11310
3558.13743 1.11292
3556.08899 1.11244
3554.04055 1.11290
3551.99211 1.11492
3549.94367 1.11573
3547.89524 1.11588
3545.84680 1.11772
3543.79836 1.11847
3541.74992 1.11691
3539.70148 1.11547
3537.65304 1.11566
3535.60461 1.11667
3533.55617 1.11674
3531.50773 1.11682
3529.45929 1.11836
3527.41085 1.12036
3525.36241 1.12150
3523.31398 1.12211
3521.26554 1.12203
3519.21710 1.12171
3517.16866 1.12197
3515.12022 1.12219
3513.07178 1.12195
3511.02335 1.12221
3508.97491 1.12328
3506.92647 1.12393
3504.87803 1.12485
3502.82959 1.12656
3500.78115 1.12660
3498.73272 1.12545
3496.68428 1.12534
3494.63584 1.12603
3492.58740 1.12628
3490.53896 1.12644
3488.49052 1.12733
3486.44209 1.12809
3484.39365 1.12826
3482.34521 1.12923
3480.29677 1.13071
3478.24833 1.13083
3476.19989 1.13018
3474.15146 1.13016
3472.10302 1.13077
3470.05458 1.13140
3468.00614 1.13206
3465.95770 1.13271
3463.90926 1.13297
3461.86082 1.13302
3459.81239 1.13310
3457.76395 1.13344
3455.71551 1.13406
3453.66707 1.13443
3451.61863 1.13431
3449.57019 1.13479
3447.52176 1.13672
3445.47332 1.13825
3443.42488 1.13832
3441.37644 1.13850
3439.32800 1.13888
3437.27956 1.13904
3435.23113 1.13917
3433.18269 1.13955
3431.13425 1.14031
3429.08581 1.14071
3427.03737 1.14068
3424.98893 1.14096
3422.94050 1.14168
3420.89206 1.14262
3418.84362 1.14329
3416.79518 1.14338
3414.74674 1.14339
3412.69830 1.14365
3410.64987 1.14397
3408.60143 1.14458
3406.55299 1.14533
3404.50455 1.14587
3402.45611 1.14635
3400.40767 1.14682
3398.35924 1.14741
3396.31080 1.14809
3394.26236 1.14873
3392.21392 1.14932
3390.16548 1.14949
3388.11704 1.14935
3386.06861 1.14959
3384.02017 1.15019
3381.97173 1.15064
3379.92329 1.15102
3377.87485 1.15153
3375.82641 1.15215
3373.77798 1.15287
3371.72954 1.15353
3369.68110 1.15412
3367.63266 1.15461
3365.58422 1.15490
3363.53578 1.15520
3361.48735 1.15557
3359.43891 1.15580
3357.39047 1.15606
3355.34203 1.15662
3353.29359 1.15737
3351.24515 1.15798
3349.19672 1.15828
3347.14828 1.15846
3345.09984 1.15881
3343.05140 1.15925
3341.00296 1.15951
3338.95452 1.16007
3336.90609 1.16116
3334.85765 1.16203
3332.80921 1.16224
3330.76077 1.16216
3328.71233 1.16224
3326.66389 1.16250
3324.61545 1.16288
3322.56702 1.16335
3320.51858 1.16378
3318.47014 1.16425
3316.42170 1.16475
3314.37326 1.16524
3312.32482 1.16597
3310.27639 1.16666
3308.22795 1.16696
3306.17951 1.16722
3304.13107 1.16756
3302.08263 1.16763
3300.03419 1.16784
3297.98576 1.16866
3295.93732 1.16957
3293.88888 1.17020
3291.84044 1.17059
3289.79200 1.17071
3287.74356 1.17106
3285.69513 1.17200
3283.64669 1.17289
3281.59825 1.17345
3279.54981 1.17376
3277.50137 1.17396
3275.45293 1.17446
3273.40450 1.17519
3271.35606 1.17570
3269.30762 1.17584
3267.25918 1.17582
3265.21074 1.17607
3263.16230 1.17673
3261.11387 1.17775
3259.06543 1.17878
3257.01699 1.17945
3254.96855 1.17988
3252.92011 1.18010
3250.87167 1.18021
3248.82324 1.18082
3246.77480 1.18182
3244.72636 1.18251
3242.67792 1.18291
3240.62948 1.18354
3238.58104 1.18433
3236.53261 1.18507
3234.48417 1.18573
3232.43573 1.18643
3230.38729 1.18728
3228.33885 1.18796
3226.29041 1.18829
3224.24198 1.18848
3222.19354 1.18884
3220.14510 1.18927
3218.09666 1.18943
3216.04822 1.18945
3213.99978 1.18950
3211.95135 1.18951
3209.90291 1.18967
3207.85447 1.19031
3205.80603 1.19144
3203.75759 1.19250
3201.70915 1.19288
3199.66072 1.19281
3197.61228 1.19282
3195.56384 1.19302
3193.51540 1.19305
3191.46696 1.19286
3189.41852 1.19286
3187.37008 1.19308
3185.32165 1.19331
3183.27321 1.19354
3181.22477 1.19367
3179.17633 1.19373
3177.12789 1.19371
3175.07945 1.19375
3173.03102 1.19407
3170.98258 1.19425
3168.93414 1.19436
3166.88570 1.19472
3164.83726 1.19507
3162.78882 1.19540
3160.74039 1.19583
3158.69195 1.19627
3156.64351 1.19660
3154.59507 1.19688
3152.54663 1.19717
3150.49819 1.19716
3148.44976 1.19693
3146.40132 1.19673
3144.35288 1.19672
3142.30444 1.19717
3140.25600 1.19815
3138.20756 1.19917
3136.15913 1.19972
3134.11069 1.20002
3132.06225 1.20016
3130.01381 1.20004
3127.96537 1.20022
3125.91693 1.20087
3123.86850 1.20163
3121.82006 1.20236
3119.77162 1.20297
3117.72318 1.20341
3115.67474 1.20364
3113.62630 1.20374
3111.57787 1.20393
3109.52943 1.20430
3107.48099 1.20481
3105.43255 1.20532
3103.38411 1.20598
3101.33567 1.20680
3099.28724 1.20740
3097.23880 1.20764
3095.19036 1.20765
3093.14192 1.20758
3091.09348 1.20783
3089.04504 1.20852
3086.99661 1.20928
3084.94817 1.21006
3082.89973 1.21080
3080.85129 1.21135
3078.80285 1.21191
3076.75441 1.21239
3074.70598 1.21277
3072.65754 1.21339
3070.60910 1.21405
3068.56066 1.21482
3066.51222 1.21619
3064.46378 1.21760
3062.41535 1.21845
3060.36691 1.21948
3058.31847 1.22129
3056.27003 1.22326
3054.22159 1.22504
3052.17315 1.22740
3050.12471 1.23093
3048.07628 1.23519
3046.02784 1.23949
3043.97940 1.24354
3041.93096 1.24732
3039.88252 1.25070
3037.83408 1.25356
3035.78565 1.25628
3033.73721 1.25919
3031.68877 1.26224
3029.64033 1.26511
3027.59189 1.26775
3025.54345 1.27041
3023.49502 1.27313
3021.44658 1.27610
3019.39814 1.27960
3017.34970 1.28365
3015.30126 1.28842
3013.25282 1.29404
3011.20439 1.30018
3009.15595 1.30668
3007.10751 1.31365
3005.05907 1.32127
3003.01063 1.32944
3000.96219 1.33767
2998.91376 1.34629
2996.86532 1.35620
2994.81688 1.36679
2992.76844 1.37660
2990.72000 1.38506
2988.67156 1.39143
2986.62313 1.39426
2984.57469 1.39343
2982.52625 1.39085
2980.47781 1.38838
2978.42937 1.38598
2976.38093 1.38320
2974.33250 1.38034
2972.28406 1.37756
2970.23562 1.37518
2968.18718 1.37336
2966.13874 1.37200
2964.09030 1.37108
2962.04187 1.37030
2959.99343 1.36967
2957.94499 1.36975
2955.89655 1.37048
2953.84811 1.37103
2951.79967 1.37165
2949.75124 1.37388
2947.70280 1.37774
2945.65436 1.38154
2943.60592 1.38449
2941.55748 1.38750
2939.50904 1.39172
2937.46061 1.39728
2935.41217 1.40361
2933.36373 1.41067
2931.31529 1.41849
2929.26685 1.42639
2927.21841 1.43372
2925.16998 1.44007
2923.12154 1.44551
2921.07310 1.45029
2919.02466 1.45427
2916.97622 1.45530
2914.92778 1.44957
2912.87934 1.43580
2910.83091 1.41740
2908.78247 1.39998
2906.73403 1.38704
2904.68559 1.37891
2902.63715 1.37472
2900.58871 1.37244
2898.54028 1.36910
2896.49184 1.36276
2894.44340 1.35320
2892.39496 1.34235
2890.34652 1.33261
2888.29808 1.32472
2886.24965 1.31829
2884.20121 1.31309
2882.15277 1.30944
2880.10433 1.30715
2878.05589 1.30553
2876.00745 1.30479
2873.95902 1.30567
2871.91058 1.30802
2869.86214 1.31116
2867.81370 1.31504
2865.76526 1.31973
2863.71682 1.32520
2861.66839 1.33250
2859.61995 1.34282
2857.57151 1.35613
2855.52307 1.37144
2853.47463 1.38487
2851.42619 1.39007
2849.37776 1.38335
2847.32932 1.36647
2845.28088 1.34421
2843.23244 1.32125
2841.18400 1.30111
2839.13556 1.28556
2837.08713 1.27405
2835.03869 1.26513
2832.99025 1.25824
2830.94181 1.25329
2828.89337 1.24975
2826.84493 1.24696
2824.79650 1.24479
2822.74806 1.24319
2820.69962 1.24180
2818.65118 1.24052
2816.60274 1.23952
2814.55430 1.23872
2812.50587 1.23793
2810.45743 1.23730
2808.40899 1.23693
2806.36055 1.23643
2804.31211 1.23579
2802.26367 1.23550
2800.21524 1.23514
2798.16680 1.23455
2796.11836 1.23419
2794.06992 1.23391
2792.02148 1.23353
2789.97304 1.23320
2787.92461 1.23313
2785.87617 1.23343
2783.82773 1.23399
2781.77929 1.23468
2779.73085 1.23527
2777.68241 1.23562
2775.63397 1.23583
2773.58554 1.23583
2771.53710 1.23556
2769.48866 1.23530
2767.44022 1.23525
2765.39178 1.23527
2763.34334 1.23518
2761.29491 1.23499
2759.24647 1.23504
2757.19803 1.23550
2755.14959 1.23613
2753.10115 1.23670
2751.05271 1.23696
2749.00428 1.23705
2746.95584 1.23721
2744.90740 1.23745
2742.85896 1.23791
2740.81052 1.23850
2738.76208 1.23881
2736.71365 1.23913
2734.66521 1.24004
2732.61677 1.24100
2730.56833 1.24143
2728.51989 1.24187
2726.47145 1.24262
2724.42302 1.24325
2722.37458 1.24365
2720.32614 1.24393
2718.27770 1.24407
2716.22926 1.24428
2714.18082 1.24484
2712.13239 1.24557
2710.08395 1.24621
2708.03551 1.24683
2705.98707 1.24740
2703.93863 1.24778
2701.89019 1.24819
2699.84176 1.24893
2697.79332 1.24983
2695.74488 1.25055
2693.69644 1.25113
2691.64800 1.25190
2689.59956 1.25289
2687.55113 1.25380
2685.50269 1.25465
2683.45425 1.25583
2681.40581 1.25727
2679.35737 1.25859
2677.30893 1.25994
2675.26050 1.26184
2673.21206 1.26441
2671.16362 1.26748
2669.11518 1.27154
2667.06674 1.27702
2665.01830 1.28346
2662.96987 1.29051
2660.92143 1.29857
2658.87299 1.30775
2656.82455 1.31697
2654.77611 1.32525
2652.72767 1.33266
2650.67924 1.33917
2648.63080 1.34494
2646.58236 1.35089
2644.53392 1.35705
2642.48548 1.36322
2640.43704 1.36952
2638.38860 1.37541
2636.34017 1.38022
2634.29173 1.38394
2632.24329 1.38658
2630.19485 1.38835
2628.14641 1.38995
2626.09797 1.39128
2624.04954 1.39172
2622.00110 1.39140
2619.95266 1.39077
2617.90422 1.39000
2615.85578 1.38942
2613.80734 1.38932
2611.75891 1.38938
2609.71047 1.38906
2607.66203 1.38831
2605.61359 1.38754
2603.56515 1.38726
2601.51671 1.38780
2599.46828 1.38878
2597.41984 1.38989
2595.37140 1.39177
2593.32296 1.39456
2591.27452 1.39789
2589.22608 1.40173
2587.17765 1.40575
2585.12921 1.40958
2583.08077 1.41271
2581.03233 1.41486
2578.98389 1.41792
2576.93545 1.42364
2574.88702 1.43100
2572.83858 1.43871
2570.79014 1.44665
2568.74170 1.45473
2566.69326 1.46260
2564.64482 1.46966
2562.59639 1.47598
2560.54795 1.48205
2558.49951 1.48790
2556.45107 1.49483
2554.40263 1.50498
2552.35419 1.51788
2550.30576 1.52957
2548.25732 1.53574
2546.20888 1.53455
2544.16044 1.52681
2542.11200 1.51681
2540.06356 1.51163
2538.01513 1.51622
2535.96669 1.52845
2533.91825 1.54209
2531.86981 1.55371
2529.82137 1.56265
2527.77293 1.56843
2525.72450 1.57163
2523.67606 1.57346
2521.62762 1.57299
2519.57918 1.56862
2517.53074 1.56004
2515.48230 1.54723
2513.43387 1.53284
2511.38543 1.52264
2509.33699 1.51958
2507.28855 1.52260
2505.24011 1.52857
2503.19167 1.53344
2501.14324 1.53546
2499.09480 1.53464
2497.04636 1.53044
2494.99792 1.52255
2492.94948 1.51159
2490.90104 1.49860
2488.85260 1.48468
2486.80417 1.47068
2484.75573 1.45639
2482.70729 1.44109
2480.65885 1.42427
2478.61041 1.40501
2476.56197 1.38397
2474.51354 1.36557
2472.46510 1.35265
2470.41666 1.34301
2468.36822 1.33479
2466.31978 1.32833
2464.27134 1.32342
2462.22291 1.31903
2460.17447 1.31505
2458.12603 1.31173
2456.07759 1.30877
2454.02915 1.30677
2451.98071 1.30587
2449.93228 1.30509
2447.88384 1.30444
2445.83540 1.30432
2443.78696 1.30435
2441.73852 1.30432
2439.69008 1.30422
2437.64165 1.30413
2435.59321 1.30419
2433.54477 1.30448
2431.49633 1.30499
2429.44789 1.30534
2427.39945 1.30549
2425.35102 1.30575
2423.30258 1.30605
2421.25414 1.30622
2419.20570 1.30643
2417.15726 1.30669
2415.10882 1.30694
2413.06039 1.30737
2411.01195 1.30806
2408.96351 1.30870
2406.91507 1.30899
2404.86663 1.30924
2402.81819 1.30986
2400.76976 1.31073
2398.72132 1.31169
2396.67288 1.31268
2394.62444 1.31341
2392.57600 1.31392
2390.52756 1.31440
2388.47913 1.31519
2386.43069 1.31667
2384.38225 1.31832
2382.33381 1.31977
2380.28537 1.32154
2378.23693 1.32376
2376.18850 1.32606
2374.14006 1.32865
2372.09162 1.33115
2370.04318 1.33254
2367.99474 1.33301
2365.94630 1.33330
2363.89787 1.33428
2361.84943 1.33652
2359.80099 1.33978
2357.75255 1.34517
2355.70411 1.35109
2353.65567 1.35383
2351.60723 1.35314
2349.55880 1.34906
2347.51036 1.34288
2345.46192 1.33848
2343.41348 1.33926
2341.36504 1.34140
2339.31660 1.34292
2337.26817 1.34499
2335.21973 1.34592
2333.17129 1.34614
2331.12285 1.34829
2329.07441 1.35073
2327.02597 1.35096
2324.97754 1.35041
2322.92910 1.35001
2320.88066 1.34960
2318.83222 1.34867
2316.78378 1.34622
2314.73534 1.34318
2312.68691 1.34145
2310.63847 1.34102
2308.59003 1.34053
2306.54159 1.33893
2304.49315 1.33663
2302.44471 1.33452
2300.39628 1.33154
2298.34784 1.32738
2296.29940 1.32418
2294.25096 1.32249
2292.20252 1.32131
2290.15408 1.32044
2288.10565 1.32018
2286.05721 1.32013
2284.00877 1.31973
2281.96033 1.31954
2279.91189 1.32006
2277.86345 1.32083
2275.81502 1.32181
2273.76658 1.32327
2271.71814 1.32495
2269.66970 1.32653
2267.62126 1.32803
2265.57282 1.32960
2263.52439 1.33111
2261.47595 1.33249
2259.42751 1.33390
2257.37907 1.33517
2255.33063 1.33605
2253.28219 1.33663
2251.23376 1.33705
2249.18532 1.33752
2247.13688 1.33812
2245.08844 1.33858
2243.04000 1.33885
2240.99156 1.33928
2238.94313 1.33990
2236.89469 1.34068
2234.84625 1.34169
2232.79781 1.34259
2230.74937 1.34317
2228.70093 1.34404
2226.65250 1.34572
2224.60406 1.34769
2222.55562 1.34943
2220.50718 1.35069
2218.45874 1.35159
2216.41030 1.35287
2214.36186 1.35457
2212.31343 1.35633
2210.26499 1.35819
2208.21655 1.36030
2206.16811 1.36285
2204.11967 1.36561
2202.07123 1.36774
2200.02280 1.36923
2197.97436 1.37080
2195.92592 1.37269
2193.87748 1.37480
2191.82904 1.37678
2189.78060 1.37824
2187.73217 1.37955
2185.68373 1.38131
2183.63529 1.38363
2181.58685 1.38624
2179.53841 1.38839
2177.48997 1.38935
2175.44154 1.38962
2173.39310 1.39039
2171.34466 1.39201
2169.29622 1.39416
2167.24778 1.39663
2165.19934 1.39938
2163.15091 1.40289
2161.10247 1.40694
2159.05403 1.41053
2157.00559 1.41366
2154.95715 1.41645
2152.90871 1.41785
2150.86028 1.41698
2148.81184 1.41427
2146.76340 1.41069
2144.71496 1.40781
2142.66652 1.40687
2140.61808 1.40732
2138.56965 1.40779
2136.52121 1.40766
2134.47277 1.40725
2132.42433 1.40680
2130.37589 1.40623
2128.32745 1.40559
2126.27902 1.40517
2124.23058 1.40569
2122.18214 1.40683
2120.13370 1.40734
2118.08526 1.40680
2116.03682 1.40584
2113.98839 1.40466
2111.93995 1.40282
2109.89151 1.40048
2107.84307 1.39801
2105.79463 1.39524
2103.74619 1.39192
2101.69776 1.38790
2099.64932 1.38343
2097.60088 1.37953
2095.55244 1.37722
2093.50400 1.37605
2091.45556 1.37515
2089.40713 1.37428
2087.35869 1.37339
2085.31025 1.37278
2083.26181 1.37282
2081.21337 1.37336
2079.16493 1.37428
2077.11649 1.37531
2075.06806 1.37622
2073.01962 1.37727
2070.97118 1.37852
2068.92274 1.37972
2066.87430 1.38110
2064.82586 1.38280
2062.77743 1.38424
2060.72899 1.38503
2058.68055 1.38562
2056.63211 1.38616
2054.58367 1.38665
2052.53523 1.38738
2050.48680 1.38824
2048.43836 1.38878
2046.38992 1.38898
2044.34148 1.38956
2042.29304 1.39079
2040.24460 1.39194
2038.19617 1.39265
2036.14773 1.39318
2034.09929 1.39360
2032.05085 1.39393
2030.00241 1.39445
2027.95397 1.39539
2025.90554 1.39648
2023.85710 1.39756
2021.80866 1.39885
2019.76022 1.40025
2017.71178 1.40204
2015.66334 1.40389
2013.61491 1.40471
2011.56647 1.40521
2009.51803 1.40654
2007.46959 1.40842
2005.42115 1.40992
2003.37271 1.41085
2001.32428 1.41169
1999.27584 1.41280
1997.22740 1.41411
1995.17896 1.41555
1993.13052 1.41849
1991.08208 1.42307
1989.03365 1.42656
1986.98521 1.42905
1984.93677 1.43153
1982.88833 1.43353
1980.83989 1.43515
1978.79145 1.43673
1976.74302 1.43825
1974.69458 1.43929
1972.64614 1.44007
1970.59770 1.44114
1968.54926 1.44336
1966.50082 1.44665
1964.45239 1.44894
1962.40395 1.45048
1960.35551 1.45249
1958.30707 1.45410
1956.25863 1.45547
1954.21019 1.45708
1952.16176 1.45848
1950.11332 1.46023
1948.06488 1.46234
1946.01644 1.46404
1943.96800 1.46615
1941.91956 1.46967
1939.87112 1.47213
1937.82269 1.47316
1935.77425 1.47475
1933.72581 1.47659
1931.67737 1.47774
1929.62893 1.47841
1927.58049 1.47921
1925.53206 1.48036
1923.48362 1.48308
1921.43518 1.48587
1919.38674 1.48699
1917.33830 1.48943
1915.28986 1.49221
1913.24143 1.49354
1911.19299 1.49574
1909.14455 1.49966
1907.09611 1.50302
1905.04767 1.50469
1902.99923 1.50574
1900.95080 1.50719
1898.90236 1.50941
1896.85392 1.51266
1894.80548 1.51666
1892.75704 1.51962
1890.70860 1.52232
1888.66017 1.52623
1886.61173 1.52919
1884.56329 1.53133
1882.51485 1.53394
1880.46641 1.53697
1878.41797 1.54083
1876.36954 1.54475
1874.32110 1.54791
1872.27266 1.55064
1870.22422 1.55540
1868.17578 1.56456
1866.12734 1.57154
1864.07891 1.57355
1862.03047 1.57491
1859.98203 1.57802
1857.93359 1.58266
1855.88515 1.58710
1853.83671 1.59095
1851.78828 1.59527
1849.73984 1.59987
1847.69140 1.60396
1845.64296 1.60889
1843.59452 1.61662
1841.54608 1.62223
1839.49765 1.62496
1837.44921 1.62892
1835.40077 1.63402
1833.35233 1.63803
1831.30389 1.64249
1829.25545 1.64982
1827.20702 1.65638
1825.15858 1.66248
1823.11014 1.66973
1821.06170 1.67616
1819.01326 1.68302
1816.96482 1.69127
1814.91639 1.70005
1812.86795 1.70989
1810.81951 1.72260
1808.77107 1.73724
1806.72263 1.75413
1804.67419 1.77725
1802.62575 1.81254
1800.57732 1.85944
1798.52888 1.89720
1796.48044 1.91633
1794.43200 1.93219
1792.38356 1.96588
1790.33512 2.00811
1788.28669 2.02779
1786.23825 2.03225
1784.18981 2.03259
1782.14137 2.02801
1780.09293 2.01443
1778.04449 1.99011
1775.99606 1.95657
1773.94762 1.91914
1771.89918 1.88872
1769.85074 1.87651
1767.80230 1.87450
1765.75386 1.87492
1763.70543 1.87767
1761.65699 1.88647
1759.60855 1.89628
1757.56011 1.90344
1755.51167 1.91166
1753.46323 1.91999
1751.41480 1.93125
1749.36636 1.94688
1747.31792 1.95703
1745.26948 1.96321
1743.22104 1.97238
1741.17260 1.98510
1739.12417 1.99880
1737.07573 2.00784
1735.02729 2.01710
1732.97885 2.03324
1730.93041 2.04576
1728.88197 2.05804
1726.83354 2.07165
1724.78510 2.08634
1722.73666 2.10201
1720.68822 2.11335
1718.63978 2.12239
1716.59134 2.13596
1714.54291 2.14042
1712.49447 2.13604
1710.44603 2.13141
1708.39759 2.12826
1706.34915 2.12896
1704.30071 2.13324
1702.25228 2.13557
1700.20384 2.13749
1698.15540 2.14562
1696.10696 2.15794
1694.05852 2.16720
1692.01008 2.17207
1689.96165 2.17955
1687.91321 2.19068
1685.86477 2.20776
1683.81633 2.23508
1681.76789 2.24867
1679.71945 2.25593
1677.67102 2.26510
1675.62258 2.27654
1673.57414 2.28833
1671.52570 2.29843
1669.47726 2.31026
1667.42882 2.31936
1665.38038 2.32212
1663.33195 2.32469
1661.28351 2.32581
1659.23507 2.32201
1657.18663 2.31541
1655.13819 2.30768
1653.08975 2.30463
1651.04132 2.30147
1648.99288 2.29470
1646.94444 2.28066
1644.89600 2.26350
1642.84756 2.25309
1640.79912 2.24900
1638.75069 2.24743
1636.70225 2.24226
1634.65381 2.23287
1632.60537 2.22508
1630.55693 2.21877
1628.50849 2.21311
1626.46006 2.20981
1624.41162 2.20699
1622.36318 2.20306
1620.31474 2.19646
1618.26630 2.18860
1616.21786 2.18306
1614.16943 2.18184
1612.12099 2.17818
1610.07255 2.16824
1608.02411 2.15402
1605.97567 2.13953
1603.92723 2.12242
1601.87880 2.09836
1599.83036 2.07321
1597.78192 2.04851
1595.73348 2.01777
1593.68504 1.97677
1591.63660 1.92776
1589.58817 1.87041
1587.53973 1.80947
1585.49129 1.75332
1583.44285 1.70840
1581.39441 1.68029
1579.34597 1.66832
1577.29754 1.67321
1575.24910 1.69826
1573.20066 1.72015
1571.15222 1.73981
1569.10378 1.76785
1567.05534 1.77582
1565.00691 1.75013
1562.95847 1.71024
1560.91003 1.66444
1558.86159 1.56095
1556.81315 1.47273
1554.76471 1.43557
1552.71628 1.40405
1550.66784 1.37793
1548.61940 1.35612
1546.57096 1.34012
1544.52252 1.32782
1542.47408 1.31753
1540.42565 1.30989
1538.37721 1.30327
1536.32877 1.29657
1534.28033 1.29103
1532.23189 1.28635
1530.18345 1.28105
1528.13501 1.27666
1526.08658 1.27503
1524.03814 1.27445
1521.98970 1.27374
1519.94126 1.27143
1517.89282 1.26782
1515.84438 1.26486
1513.79595 1.26108
1511.74751 1.25746
1509.69907 1.25521
1507.65063 1.25799
1505.60219 1.26467
1503.55375 1.26252
1501.50532 1.25768
1499.45688 1.25309
1497.40844 1.24873
1495.36000 1.24230
1493.31156 1.23523
1491.26312 1.23060
1489.21469 1.22930
1487.16625 1.22567
1485.11781 1.21933
1483.06937 1.21383
1481.02093 1.20993
1478.97249 1.20668
1476.92406 1.20395
1474.87562 1.20310
1472.82718 1.20480
1470.77874 1.20475
1468.73030 1.20286
1466.68186 1.20567
1464.63343 1.22048
1462.58499 1.23807
1460.53655 1.24909
1458.48811 1.27138
1456.43967 1.33235
1454.39123 1.37622
1452.34280 1.39893
1450.29436 1.42177
1448.24592 1.44868
1446.19748 1.47499
1444.14904 1.49469
1442.10060 1.51131
1440.05217 1.52615
1438.00373 1.54211
1435.95529 1.56535
1433.90685 1.58221
1431.85841 1.59213
1429.80997 1.60348
1427.76154 1.61388
1425.71310 1.62216
1423.66466 1.63070
1421.61622 1.63763
1419.56778 1.64607
1417.51934 1.65840
1415.47091 1.66572
1413.42247 1.67073
1411.37403 1.67629
1409.32559 1.68234
1407.27715 1.68888
1405.22871 1.69645
1403.18028 1.70246
1401.13184 1.70771
1399.08340 1.71614
1397.03496 1.72415
1394.98652 1.72790
1392.93808 1.72946
1390.88965 1.73073
1388.84121 1.73381
1386.79277 1.74047
1384.74433 1.74484
1382.69589 1.74539
1380.64745 1.74618
1378.59901 1.74912
1376.55058 1.75423
1374.50214 1.76241
1372.45370 1.77025
1370.40526 1.77349
1368.35682 1.77401
1366.30838 1.77307
1364.25995 1.77353
1362.21151 1.77765
1360.16307 1.78231
1358.11463 1.78583
1356.06619 1.79031
1354.01775 1.79477
1351.96932 1.79749
1349.92088 1.79914
1347.87244 1.79970
1345.82400 1.79901
1343.77556 1.79792
1341.72712 1.79829
1339.67869 1.80116
1337.63025 1.80449
1335.58181 1.80615
1333.53337 1.80851
1331.48493 1.81324
1329.43649 1.81925
1327.38806 1.82454
1325.33962 1.82812
1323.29118 1.83032
1321.24274 1.83234
1319.19430 1.83468
1317.14586 1.83622
1315.09743 1.83767
1313.04899 1.84002
1311.00055 1.84268
1308.95211 1.84496
1306.90367 1.84709
1304.85523 1.84950
1302.80680 1.85226
1300.75836 1.85524
1298.70992 1.85863
1296.66148 1.86263
1294.61304 1.86744
1292.56460 1.87269
1290.51617 1.87720
1288.46773 1.88254
1286.41929 1.88869
1284.37085 1.89224
1282.32241 1.89215
1280.27397 1.88972
1278.22554 1.88657
1276.17710 1.88340
1274.12866 1.87938
1272.08022 1.87419
1270.03178 1.86960
1267.98334 1.86622
1265.93491 1.86219
1263.88647 1.85734
1261.83803 1.85443
1259.78959 1.85438
1257.74115 1.85657
1255.69271 1.86132
1253.64428 1.86801
1251.59584 1.87536
1249.54740 1.88200
1247.49896 1.88552
1245.45052 1.88551
1243.40208 1.88494
1241.35364 1.88553
1239.30521 1.88661
1237.25677 1.88713
1235.20833 1.88632
1233.15989 1.88435
1231.11145 1.88209
1229.06301 1.88015
1227.01458 1.87889
1224.96614 1.87788
1222.91770 1.87637
1220.86926 1.87487
1218.82082 1.87334
1216.77238 1.87074
1214.72395 1.86795
1212.67551 1.86689
1210.62707 1.86763
1208.57863 1.86891
1206.53019 1.87062
1204.48175 1.87393
1202.43332 1.87936
1200.38488 1.88596
1198.33644 1.89194
1196.28800 1.89616
1194.23956 1.89918
1192.19112 1.90284
1190.14269 1.90843
1188.09425 1.91443
1186.04581 1.91817
1183.99737 1.91996
1181.94893 1.92166
1179.90049 1.92347
1177.85206 1.92504
1175.80362 1.92632
1173.75518 1.92644
1171.70674 1.92432
1169.65830 1.91997
1167.60986 1.91420
1165.56143 1.90861
1163.51299 1.90411
1161.46455 1.89964
1159.41611 1.89466
1157.36767 1.89082
1155.31923 1.88835
1153.27080 1.88542
1151.22236 1.88226
1149.17392 1.87987
1147.12548 1.87755
1145.07704 1.87514
1143.02860 1.87201
1140.98017 1.86758
1138.93173 1.86453
1136.88329 1.86404
1134.83485 1.86342
1132.78641 1.86178
1130.73797 1.86033
1128.68954 1.85977
1126.64110 1.86011
1124.59266 1.86129
1122.54422 1.86247
1120.49578 1.86244
1118.44734 1.86263
1116.39891 1.86427
1114.35047 1.86650
1112.30203 1.86962
1110.25359 1.87381
1108.20515 1.87785
1106.15671 1.88217
1104.10827 1.88764
1102.05984 1.89334
1100.01140 1.89884
1097.96296 1.90503
1095.91452 1.91326
1093.86608 1.92502
1091.81764 1.94259
1089.76921 1.97029
1087.72077 2.01581
1085.67233 2.05459
1083.62389 2.03610
1081.57545 1.98677
1079.52701 1.94792
1077.47858 1.91952
1075.43014 1.90149
1073.38170 1.88921
1071.33326 1.87814
1069.28482 1.86876
1067.23638 1.85686
1065.18795 1.84375
1063.13951 1.84266
1061.09107 1.85854
1059.04263 1.86495
1056.99419 1.84212
1054.94575 1.81414
1052.89732 1.79969
1050.84888 1.79463
1048.80044 1.79355
1046.75200 1.79347
1044.70356 1.79337
1042.65512 1.79354
1040.60669 1.79390
1038.55825 1.79476
1036.50981 1.79727
1034.46137 1.80063
1032.41293 1.80368
1030.36449 1.80723
1028.31606 1.81189
1026.26762 1.81740
1024.21918 1.82271
1022.17074 1.82817
1020.12230 1.83433
1018.07386 1.84032
1016.02543 1.84588
1013.97699 1.85211
1011.92855 1.86024
1009.88011 1.87070
1007.83167 1.88226
1005.78323 1.89211
1003.73480 1.89986
1001.68636 1.90755
999.63792 1.91587
997.58948 1.92525
995.54104 1.93641
993.49260 1.94678
991.44417 1.95381
989.39573 1.95864
987.34729 1.96378
985.29885 1.96876
983.25041 1.97251
981.20197 1.97562
979.15354 1.97736
977.10510 1.97836
975.05666 1.98044
973.00822 1.98327
970.95978 1.98454
968.91134 1.98547
966.86290 1.98884
964.81447 1.99253
962.76603 1.99464
960.71759 1.99729
958.66915 2.00183
956.62071 2.00608
954.57227 2.00748
952.52384 2.00705
950.47540 2.01058
948.42696 2.01947
946.37852 2.02771
944.33008 2.03332
942.28164 2.03839
940.23321 2.04341
938.18477 2.04853
936.13633 2.05315
934.08789 2.05867
932.03945 2.06874
929.99101 2.07985
927.94258 2.08623
925.89414 2.09021
923.84570 2.09361
921.79726 2.09686
919.74882 2.10456
917.70038 2.11532
915.65195 2.12384
913.60351 2.13829
911.55507 2.17143
909.50663 2.20359
907.45819 2.19909
905.40975 2.17582
903.36132 2.16594
901.31288 2.16574
899.26444 2.16365
897.21600 2.15928
895.16756 2.15548
893.11912 2.14876
891.07069 2.13167
889.02225 2.10408
886.97381 2.06830
884.92537 2.01583
882.87693 1.93166
880.82849 1.80265
878.78006 1.63883
876.73162 1.48932
874.68318 1.39226
872.63474 1.34513
870.58630 1.32531
868.53786 1.31575
866.48943 1.31065
864.44099 1.30862
862.39255 1.30802
860.34411 1.30764
858.29567 1.30902
856.24723 1.31863
854.19880 1.35405
852.15036 1.43503
850.10192 1.55213
848.05348 1.66290
846.00504 1.73117
843.95660 1.75447
841.90817 1.76840
839.85973 1.79516
837.81129 1.82134
835.76285 1.83983
833.71441 1.85039
831.66597 1.85115
829.61753 1.84885
827.56910 1.85139
825.52066 1.85707
823.47222 1.85950
821.42378 1.85958
819.37534 1.86315
817.32690 1.87062
815.27847 1.87816
813.23003 1.88394
811.18159 1.89013
809.13315 1.89924
807.08471 1.90903
805.03627 1.91370
802.98784 1.91461
800.93940 1.91958
798.89096 1.92610
796.84252 1.93016
794.79408 1.93602
792.74564 1.94265
790.69721 1.94614
788.64877 1.94939
786.60033 1.95367
784.55189 1.95500
782.50345 1.95331
780.45501 1.95460
778.40658 1.96318
776.35814 1.97130
774.30970 1.97229
772.26126 1.97204
770.21282 1.97506
768.16438 1.98141
766.11595 1.98841
764.06751 1.98995
762.01907 1.98531
759.97063 1.98283
757.92219 1.98490
755.87375 1.98563
753.82532 1.98427
751.77688 1.98368
749.72844 1.98433
747.68000 1.98514
745.63156 1.98595
743.58312 1.98828
741.53469 1.99143
739.48625 1.99318
737.43781 1.99676
735.38937 2.00540
733.34093 2.01324
731.29249 2.01714
729.24406 2.02083
727.19562 2.02827
725.14718 2.04570
723.09874 2.08289
721.05030 2.14203
719.00186 2.19863
716.95343 2.15481
714.90499 1.99131
712.85655 1.88365
710.80811 1.90142
708.75967 1.97107
706.71123 2.00826
704.66280 2.02692
702.61436 2.04646
700.56592 2.04760
698.51748 2.03028
696.46904 2.01869
694.42060 2.01853
692.37216 2.01957
690.32373 2.01637
688.27529 2.01233
686.22685 2.01159
684.17841 2.01057
682.12997 2.00184
680.08153 1.99839
678.03310 2.00703
675.98466 2.00233
673.93622 1.99008
671.88778 2.00244
669.83934 2.03164
667.79090 2.03790
665.74247 2.02492
663.69403 2.02023
661.64559 2.02776
659.59715 2.04304
657.54871 2.04908
655.50027 2.04239
653.45184 2.03145
651.40340 2.03202
649.35496 2.05020
647.30652 2.05675
645.25808 2.04238
643.20964 2.04678
641.16121 2.06432
639.11277 2.05851
637.06433 2.05064
635.01589 2.06437
632.96745 2.08345
630.91901 2.10163
628.87058 2.12529
626.82214 2.14626
624.77370 2.14811
622.72526 2.11059
620.67682 2.05031
618.62838 2.03523
616.57995 2.09617
614.53151 2.18061
612.48307 2.22707
610.43463 2.24504
608.38619 2.26171
606.33775 2.23329
604.28932 2.12430
602.24088 2.00400
600.19244 1.94864
598.14400 1.97917
