3996.50324 1.27707
3994.45480 1.28048
3992.40636 1.28360
3990.35792 1.28635
3988.30948 1.28852
3986.26104 1.28953
3984.21261 1.29014
3982.16417 1.29147
3980.11573 1.29344
3978.06729 1.29484
3976.01885 1.29520
3973.97041 1.29567
3971.92198 1.29681
3969.87354 1.29769
3967.82510 1.29764
3965.77666 1.29673
3963.72822 1.29515
3961.67978 1.29271
3959.63135 1.28878
3957.58291 1.28413
3955.53447 1.27940
3953.48603 1.27434
3951.43759 1.27003
3949.38915 1.26823
3947.34072 1.26800
3945.29228 1.26666
3943.24384 1.26516
3941.19540 1.26413
3939.14696 1.26250
3937.09852 1.26046
3935.05009 1.25815
3933.00165 1.25725
3930.95321 1.25854
3928.90477 1.25760
3926.85633 1.25432
3924.80789 1.25261
3922.75946 1.25086
3920.71102 1.24689
3918.66258 1.24433
3916.61414 1.24453
3914.56570 1.24257
3912.51726 1.23827
3910.46883 1.23483
3908.42039 1.23200
3906.37195 1.23038
3904.32351 1.23339
3902.27507 1.23778
3900.22663 1.23847
3898.17820 1.23626
3896.12976 1.23024
3894.08132 1.22341
3892.03288 1.22112
3889.98444 1.21969
3887.93600 1.21303
3885.88756 1.20818
3883.83913 1.20715
3881.79069 1.20427
3879.74225 1.20237
3877.69381 1.19730
3875.64537 1.19000
3873.59693 1.18745
3871.54850 1.18824
3869.50006 1.19092
3867.45162 1.19059
3865.40318 1.18694
3863.35474 1.18714
3861.30630 1.18668
3859.25787 1.18198
3857.20943 1.17567
3855.16099 1.17185
3853.11255 1.18551
3851.06411 1.19612
3849.01567 1.18902
3846.96724 1.18005
3844.91880 1.17548
3842.87036 1.17615
3840.82192 1.17861
3838.77348 1.18317
3836.72504 1.18837
3834.67661 1.18735
3832.62817 1.18374
3830.57973 1.18117
3828.53129 1.17916
3826.48285 1.17852
3824.43441 1.17692
3822.38598 1.17614
3820.33754 1.18397
3818.28910 1.18631
3816.24066 1.18463
3814.19222 1.18483
3812.14378 1.18041
3810.09535 1.17431
3808.04691 1.17331
3805.99847 1.17842
3803.95003 1.17872
3801.90159 1.18059
3799.85315 1.18755
3797.80472 1.18707
3795.75628 1.18502
3793.70784 1.18305
3791.65940 1.18038
3789.61096 1.17910
3787.56252 1.17889
3785.51409 1.18028
3783.46565 1.18156
3781.41721 1.18088
3779.36877 1.18305
3777.32033 1.18568
3775.27189 1.18370
3773.22346 1.18089
3771.17502 1.18170
3769.12658 1.18662
3767.07814 1.18939
3765.02970 1.19005
3762.98126 1.18927
3760.93283 1.18829
3758.88439 1.19254
3756.83595 1.19559
3754.78751 1.19171
3752.73907 1.18880
3750.69063 1.19927
3748.64219 1.20810
3746.59376 1.20382
3744.54532 1.20556
3742.49688 1.21285
3740.44844 1.21131
3738.40000 1.20655
3736.35156 1.20883
3734.30313 1.22069
3732.25469 1.22585
3730.20625 1.22234
3728.15781 1.21862
3726.10937 1.22058
3724.06093 1.22655
3722.01250 1.23027
3719.96406 1.23133
3717.91562 1.23075
3715.86718 1.22932
3713.81874 1.22948
3711.77030 1.23837
3709.72187 1.25148
3707.67343 1.25449
3705.62499 1.25348
3703.57655 1.25465
3701.52811 1.26122
3699.47967 1.26750
3697.43124 1.27098
3695.38280 1.27498
3693.33436 1.27822
3691.28592 1.28306
3689.23748 1.29660
3687.18904 1.30684
3685.14061 1.30709
3683.09217 1.30593
3681.04373 1.30711
3678.99529 1.30909
3676.94685 1.31301
3674.89841 1.32410
3672.84998 1.32858
3670.80154 1.33135
3668.75310 1.34066
3666.70466 1.34374
3664.65622 1.34448
3662.60778 1.34902
3660.55935 1.35569
3658.51091 1.36274
3656.46247 1.37381
3654.41403 1.38403
3652.36559 1.38802
3650.31715 1.39826
3648.26872 1.42313
3646.22028 1.43432
3644.17184 1.43613
3642.12340 1.43998
3640.07496 1.44720
3638.02652 1.45588
3635.97809 1.46526
3633.92965 1.47499
3631.88121 1.48388
3629.83277 1.49717
3627.78433 1.51749
3625.73589 1.52606
3623.68746 1.52968
3621.63902 1.53516
3619.59058 1.54479
3617.54214 1.55541
3615.49370 1.56168
3613.44526 1.56792
3611.39682 1.57569
3609.34839 1.58485
3607.29995 1.59408
3605.25151 1.59997
3603.20307 1.60654
3601.15463 1.61674
3599.10619 1.62630
3597.05776 1.63364
3595.00932 1.64038
3592.96088 1.64377
3590.91244 1.64363
3588.86400 1.64611
3586.81556 1.65099
3584.76713 1.65015
3582.71869 1.64880
3580.67025 1.65074
3578.62181 1.65401
3576.57337 1.65720
3574.52493 1.66031
3572.47650 1.66312
3570.42806 1.66627
3568.37962 1.67139
3566.33118 1.67740
3564.28274 1.67900
3562.23430 1.67907
3560.18587 1.68039
3558.13743 1.68149
3556.08899 1.68142
3554.04055 1.68139
3551.99211 1.68330
3549.94367 1.68633
3547.89524 1.68876
3545.84680 1.69107
3543.79836 1.69263
3541.74992 1.69284
3539.70148 1.69338
3537.65304 1.69391
3535.60461 1.69448
3533.55617 1.69689
3531.50773 1.69977
3529.45929 1.70071
3527.41085 1.70107
3525.36241 1.70281
3523.31398 1.70359
3521.26554 1.70216
3519.21710 1.70078
3517.16866 1.70093
3515.12022 1.70188
3513.07178 1.70290
3511.02335 1.70441
3508.97491 1.70616
3506.92647 1.70689
3504.87803 1.70758
3502.82959 1.70791
3500.78115 1.70636
3498.73272 1.70495
3496.68428 1.70514
3494.63584 1.70728
3492.58740 1.70955
3490.53896 1.70913
3488.49052 1.70717
3486.44209 1.70677
3484.39365 1.70740
3482.34521 1.70761
3480.29677 1.70756
3478.24833 1.70801
3476.19989 1.70972
3474.15146 1.71183
3472.10302 1.71293
3470.05458 1.71260
3468.00614 1.71170
3465.95770 1.71140
3463.90926 1.71179
3461.86082 1.71134
3459.81239 1.70969
3457.76395 1.70884
3455.71551 1.70945
3453.66707 1.71004
3451.61863 1.70926
3449.57019 1.70921
3447.52176 1.71172
3445.47332 1.71382
3443.42488 1.71358
3441.37644 1.71285
3439.32800 1.71330
3437.27956 1.71488
3435.23113 1.71569
3433.18269 1.71517
3431.13425 1.71388
3429.08581 1.71218
3427.03737 1.71205
3424.98893 1.71372
3422.94050 1.71531
3420.89206 1.71578
3418.84362 1.71523
3416.79518 1.71473
3414.74674 1.71470
3412.69830 1.71518
3410.64987 1.71619
3408.60143 1.71597
3406.55299 1.71438
3404.50455 1.71425
3402.45611 1.71504
3400.40767 1.71508
3398.35924 1.71599
3396.31080 1.71707
3394.26236 1.71655
3392.21392 1.71635
3390.16548 1.71757
3388.11704 1.71890
3386.06861 1.71870
3384.02017 1.71699
3381.97173 1.71605
3379.92329 1.71691
3377.87485 1.71790
3375.82641 1.71803
3373.77798 1.71743
3371.72954 1.71527
3369.68110 1.71280
3367.63266 1.71293
3365.58422 1.71496
3363.53578 1.71660
3361.48735 1.71698
3359.43891 1.71576
3357.39047 1.71465
3355.34203 1.71503
3353.29359 1.71564
3351.24515 1.71608
3349.19672 1.71664
3347.14828 1.71687
3345.09984 1.71727
3343.05140 1.71798
3341.00296 1.71817
3338.95452 1.71848
3336.90609 1.71895
3334.85765 1.71882
3332.80921 1.71856
3330.76077 1.71883
3328.71233 1.71963
3326.66389 1.71991
3324.61545 1.71920
3322.56702 1.71892
3320.51858 1.71979
3318.47014 1.72074
3316.42170 1.72107
3314.37326 1.72101
3312.32482 1.72167
3310.27639 1.72284
3308.22795 1.72295
3306.17951 1.72178
3304.13107 1.71974
3302.08263 1.71875
3300.03419 1.72016
3297.98576 1.72210
3295.93732 1.72303
3293.88888 1.72362
3291.84044 1.72438
3289.79200 1.72431
3287.74356 1.72319
3285.69513 1.72229
3283.64669 1.72244
3281.59825 1.72337
3279.54981 1.72373
3277.50137 1.72337
3275.45293 1.72387
3273.40450 1.72426
3271.35606 1.72293
3269.30762 1.72111
3267.25918 1.72050
3265.21074 1.72137
3263.16230 1.72246
3261.11387 1.72282
3259.06543 1.72299
3257.01699 1.72307
3254.96855 1.72234
3252.92011 1.72122
3250.87167 1.72065
3248.82324 1.72151
3246.77480 1.72312
3244.72636 1.72352
3242.67792 1.72337
3240.62948 1.72402
3238.58104 1.72466
3236.53261 1.72465
3234.48417 1.72419
3232.43573 1.72322
3230.38729 1.72298
3228.33885 1.72384
3226.29041 1.72331
3224.24198 1.72168
3222.19354 1.72070
3220.14510 1.72004
3218.09666 1.71940
3216.04822 1.71978
3213.99978 1.72185
3211.95135 1.72366
3209.90291 1.72362
3207.85447 1.72272
3205.80603 1.72232
3203.75759 1.72293
3201.70915 1.72385
3199.66072 1.72412
3197.61228 1.72337
3195.56384 1.72185
3193.51540 1.72041
3191.46696 1.71996
3189.41852 1.72057
3187.37008 1.72124
3185.32165 1.72125
3183.27321 1.72101
3181.22477 1.72138
3179.17633 1.72261
3177.12789 1.72365
3175.07945 1.72380
3173.03102 1.72342
3170.98258 1.72222
3168.93414 1.72100
3166.88570 1.72157
3164.83726 1.72274
3162.78882 1.72281
3160.74039 1.72222
3158.69195 1.72151
3156.64351 1.72143
3154.59507 1.72171
3152.54663 1.72117
3150.49819 1.72038
3148.44976 1.71982
3146.40132 1.71870
3144.35288 1.71751
3142.30444 1.71741
3140.25600 1.71819
3138.20756 1.71832
3136.15913 1.71810
3134.11069 1.71847
3132.06225 1.71762
3130.01381 1.71592
3127.96537 1.71554
3125.91693 1.71657
3123.86850 1.71811
3121.82006 1.71806
3119.77162 1.71611
3117.72318 1.71436
3115.67474 1.71321
3113.62630 1.71249
3111.57787 1.71213
3109.52943 1.71194
3107.48099 1.71234
3105.43255 1.71305
3103.38411 1.71382
3101.33567 1.71393
3099.28724 1.71304
3097.23880 1.71217
3095.19036 1.71147
3093.14192 1.71026
3091.09348 1.70850
3089.04504 1.70692
3086.99661 1.70609
3084.94817 1.70610
3082.89973 1.70599
3080.85129 1.70457
3078.80285 1.70292
3076.75441 1.70280
3074.70598 1.70322
3072.65754 1.70268
3070.60910 1.70161
3068.56066 1.70073
3066.51222 1.70038
3064.46378 1.70090
3062.41535 1.70200
3060.36691 1.70220
3058.31847 1.70131
3056.27003 1.70079
3054.22159 1.70045
3052.17315 1.69957
3050.12471 1.69849
3048.07628 1.69731
3046.02784 1.69559
3043.97940 1.69396
3041.93096 1.69352
3039.88252 1.69385
3037.83408 1.69399
3035.78565 1.69349
3033.73721 1.69280
3031.68877 1.69244
3029.64033 1.69211
3027.59189 1.69137
3025.54345 1.68980
3023.49502 1.68866
3021.44658 1.68821
3019.39814 1.68694
3017.34970 1.68553
3015.30126 1.68503
3013.25282 1.68524
3011.20439 1.68558
3009.15595 1.68595
3007.10751 1.68654
3005.05907 1.68687
3003.01063 1.68650
3000.96219 1.68534
2998.91376 1.68436
2996.86532 1.68462
2994.81688 1.68536
2992.76844 1.68585
2990.72000 1.68608
2988.67156 1.68559
2986.62313 1.68393
2984.57469 1.68096
2982.52625 1.67759
2980.47781 1.67556
2978.42937 1.67502
2976.38093 1.67458
2974.33250 1.67424
2972.28406 1.67430
2970.23562 1.67368
2968.18718 1.67210
2966.13874 1.67095
2964.09030 1.67049
2962.04187 1.66999
2959.99343 1.66964
2957.94499 1.66968
2955.89655 1.66911
2953.84811 1.66683
2951.79967 1.66431
2949.75124 1.66331
2947.70280 1.66273
2945.65436 1.66204
2943.60592 1.66234
2941.55748 1.66349
2939.50904 1.66433
2937.46061 1.66424
2935.41217 1.66372
2933.36373 1.66304
2931.31529 1.66183
2929.26685 1.66064
2927.21841 1.66020
2925.16998 1.66057
2923.12154 1.66169
2921.07310 1.66229
2919.02466 1.66079
2916.97622 1.65829
2914.92778 1.65521
2912.87934 1.64984
2910.83091 1.64363
2908.78247 1.63936
2906.73403 1.63652
2904.68559 1.63369
2902.63715 1.63145
2900.58871 1.62989
2898.54028 1.62807
2896.49184 1.62606
2894.44340 1.62342
2892.39496 1.61961
2890.34652 1.61577
2888.29808 1.61257
2886.24965 1.60965
2884.20121 1.60663
2882.15277 1.60313
2880.10433 1.59981
2878.05589 1.59767
2876.00745 1.59649
2873.95902 1.59535
2871.91058 1.59378
2869.86214 1.59251
2867.81370 1.59181
2865.76526 1.59122
2863.71682 1.59081
2861.66839 1.59041
2859.61995 1.59013
2857.57151 1.59096
2855.52307 1.59238
2853.47463 1.59237
2851.42619 1.59068
2849.37776 1.58805
2847.32932 1.58451
2845.28088 1.58018
2843.23244 1.57547
2841.18400 1.57087
2839.13556 1.56666
2837.08713 1.56290
2835.03869 1.55957
2832.99025 1.55650
2830.94181 1.55298
2828.89337 1.54884
2826.84493 1.54493
2824.79650 1.54099
2822.74806 1.53646
2820.69962 1.53197
2818.65118 1.52787
2816.60274 1.52421
2814.55430 1.52112
2812.50587 1.51810
2810.45743 1.51498
2808.40899 1.51236
2806.36055 1.50985
2804.31211 1.50671
2802.26367 1.50316
2800.21524 1.49981
2798.16680 1.49676
2796.11836 1.49350
2794.06992 1.49044
2792.02148 1.48857
2789.97304 1.48723
2787.92461 1.48555
2785.87617 1.48369
2783.82773 1.48200
2781.77929 1.48078
2779.73085 1.48028
2777.68241 1.48019
2775.63397 1.47960
2773.58554 1.47755
2771.53710 1.47417
2769.48866 1.47062
2767.44022 1.46741
2765.39178 1.46433
2763.34334 1.46156
2761.29491 1.45963
2759.24647 1.45846
2757.19803 1.45716
2755.14959 1.45544
2753.10115 1.45378
2751.05271 1.45235
2749.00428 1.45116
2746.95584 1.45004
2744.90740 1.44887
2742.85896 1.44751
2740.81052 1.44570
2738.76208 1.44371
2736.71365 1.44232
2734.66521 1.44190
2732.61677 1.44173
2730.56833 1.44116
2728.51989 1.44026
2726.47145 1.43945
2724.42302 1.43884
2722.37458 1.43800
2720.32614 1.43725
2718.27770 1.43684
2716.22926 1.43643
2714.18082 1.43598
2712.13239 1.43545
2710.08395 1.43493
2708.03551 1.43468
2705.98707 1.43456
2703.93863 1.43472
2701.89019 1.43534
2699.84176 1.43612
2697.79332 1.43759
2695.74488 1.43974
2693.69644 1.44143
2691.64800 1.44268
2689.59956 1.44389
2687.55113 1.44523
2685.50269 1.44728
2683.45425 1.44987
2681.40581 1.45279
2679.35737 1.45636
2677.30893 1.46020
2675.26050 1.46416
2673.21206 1.46901
2671.16362 1.47474
2669.11518 1.48087
2667.06674 1.48749
2665.01830 1.49383
2662.96987 1.49867
2660.92143 1.50214
2658.87299 1.50500
2656.82455 1.50750
2654.77611 1.50936
2652.72767 1.51075
2650.67924 1.51198
2648.63080 1.51288
2646.58236 1.51376
2644.53392 1.51512
2642.48548 1.51671
2640.43704 1.51853
2638.38860 1.52069
2636.34017 1.52219
2634.29173 1.52261
2632.24329 1.52270
2630.19485 1.52280
2628.14641 1.52258
2626.09797 1.52191
2624.04954 1.52134
2622.00110 1.52098
2619.95266 1.52047
2617.90422 1.51985
2615.85578 1.51901
2613.80734 1.51757
2611.75891 1.51569
2609.71047 1.51402
2607.66203 1.51280
2605.61359 1.51209
2603.56515 1.51182
2601.51671 1.51149
2599.46828 1.51103
2597.41984 1.51091
2595.37140 1.51156
2593.32296 1.51240
2591.27452 1.51271
2589.22608 1.51328
2587.17765 1.51428
2585.12921 1.51513
2583.08077 1.51617
2581.03233 1.51777
2578.98389 1.51980
2576.93545 1.52197
2574.88702 1.52385
2572.83858 1.52591
2570.79014 1.52876
2568.74170 1.53200
2566.69326 1.53504
2564.64482 1.53754
2562.59639 1.53943
2560.54795 1.54137
2558.49951 1.54406
2556.45107 1.54772
2554.40263 1.55247
2552.35419 1.55767
2550.30576 1.56135
2548.25732 1.56151
2546.20888 1.55752
2544.16044 1.55157
2542.11200 1.54774
2540.06356 1.54861
2538.01513 1.55437
2535.96669 1.56378
2533.91825 1.57426
2531.86981 1.58316
2529.82137 1.58923
2527.77293 1.59232
2525.72450 1.59315
2523.67606 1.59201
2521.62762 1.58782
2519.57918 1.58094
2517.53074 1.57329
2515.48230 1.56636
2513.43387 1.56254
2511.38543 1.56365
2509.33699 1.56852
2507.28855 1.57510
2505.24011 1.58202
2503.19167 1.58767
2501.14324 1.59067
2499.09480 1.59081
2497.04636 1.58844
2494.99792 1.58417
2492.94948 1.57870
2490.90104 1.57246
2488.85260 1.56575
2486.80417 1.55886
2484.75573 1.55166
2482.70729 1.54329
2480.65885 1.53330
2478.61041 1.52255
2476.56197 1.51157
2474.51354 1.50120
2472.46510 1.49313
2470.41666 1.48730
2468.36822 1.48180
2466.31978 1.47599
2464.27134 1.47019
2462.22291 1.46396
2460.17447 1.45728
2458.12603 1.45078
2456.07759 1.44492
2454.02915 1.43979
2451.98071 1.43538
2449.93228 1.43173
2447.88384 1.42873
2445.83540 1.42628
2443.78696 1.42400
2441.73852 1.42136
2439.69008 1.41867
2437.64165 1.41667
2435.59321 1.41497
2433.54477 1.41281
2431.49633 1.41067
2429.44789 1.40924
2427.39945 1.40795
2425.35102 1.40603
2423.30258 1.40377
2421.25414 1.40191
2419.20570 1.40060
2417.15726 1.39939
2415.10882 1.39829
2413.06039 1.39798
2411.01195 1.39824
2408.96351 1.39834
2406.91507 1.39856
2404.86663 1.39923
2402.81819 1.39992
2400.76976 1.40059
2398.72132 1.40185
2396.67288 1.40374
2394.62444 1.40556
2392.57600 1.40708
2390.52756 1.40883
2388.47913 1.41126
2386.43069 1.41446
2384.38225 1.41870
2382.33381 1.42405
2380.28537 1.42982
2378.23693 1.43531
2376.18850 1.44117
2374.14006 1.44847
2372.09162 1.45682
2370.04318 1.46432
2367.99474 1.46900
2365.94630 1.47151
2363.89787 1.47391
2361.84943 1.47716
2359.80099 1.48398
2357.75255 1.49268
2355.70411 1.49701
2353.65567 1.49580
2351.60723 1.49080
2349.55880 1.48385
2347.51036 1.47725
2345.46192 1.47291
2343.41348 1.47123
2341.36504 1.46957
2339.31660 1.46798
2337.26817 1.46869
2335.21973 1.46989
2333.17129 1.46890
2331.12285 1.46714
2329.07441 1.46692
2327.02597 1.46607
2324.97754 1.46265
2322.92910 1.45845
2320.88066 1.45289
2318.83222 1.44425
2316.78378 1.43441
2314.73534 1.42600
2312.68691 1.42041
2310.63847 1.41689
2308.59003 1.41327
2306.54159 1.40846
2304.49315 1.40214
2302.44471 1.39414
2300.39628 1.38497
2298.34784 1.37595
2296.29940 1.36803
2294.25096 1.36146
2292.20252 1.35704
2290.15408 1.35503
2288.10565 1.35420
2286.05721 1.35357
2284.00877 1.35303
2281.96033 1.35305
2279.91189 1.35396
2277.86345 1.35565
2275.81502 1.35815
2273.76658 1.36121
2271.71814 1.36431
2269.66970 1.36734
2267.62126 1.37064
2265.57282 1.37441
2263.52439 1.37843
2261.47595 1.38226
2259.42751 1.38569
2257.37907 1.38833
2255.33063 1.38998
2253.28219 1.39103
2251.23376 1.39163
2249.18532 1.39206
2247.13688 1.39245
2245.08844 1.39242
2243.04000 1.39223
2240.99156 1.39221
2238.94313 1.39204
2236.89469 1.39151
2234.84625 1.39117
2232.79781 1.39134
2230.74937 1.39153
2228.70093 1.39178
2226.65250 1.39258
2224.60406 1.39391
2222.55562 1.39565
2220.50718 1.39776
2218.45874 1.39998
2216.41030 1.40239
2214.36186 1.40524
2212.31343 1.40853
2210.26499 1.41244
2208.21655 1.41707
2206.16811 1.42236
2204.11967 1.42787
2202.07123 1.43247
2200.02280 1.43595
2197.97436 1.43904
2195.92592 1.44252
2193.87748 1.44662
2191.82904 1.45076
2189.78060 1.45452
2187.73217 1.45799
2185.68373 1.46190
2183.63529 1.46680
2181.58685 1.47164
2179.53841 1.47504
2177.48997 1.47656
2175.44154 1.47655
2173.39310 1.47636
2171.34466 1.47749
2169.29622 1.48071
2167.24778 1.48526
2165.19934 1.48964
2163.15091 1.49355
2161.10247 1.49745
2159.05403 1.50143
2157.00559 1.50497
2154.95715 1.50758
2152.90871 1.50830
2150.86028 1.50587
2148.81184 1.50071
2146.76340 1.49462
2144.71496 1.48963
2142.66652 1.48718
2140.61808 1.48704
2138.56965 1.48735
2136.52121 1.48662
2134.47277 1.48475
2132.42433 1.48219
2130.37589 1.47991
2128.32745 1.47884
2126.27902 1.47815
2124.23058 1.47690
2122.18214 1.47577
2120.13370 1.47523
2118.08526 1.47446
2116.03682 1.47202
2113.98839 1.46688
2111.93995 1.45970
2109.89151 1.45177
2107.84307 1.44331
2105.79463 1.43392
2103.74619 1.42346
2101.69776 1.41198
2099.64932 1.40070
2097.60088 1.39166
2095.55244 1.38532
2093.50400 1.38055
2091.45556 1.37669
2089.40713 1.37374
2087.35869 1.37160
2085.31025 1.37011
2083.26181 1.36933
2081.21337 1.36942
2079.16493 1.37009
2077.11649 1.37097
2075.06806 1.37196
2073.01962 1.37301
2070.97118 1.37435
2068.92274 1.37603
2066.87430 1.37763
2064.82586 1.37877
2062.77743 1.37956
2060.72899 1.38018
2058.68055 1.38053
2056.63211 1.38092
2054.58367 1.38152
2052.53523 1.38193
2050.48680 1.38208
2048.43836 1.38253
2046.38992 1.38345
2044.34148 1.38460
2042.29304 1.38595
2040.24460 1.38703
2038.19617 1.38748
2036.14773 1.38791
2034.09929 1.38860
2032.05085 1.38935
2030.00241 1.39008
2027.95397 1.39099
2025.90554 1.39268
2023.85710 1.39474
2021.80866 1.39626
2019.76022 1.39805
2017.71178 1.40086
2015.66334 1.40329
2013.61491 1.40481
2011.56647 1.40636
2009.51803 1.40804
2007.46959 1.40983
2005.42115 1.41208
2003.37271 1.41448
2001.32428 1.41665
1999.27584 1.41894
1997.22740 1.42130
1995.17896 1.42382
1993.13052 1.42800
1991.08208 1.43408
1989.03365 1.43994
1986.98521 1.44508
1984.93677 1.45003
1982.88833 1.45454
1980.83989 1.45739
1978.79145 1.45843
1976.74302 1.45906
1974.69458 1.45987
1972.64614 1.46092
1970.59770 1.46240
1968.54926 1.46503
1966.50082 1.46850
1964.45239 1.47081
1962.40395 1.47208
1960.35551 1.47379
1958.30707 1.47627
1956.25863 1.47908
1954.21019 1.48176
1952.16176 1.48434
1950.11332 1.48685
1948.06488 1.48918
1946.01644 1.49183
1943.96800 1.49546
1941.91956 1.50005
1939.87112 1.50371
1937.82269 1.50665
1935.77425 1.50983
1933.72581 1.51252
1931.67737 1.51386
1929.62893 1.51395
1927.58049 1.51449
1925.53206 1.51689
1923.48362 1.52165
1921.43518 1.52622
1919.38674 1.52946
1917.33830 1.53393
1915.28986 1.53781
1913.24143 1.54046
1911.19299 1.54424
1909.14455 1.54878
1907.09611 1.55250
1905.04767 1.55560
1902.99923 1.55918
1900.95080 1.56319
1898.90236 1.56652
1896.85392 1.56967
1894.80548 1.57369
1892.75704 1.57777
1890.70860 1.58293
1888.66017 1.58943
1886.61173 1.59387
1884.56329 1.59752
1882.51485 1.60224
1880.46641 1.60712
1878.41797 1.61198
1876.36954 1.61694
1874.32110 1.62197
1872.27266 1.62733
1870.22422 1.63531
1868.17578 1.64595
1866.12734 1.65304
1864.07891 1.65710
1862.03047 1.66240
1859.98203 1.66946
1857.93359 1.67705
1855.88515 1.68484
1853.83671 1.69254
1851.78828 1.69951
1849.73984 1.70614
1847.69140 1.71351
1845.64296 1.72226
1843.59452 1.73294
1841.54608 1.74168
1839.49765 1.74846
1837.44921 1.75635
1835.40077 1.76545
1833.35233 1.77426
1831.30389 1.78434
1829.25545 1.79701
1827.20702 1.80747
1825.15858 1.81796
1823.11014 1.82871
1821.06170 1.83685
1819.01326 1.84624
1816.96482 1.85832
1814.91639 1.86974
1812.86795 1.87965
1810.81951 1.88954
1808.77107 1.89837
1806.72263 1.90533
1804.67419 1.91223
1802.62575 1.92092
1800.57732 1.92831
1798.52888 1.93093
1796.48044 1.93206
1794.43200 1.93484
1792.38356 1.93656
1790.33512 1.92783
1788.28669 1.91429
1786.23825 1.90580
1784.18981 1.90380
1782.14137 1.90292
1780.09293 1.89995
1778.04449 1.89754
1775.99606 1.89892
1773.94762 1.90514
1771.89918 1.91466
1769.85074 1.92028
1767.80230 1.92184
1765.75386 1.92303
1763.70543 1.92668
1761.65699 1.93306
1759.60855 1.93772
1757.56011 1.94214
1755.51167 1.94819
1753.46323 1.95580
1751.41480 1.96613
1749.36636 1.97382
1747.31792 1.97490
1745.26948 1.97567
1743.22104 1.97868
1741.17260 1.98331
1739.12417 1.98732
1737.07573 1.99009
1735.02729 1.99816
1732.97885 2.00538
1730.93041 2.00194
1728.88197 1.99829
1726.83354 1.99610
1724.78510 1.99719
1722.73666 2.00243
1720.68822 2.01135
1718.63978 2.02709
1716.59134 2.04091
1714.54291 2.03389
1712.49447 2.02607
1710.44603 2.02446
1708.39759 2.02868
1706.34915 2.03677
1704.30071 2.04191
1702.25228 2.04315
1700.20384 2.04410
1698.15540 2.04627
1696.10696 2.04666
1694.05852 2.04386
1692.01008 2.04131
1689.96165 2.04210
1687.91321 2.04482
1685.86477 2.05253
1683.81633 2.06367
1681.76789 2.06031
1679.71945 2.05440
1677.67102 2.05253
1675.62258 2.05622
1673.57414 2.05989
1671.52570 2.06177
1669.47726 2.06324
1667.42882 2.06310
1665.38038 2.06195
1663.33195 2.06240
1661.28351 2.06153
1659.23507 2.05858
1657.18663 2.05727
1655.13819 2.05954
1653.08975 2.06728
1651.04132 2.06680
1648.99288 2.06770
1646.94444 2.06642
1644.89600 2.05573
1642.84756 2.04509
1640.79912 2.03905
1638.75069 2.03605
1636.70225 2.03507
1634.65381 2.02810
1632.60537 2.01677
1630.55693 2.00746
1628.50849 1.99636
1626.46006 1.98647
1624.41162 1.97500
1622.36318 1.95718
1620.31474 1.93918
1618.26630 1.92403
1616.21786 1.89805
1614.16943 1.86997
1612.12099 1.84687
1610.07255 1.82040
1608.02411 1.78784
1605.97567 1.75091
1603.92723 1.71008
1601.87880 1.66267
1599.83036 1.61306
1597.78192 1.56047
1595.73348 1.49948
1593.68504 1.42853
1591.63660 1.35291
1589.58817 1.27462
1587.53973 1.19967
1585.49129 1.13637
1583.44285 1.09082
1581.39441 1.06718
1579.34597 1.06338
1577.29754 1.08112
1575.24910 1.12216
1573.20066 1.15448
1571.15222 1.18135
1569.10378 1.21065
1567.05534 1.21069
1565.00691 1.17487
1562.95847 1.12820
1560.91003 1.08069
1558.86159 0.97263
1556.81315 0.88045
1554.76471 0.84291
1552.71628 0.81057
1550.66784 0.78300
1548.61940 0.76023
1546.57096 0.74588
1544.52252 0.73742
1542.47408 0.73039
1540.42565 0.71958
1538.37721 0.70776
1536.32877 0.70242
1534.28033 0.70001
1532.23189 0.69692
1530.18345 0.69403
1528.13501 0.69387
1526.08658 0.69569
1524.03814 0.69714
1521.98970 0.69860
1519.94126 0.69868
1517.89282 0.69755
1515.84438 0.69578
1513.79595 0.69321
1511.74751 0.69263
1509.69907 0.69476
1507.65063 0.69823
1505.60219 0.69532
1503.55375 0.69094
1501.50532 0.68910
1499.45688 0.68923
1497.40844 0.68983
1495.36000 0.68788
1493.31156 0.68575
1491.26312 0.68661
1489.21469 0.68894
1487.16625 0.68627
1485.11781 0.68189
1483.06937 0.67934
1481.02093 0.67817
1478.97249 0.67748
1476.92406 0.67815
1474.87562 0.68069
1472.82718 0.68231
1470.77874 0.67957
1468.73030 0.67715
1466.68186 0.67900
1464.63343 0.68665
1462.58499 0.69713
1460.53655 0.71082
1458.48811 0.74477
1456.43967 0.81722
1454.39123 0.86291
1452.34280 0.88782
1450.29436 0.91394
1448.24592 0.94330
1446.19748 0.97099
1444.14904 0.99239
1442.10060 1.01139
1440.05217 1.02934
1438.00373 1.04882
1435.95529 1.07352
1433.90685 1.09008
1431.85841 1.10156
1429.80997 1.11550
1427.76154 1.12810
1425.71310 1.13830
1423.66466 1.14897
1421.61622 1.15909
1419.56778 1.17157
1417.51934 1.18547
1415.47091 1.19259
1413.42247 1.19906
1411.37403 1.20729
1409.32559 1.21564
1407.27715 1.22335
1405.22871 1.23191
1403.18028 1.23974
1401.13184 1.24693
1399.08340 1.25619
1397.03496 1.26560
1394.98652 1.27328
1392.93808 1.27794
1390.88965 1.28124
1388.84121 1.28672
1386.79277 1.29444
1384.74433 1.29970
1382.69589 1.30404
1380.64745 1.30961
1378.59901 1.31560
1376.55058 1.32170
1374.50214 1.32855
1372.45370 1.33379
1370.40526 1.33691
1368.35682 1.34065
1366.30838 1.34472
1364.25995 1.35025
1362.21151 1.35636
1360.16307 1.35976
1358.11463 1.36215
1356.06619 1.36591
1354.01775 1.37023
1351.96932 1.37432
1349.92088 1.37847
1347.87244 1.38249
1345.82400 1.38655
1343.77556 1.39066
1341.72712 1.39589
1339.67869 1.40198
1337.63025 1.40577
1335.58181 1.40674
1333.53337 1.40761
1331.48493 1.40911
1329.43649 1.41144
1327.38806 1.41404
1325.33962 1.41613
1323.29118 1.41829
1321.24274 1.42118
1319.19430 1.42486
1317.14586 1.42792
1315.09743 1.43034
1313.04899 1.43251
1311.00055 1.43429
1308.95211 1.43608
1306.90367 1.43827
1304.85523 1.44004
1302.80680 1.44121
1300.75836 1.44270
1298.70992 1.44516
1296.66148 1.44803
1294.61304 1.45004
1292.56460 1.45196
1290.51617 1.45467
1288.46773 1.45758
1286.41929 1.45982
1284.37085 1.46167
1282.32241 1.46335
1280.27397 1.46494
1278.22554 1.46668
1276.17710 1.46861
1274.12866 1.47090
1272.08022 1.47336
1270.03178 1.47558
1267.98334 1.47725
1265.93491 1.47873
1263.88647 1.48037
1261.83803 1.48228
1259.78959 1.48361
1257.74115 1.48443
1255.69271 1.48599
1253.64428 1.48772
1251.59584 1.48865
1249.54740 1.48929
1247.49896 1.49028
1245.45052 1.49133
1243.40208 1.49229
1241.35364 1.49342
1239.30521 1.49486
1237.25677 1.49642
1235.20833 1.49808
1233.15989 1.49990
1231.11145 1.50160
1229.06301 1.50290
1227.01458 1.50437
1224.96614 1.50620
1222.91770 1.50761
1220.86926 1.50894
1218.82082 1.51055
1216.77238 1.51217
1214.72395 1.51394
1212.67551 1.51584
1210.62707 1.51761
1208.57863 1.51926
1206.53019 1.52052
1204.48175 1.52167
1202.43332 1.52341
1200.38488 1.52511
1198.33644 1.52649
1196.28800 1.52784
1194.23956 1.52881
1192.19112 1.52984
1190.14269 1.53141
1188.09425 1.53299
1186.04581 1.53418
1183.99737 1.53504
1181.94893 1.53596
1179.90049 1.53717
1177.85206 1.53846
1175.80362 1.53969
1173.75518 1.54077
1171.70674 1.54154
1169.65830 1.54187
1167.60986 1.54216
1165.56143 1.54289
1163.51299 1.54411
1161.46455 1.54558
1159.41611 1.54676
1157.36767 1.54758
1155.31923 1.54878
1153.27080 1.55016
1151.22236 1.55095
1149.17392 1.55173
1147.12548 1.55287
1145.07704 1.55388
1143.02860 1.55459
1140.98017 1.55541
1138.93173 1.55618
1136.88329 1.55613
1134.83485 1.55558
1132.78641 1.55570
1130.73797 1.55643
1128.68954 1.55676
1126.64110 1.55634
1124.59266 1.55516
1122.54422 1.55358
1120.49578 1.55255
1118.44734 1.55234
1116.39891 1.55261
1114.35047 1.55350
1112.30203 1.55482
1110.25359 1.55647
1108.20515 1.55875
1106.15671 1.56125
1104.10827 1.56388
1102.05984 1.56715
1100.01140 1.57140
1097.96296 1.57661
1095.91452 1.58347
1093.86608 1.59181
1091.81764 1.60214
1089.76921 1.61818
1087.72077 1.63494
1085.67233 1.60390
1083.62389 1.52249
1081.57545 1.48312
1079.52701 1.50820
1077.47858 1.54191
1075.43014 1.55594
1073.38170 1.55923
1071.33326 1.55840
1069.28482 1.55561
1067.23638 1.55008
1065.18795 1.54518
1063.13951 1.54792
1061.09107 1.55889
1059.04263 1.56352
1056.99419 1.55342
1054.94575 1.54130
1052.89732 1.53641
1050.84888 1.53554
1048.80044 1.53571
1046.75200 1.53639
1044.70356 1.53777
1042.65512 1.53926
1040.60669 1.54011
1038.55825 1.54113
1036.50981 1.54295
1034.46137 1.54492
1032.41293 1.54672
1030.36449 1.54858
1028.31606 1.54987
1026.26762 1.55061
1024.21918 1.55121
1022.17074 1.55223
1020.12230 1.55389
1018.07386 1.55643
1016.02543 1.55935
1013.97699 1.56142
1011.92855 1.56255
1009.88011 1.56401
1007.83167 1.56648
1005.78323 1.56957
1003.73480 1.57379
1001.68636 1.57810
999.63792 1.58085
997.58948 1.58259
995.54104 1.58521
993.49260 1.58955
991.44417 1.59479
989.39573 1.59937
987.34729 1.60291
985.29885 1.60562
983.25041 1.60633
981.20197 1.60492
979.15354 1.60305
977.10510 1.60227
975.05666 1.60169
973.00822 1.59973
970.95978 1.59725
968.91134 1.59607
966.86290 1.59595
964.81447 1.59678
962.76603 1.59946
960.71759 1.60329
958.66915 1.60743
956.62071 1.61179
954.57227 1.61700
952.52384 1.62362
950.47540 1.63074
948.42696 1.63702
946.37852 1.64125
944.33008 1.64355
942.28164 1.64609
940.23321 1.64911
938.18477 1.65194
936.13633 1.65521
934.08789 1.65975
932.03945 1.66574
929.99101 1.67199
927.94258 1.67779
925.89414 1.68264
923.84570 1.68714
921.79726 1.69330
919.74882 1.70120
917.70038 1.71044
915.65195 1.72283
913.60351 1.73866
911.55507 1.75411
909.50663 1.76238
907.45819 1.76197
905.40975 1.75949
903.36132 1.75835
901.31288 1.75655
899.26444 1.75341
897.21600 1.75002
895.16756 1.74524
893.11912 1.73824
891.07069 1.72766
889.02225 1.70796
886.97381 1.67023
884.92537 1.60221
882.87693 1.48836
880.82849 1.31714
878.78006 1.11343
876.73162 0.93800
874.68318 0.82651
872.63474 0.77070
870.58630 0.74469
868.53786 0.73097
866.48943 0.72334
864.44099 0.71947
862.39255 0.71841
860.34411 0.72045
858.29567 0.72696
856.24723 0.74377
854.19880 0.78728
852.15036 0.87356
850.10192 0.99083
848.05348 1.10065
846.00504 1.17092
843.95660 1.19661
841.90817 1.21380
839.85973 1.24927
837.81129 1.28835
835.76285 1.31760
833.71441 1.33953
831.66597 1.35807
829.61753 1.37467
827.56910 1.39033
825.52066 1.40624
823.47222 1.42124
821.42378 1.43388
819.37534 1.44489
817.32690 1.45465
815.27847 1.46264
813.23003 1.46893
811.18159 1.47431
809.13315 1.47976
807.08471 1.48387
805.03627 1.48616
802.98784 1.48889
800.93940 1.49277
798.89096 1.49690
796.84252 1.50028
794.79408 1.50288
792.74564 1.50614
790.69721 1.50993
788.64877 1.51245
786.60033 1.51343
784.55189 1.51500
782.50345 1.51876
780.45501 1.52280
778.40658 1.52540
776.35814 1.52830
774.30970 1.53251
772.26126 1.53656
770.21282 1.53996
768.16438 1.54314
766.11595 1.54623
764.06751 1.55005
762.01907 1.55560
759.97063 1.56195
757.92219 1.56752
755.87375 1.57161
753.82532 1.57535
751.77688 1.57979
749.72844 1.58436
747.68000 1.58816
745.63156 1.59063
743.58312 1.59447
741.53469 1.60084
739.48625 1.60776
737.43781 1.61431
735.38937 1.62144
733.34093 1.62927
731.29249 1.63808
729.24406 1.64942
727.19562 1.66334
725.14718 1.67841
723.09874 1.69781
721.05030 1.72779
719.00186 1.75946
716.95343 1.68794
714.90499 1.48887
712.85655 1.36340
710.80811 1.38329
708.75967 1.47314
706.71123 1.53978
704.66280 1.57786
702.61436 1.59179
700.56592 1.57608
698.51748 1.56035
696.46904 1.56903
694.42060 1.58746
692.37216 1.60087
690.32373 1.60927
688.27529 1.61412
686.22685 1.61681
684.17841 1.61835
682.12997 1.61819
680.08153 1.61730
678.03310 1.61718
675.98466 1.61591
673.93622 1.61382
671.88778 1.61500
669.83934 1.61931
667.79090 1.61954
665.74247 1.62003
663.69403 1.62327
661.64559 1.62865
659.59715 1.63564
657.54871 1.64105
655.50027 1.64519
653.45184 1.65013
651.40340 1.65508
649.35496 1.65938
647.30652 1.65826
645.25808 1.65205
643.20964 1.65862
641.16121 1.67620
639.11277 1.68661
637.06433 1.68727
635.01589 1.68104
632.96745 1.66972
630.91901 1.66610
628.87058 1.67236
626.82214 1.67300
624.77370 1.66766
622.72526 1.67100
620.67682 1.67848
618.62838 1.67350
616.57995 1.66406
614.53151 1.66743
612.48307 1.69118
610.43463 1.71570
608.38619 1.72195
606.33775 1.72434
604.28932 1.72772
602.24088 1.72733
600.19244 1.71978
598.14400 1.71191
