3996.50324 1.53487
3994.45480 1.53753
3992.40636 1.53977
3990.35792 1.54218
3988.30948 1.54349
3986.26104 1.54283
3984.21261 1.54248
3982.16417 1.54318
3980.11573 1.54400
3978.06729 1.54448
3976.01885 1.54535
3973.97041 1.54773
3971.92198 1.54962
3969.87354 1.54981
3967.82510 1.54917
3965.77666 1.54768
3963.72822 1.54634
3961.67978 1.54665
3959.63135 1.54541
3957.58291 1.54081
3955.53447 1.53651
3953.48603 1.53367
3951.43759 1.53144
3949.38915 1.53134
3947.34072 1.53211
3945.29228 1.52895
3943.24384 1.52699
3941.19540 1.52860
3939.14696 1.52653
3937.09852 1.52215
3935.05009 1.51774
3933.00165 1.51663
3930.95321 1.52171
3928.90477 1.52291
3926.85633 1.51801
3924.80789 1.51718
3922.75946 1.51783
3920.71102 1.51132
3918.66258 1.50688
3916.61414 1.51097
3914.56570 1.51223
3912.51726 1.50695
3910.46883 1.50132
3908.42039 1.49462
3906.37195 1.48762
3904.32351 1.49161
3902.27507 1.50471
3900.22663 1.51194
3898.17820 1.51240
3896.12976 1.50292
3894.08132 1.48896
3892.03288 1.48778
3889.98444 1.49408
3887.93600 1.48487
3885.88756 1.47849
3883.83913 1.48382
3881.79069 1.48146
3879.74225 1.48250
3877.69381 1.47818
3875.64537 1.46341
3873.59693 1.45672
3871.54850 1.45860
3869.50006 1.46817
3867.45162 1.47097
3865.40318 1.46298
3863.35474 1.46797
3861.30630 1.47301
3859.25787 1.46182
3857.20943 1.44269
3855.16099 1.42789
3853.11255 1.45723
3851.06411 1.49055
3849.01567 1.47997
3846.96724 1.46099
3844.91880 1.44826
3842.87036 1.44494
3840.82192 1.44566
3838.77348 1.45426
3836.72504 1.47018
3834.67661 1.47141
3832.62817 1.46651
3830.57973 1.46387
3828.53129 1.45773
3826.48285 1.45300
3824.43441 1.44754
3822.38598 1.44190
3820.33754 1.45912
3818.28910 1.46832
3816.24066 1.46778
3814.19222 1.47440
3812.14378 1.46669
3810.09535 1.45069
3808.04691 1.44444
3805.99847 1.45415
3803.95003 1.45242
3801.90159 1.45192
3799.85315 1.46986
3797.80472 1.47204
3795.75628 1.47027
3793.70784 1.46828
3791.65940 1.46104
3789.61096 1.45560
3787.56252 1.45278
3785.51409 1.45501
3783.46565 1.45957
3781.41721 1.45767
3779.36877 1.46099
3777.32033 1.46904
3775.27189 1.46564
3773.22346 1.45658
3771.17502 1.45388
3769.12658 1.46297
3767.07814 1.46981
3765.02970 1.47140
3762.98126 1.46789
3760.93283 1.45957
3758.88439 1.46304
3756.83595 1.47071
3754.78751 1.46274
3752.73907 1.45213
3750.69063 1.47174
3748.64219 1.49587
3746.59376 1.48790
3744.54532 1.49057
3742.49688 1.50570
3740.44844 1.49836
3738.40000 1.48225
3736.35156 1.48160
3734.30313 1.50632
3732.25469 1.52158
3730.20625 1.51550
3728.15781 1.50373
3726.10937 1.50039
3724.06093 1.50677
3722.01250 1.51150
3719.96406 1.51331
3717.91562 1.51147
3715.86718 1.50344
3713.81874 1.49321
3711.77030 1.50183
3709.72187 1.53120
3707.67343 1.53921
3705.62499 1.53250
3703.57655 1.52759
3701.52811 1.53483
3699.47967 1.54454
3697.43124 1.54701
3695.38280 1.54825
3693.33436 1.54769
3691.28592 1.54863
3689.23748 1.56754
3687.18904 1.58623
3685.14061 1.58527
3683.09217 1.57903
3681.04373 1.57511
3678.99529 1.57188
3676.94685 1.57180
3674.89841 1.58849
3672.84998 1.59288
3670.80154 1.58856
3668.75310 1.60160
3666.70466 1.60592
3664.65622 1.60037
3662.60778 1.59890
3660.55935 1.60067
3658.51091 1.60346
3656.46247 1.61287
3654.41403 1.62053
3652.36559 1.61579
3650.31715 1.61895
3648.26872 1.65194
3646.22028 1.66620
3644.17184 1.66266
3642.12340 1.66120
3640.07496 1.66414
3638.02652 1.66820
3635.97809 1.67271
3633.92965 1.67771
3631.88121 1.68115
3629.83277 1.68882
3627.78433 1.70883
3625.73589 1.71649
3623.68746 1.71353
3621.63902 1.71103
3619.59058 1.71595
3617.54214 1.72675
3615.49370 1.73210
3613.44526 1.73521
3611.39682 1.73966
3609.34839 1.74495
3607.29995 1.75168
3605.25151 1.75718
3603.20307 1.76142
3601.15463 1.76627
3599.10619 1.76981
3597.05776 1.77112
3595.00932 1.77280
3592.96088 1.77446
3590.91244 1.77497
3588.86400 1.77749
3586.81556 1.78120
3584.76713 1.77955
3582.71869 1.77761
3580.67025 1.77870
3578.62181 1.77996
3576.57337 1.78043
3574.52493 1.78198
3572.47650 1.78394
3570.42806 1.78503
3568.37962 1.78752
3566.33118 1.79386
3564.28274 1.79712
3562.23430 1.79648
3560.18587 1.79495
3558.13743 1.79238
3556.08899 1.79110
3554.04055 1.79349
3551.99211 1.79701
3549.94367 1.79839
3547.89524 1.79884
3545.84680 1.79875
3543.79836 1.79779
3541.74992 1.79662
3539.70148 1.79628
3537.65304 1.79781
3535.60461 1.79952
3533.55617 1.80007
3531.50773 1.80124
3529.45929 1.80361
3527.41085 1.80588
3525.36241 1.80753
3523.31398 1.80817
3521.26554 1.80774
3519.21710 1.80732
3517.16866 1.80757
3515.12022 1.80896
3513.07178 1.81112
3511.02335 1.81307
3508.97491 1.81356
3506.92647 1.81205
3504.87803 1.81099
3502.82959 1.81251
3500.78115 1.81359
3498.73272 1.81226
3496.68428 1.81123
3494.63584 1.81214
3492.58740 1.81380
3490.53896 1.81514
3488.49052 1.81603
3486.44209 1.81596
3484.39365 1.81526
3482.34521 1.81600
3480.29677 1.81842
3478.24833 1.81956
3476.19989 1.81974
3474.15146 1.82019
3472.10302 1.81910
3470.05458 1.81757
3468.00614 1.81752
3465.95770 1.81760
3463.90926 1.81658
3461.86082 1.81474
3459.81239 1.81286
3457.76395 1.81267
3455.71551 1.81482
3453.66707 1.81740
3451.61863 1.81834
3449.57019 1.81744
3447.52176 1.81708
3445.47332 1.81808
3443.42488 1.81815
3441.37644 1.81726
3439.32800 1.81689
3437.27956 1.81732
3435.23113 1.81821
3433.18269 1.81986
3431.13425 1.82163
3429.08581 1.82223
3427.03737 1.82236
3424.98893 1.82315
3422.94050 1.82341
3420.89206 1.82209
3418.84362 1.82080
3416.79518 1.82042
3414.74674 1.81967
3412.69830 1.81818
3410.64987 1.81757
3408.60143 1.81871
3406.55299 1.82000
3404.50455 1.82026
3402.45611 1.82075
3400.40767 1.82158
3398.35924 1.82100
3396.31080 1.81963
3394.26236 1.81940
3392.21392 1.82027
3390.16548 1.82090
3388.11704 1.81984
3386.06861 1.81774
3384.02017 1.81839
3381.97173 1.82226
3379.92329 1.82382
3377.87485 1.82122
3375.82641 1.81967
3373.77798 1.82135
3371.72954 1.82392
3369.68110 1.82600
3367.63266 1.82628
3365.58422 1.82516
3363.53578 1.82412
3361.48735 1.82237
3359.43891 1.82026
3357.39047 1.82020
3355.34203 1.82145
3353.29359 1.82213
3351.24515 1.82268
3349.19672 1.82235
3347.14828 1.82092
3345.09984 1.82077
3343.05140 1.82185
3341.00296 1.82271
3338.95452 1.82427
3336.90609 1.82580
3334.85765 1.82486
3332.80921 1.82255
3330.76077 1.82072
3328.71233 1.81967
3326.66389 1.82010
3324.61545 1.82144
3322.56702 1.82235
3320.51858 1.82263
3318.47014 1.82227
3316.42170 1.82115
3314.37326 1.81963
3312.32482 1.81855
3310.27639 1.81912
3308.22795 1.82155
3306.17951 1.82279
3304.13107 1.82137
3302.08263 1.82092
3300.03419 1.82356
3297.98576 1.82589
3295.93732 1.82511
3293.88888 1.82381
3291.84044 1.82392
3289.79200 1.82383
3287.74356 1.82321
3285.69513 1.82369
3283.64669 1.82483
3281.59825 1.82524
3279.54981 1.82542
3277.50137 1.82602
3275.45293 1.82685
3273.40450 1.82693
3271.35606 1.82610
3269.30762 1.82462
3267.25918 1.82304
3265.21074 1.82346
3263.16230 1.82522
3261.11387 1.82478
3259.06543 1.82285
3257.01699 1.82240
3254.96855 1.82258
3252.92011 1.82307
3250.87167 1.82557
3248.82324 1.82820
3246.77480 1.82810
3244.72636 1.82653
3242.67792 1.82585
3240.62948 1.82568
3238.58104 1.82508
3236.53261 1.82412
3234.48417 1.82389
3232.43573 1.82527
3230.38729 1.82610
3228.33885 1.82430
3226.29041 1.82259
3224.24198 1.82429
3222.19354 1.82778
3220.14510 1.82903
3218.09666 1.82701
3216.04822 1.82384
3213.99978 1.82257
3211.95135 1.82432
3209.90291 1.82646
3207.85447 1.82686
3205.80603 1.82637
3203.75759 1.82615
3201.70915 1.82618
3199.66072 1.82561
3197.61228 1.82447
3195.56384 1.82342
3193.51540 1.82308
3191.46696 1.82395
3189.41852 1.82544
3187.37008 1.82606
3185.32165 1.82509
3183.27321 1.82414
3181.22477 1.82412
3179.17633 1.82361
3177.12789 1.82269
3175.07945 1.82227
3173.03102 1.82232
3170.98258 1.82231
3168.93414 1.82169
3166.88570 1.82122
3164.83726 1.82180
3162.78882 1.82394
3160.74039 1.82598
3158.69195 1.82485
3156.64351 1.82162
3154.59507 1.81995
3152.54663 1.82112
3150.49819 1.82330
3148.44976 1.82449
3146.40132 1.82422
3144.35288 1.82261
3142.30444 1.82057
3140.25600 1.81962
3138.20756 1.82056
3136.15913 1.82242
3134.11069 1.82387
3132.06225 1.82387
3130.01381 1.82202
3127.96537 1.82069
3125.91693 1.82164
3123.86850 1.82295
3121.82006 1.82224
3119.77162 1.82014
3117.72318 1.81946
3115.67474 1.82042
3113.62630 1.82062
3111.57787 1.81966
3109.52943 1.81912
3107.48099 1.81932
3105.43255 1.82021
3103.38411 1.82131
3101.33567 1.82061
3099.28724 1.81860
3097.23880 1.81753
3095.19036 1.81736
3093.14192 1.81677
3091.09348 1.81482
3089.04504 1.81327
3086.99661 1.81381
3084.94817 1.81397
3082.89973 1.81247
3080.85129 1.81173
3078.80285 1.81294
3076.75441 1.81552
3074.70598 1.81785
3072.65754 1.81759
3070.60910 1.81457
3068.56066 1.81192
3066.51222 1.81245
3064.46378 1.81443
3062.41535 1.81565
3060.36691 1.81564
3058.31847 1.81404
3056.27003 1.81237
3054.22159 1.81174
3052.17315 1.81151
3050.12471 1.81134
3048.07628 1.81117
3046.02784 1.81133
3043.97940 1.81189
3041.93096 1.81264
3039.88252 1.81303
3037.83408 1.81286
3035.78565 1.81253
3033.73721 1.81226
3031.68877 1.81241
3029.64033 1.81236
3027.59189 1.81074
3025.54345 1.80869
3023.49502 1.80870
3021.44658 1.80958
3019.39814 1.80998
3017.34970 1.81085
3015.30126 1.81117
3013.25282 1.81014
3011.20439 1.80996
3009.15595 1.81158
3007.10751 1.81255
3005.05907 1.81119
3003.01063 1.80904
3000.96219 1.80848
2998.91376 1.80888
2996.86532 1.80882
2994.81688 1.80881
2992.76844 1.80875
2990.72000 1.80879
2988.67156 1.80958
2986.62313 1.81056
2984.57469 1.80981
2982.52625 1.80638
2980.47781 1.80304
2978.42937 1.80222
2976.38093 1.80238
2974.33250 1.80249
2972.28406 1.80365
2970.23562 1.80566
2968.18718 1.80684
2966.13874 1.80647
2964.09030 1.80523
2962.04187 1.80427
2959.99343 1.80398
2957.94499 1.80281
2955.89655 1.80159
2953.84811 1.80235
2951.79967 1.80331
2949.75124 1.80299
2947.70280 1.80227
2945.65436 1.80134
2943.60592 1.80075
2941.55748 1.80135
2939.50904 1.80136
2937.46061 1.80031
2935.41217 1.80052
2933.36373 1.80157
2931.31529 1.80101
2929.26685 1.79972
2927.21841 1.80043
2925.16998 1.80254
2923.12154 1.80413
2921.07310 1.80423
2919.02466 1.80184
2916.97622 1.79875
2914.92778 1.79701
2912.87934 1.79507
2910.83091 1.79240
2908.78247 1.79028
2906.73403 1.78820
2904.68559 1.78538
2902.63715 1.78344
2900.58871 1.78294
2898.54028 1.78167
2896.49184 1.77889
2894.44340 1.77617
2892.39496 1.77396
2890.34652 1.77155
2888.29808 1.76934
2886.24965 1.76780
2884.20121 1.76605
2882.15277 1.76340
2880.10433 1.76123
2878.05589 1.76074
2876.00745 1.76055
2873.95902 1.75946
2871.91058 1.75808
2869.86214 1.75716
2867.81370 1.75681
2865.76526 1.75677
2863.71682 1.75691
2861.66839 1.75766
2859.61995 1.75934
2857.57151 1.76162
2855.52307 1.76293
2853.47463 1.76194
2851.42619 1.75983
2849.37776 1.75792
2847.32932 1.75525
2845.28088 1.75118
2843.23244 1.74670
2841.18400 1.74270
2839.13556 1.73962
2837.08713 1.73742
2835.03869 1.73535
2832.99025 1.73275
2830.94181 1.73026
2828.89337 1.72774
2826.84493 1.72451
2824.79650 1.72158
2822.74806 1.71982
2820.69962 1.71898
2818.65118 1.71800
2816.60274 1.71657
2814.55430 1.71547
2812.50587 1.71402
2810.45743 1.71152
2808.40899 1.70916
2806.36055 1.70736
2804.31211 1.70565
2802.26367 1.70398
2800.21524 1.70208
2798.16680 1.70021
2796.11836 1.69856
2794.06992 1.69653
2792.02148 1.69428
2789.97304 1.69285
2787.92461 1.69250
2785.87617 1.69282
2783.82773 1.69330
2781.77929 1.69334
2779.73085 1.69286
2777.68241 1.69192
2775.63397 1.68982
2773.58554 1.68692
2771.53710 1.68518
2769.48866 1.68463
2767.44022 1.68375
2765.39178 1.68207
2763.34334 1.67950
2761.29491 1.67672
2759.24647 1.67509
2757.19803 1.67466
2755.14959 1.67459
2753.10115 1.67453
2751.05271 1.67406
2749.00428 1.67316
2746.95584 1.67222
2744.90740 1.67128
2742.85896 1.67037
2740.81052 1.67026
2738.76208 1.67059
2736.71365 1.67001
2734.66521 1.66933
2732.61677 1.66918
2730.56833 1.66873
2728.51989 1.66763
2726.47145 1.66695
2724.42302 1.66764
2722.37458 1.66845
2720.32614 1.66851
2718.27770 1.66763
2716.22926 1.66605
2714.18082 1.66529
2712.13239 1.66518
2710.08395 1.66456
2708.03551 1.66381
2705.98707 1.66342
2703.93863 1.66325
2701.89019 1.66322
2699.84176 1.66335
2697.79332 1.66370
2695.74488 1.66423
2693.69644 1.66454
2691.64800 1.66477
2689.59956 1.66543
2687.55113 1.66612
2685.50269 1.66650
2683.45425 1.66724
2681.40581 1.66901
2679.35737 1.67166
2677.30893 1.67490
2675.26050 1.67789
2673.21206 1.68032
2671.16362 1.68375
2669.11518 1.68823
2667.06674 1.69214
2665.01830 1.69537
2662.96987 1.69886
2660.92143 1.70259
2658.87299 1.70563
2656.82455 1.70776
2654.77611 1.70986
2652.72767 1.71204
2650.67924 1.71411
2648.63080 1.71579
2646.58236 1.71667
2644.53392 1.71776
2642.48548 1.71980
2640.43704 1.72227
2638.38860 1.72421
2636.34017 1.72509
2634.29173 1.72528
2632.24329 1.72534
2630.19485 1.72553
2628.14641 1.72563
2626.09797 1.72509
2624.04954 1.72432
2622.00110 1.72428
2619.95266 1.72442
2617.90422 1.72362
2615.85578 1.72189
2613.80734 1.72035
2611.75891 1.72011
2609.71047 1.72021
2607.66203 1.71949
2605.61359 1.71781
2603.56515 1.71553
2601.51671 1.71414
2599.46828 1.71434
2597.41984 1.71525
2595.37140 1.71611
2593.32296 1.71639
2591.27452 1.71644
2589.22608 1.71712
2587.17765 1.71847
2585.12921 1.72019
2583.08077 1.72188
2581.03233 1.72277
2578.98389 1.72332
2576.93545 1.72460
2574.88702 1.72677
2572.83858 1.73001
2570.79014 1.73396
2568.74170 1.73735
2566.69326 1.74017
2564.64482 1.74293
2562.59639 1.74458
2560.54795 1.74554
2558.49951 1.74774
2556.45107 1.75137
2554.40263 1.75583
2552.35419 1.76061
2550.30576 1.76464
2548.25732 1.76613
2546.20888 1.76437
2544.16044 1.76017
2542.11200 1.75554
2540.06356 1.75413
2538.01513 1.75795
2535.96669 1.76501
2533.91825 1.77205
2531.86981 1.77795
2529.82137 1.78256
2527.77293 1.78527
2525.72450 1.78632
2523.67606 1.78606
2521.62762 1.78379
2519.57918 1.77956
2517.53074 1.77417
2515.48230 1.76834
2513.43387 1.76439
2511.38543 1.76419
2509.33699 1.76700
2507.28855 1.77175
2505.24011 1.77738
2503.19167 1.78222
2501.14324 1.78514
2499.09480 1.78539
2497.04636 1.78289
2494.99792 1.77903
2492.94948 1.77495
2490.90104 1.77081
2488.85260 1.76585
2486.80417 1.75932
2484.75573 1.75257
2482.70729 1.74616
2480.65885 1.73844
2478.61041 1.72877
2476.56197 1.71794
2474.51354 1.70739
2472.46510 1.69880
2470.41666 1.69224
2468.36822 1.68675
2466.31978 1.68182
2464.27134 1.67722
2462.22291 1.67296
2460.17447 1.66861
2458.12603 1.66410
2456.07759 1.66008
2454.02915 1.65678
2451.98071 1.65414
2449.93228 1.65178
2447.88384 1.64965
2445.83540 1.64843
2443.78696 1.64820
2441.73852 1.64798
2439.69008 1.64666
2437.64165 1.64471
2435.59321 1.64369
2433.54477 1.64361
2431.49633 1.64312
2429.44789 1.64143
2427.39945 1.63908
2425.35102 1.63737
2423.30258 1.63682
2421.25414 1.63662
2419.20570 1.63622
2417.15726 1.63568
2415.10882 1.63455
2413.06039 1.63298
2411.01195 1.63229
2408.96351 1.63288
2406.91507 1.63361
2404.86663 1.63384
2402.81819 1.63394
2400.76976 1.63440
2398.72132 1.63546
2396.67288 1.63673
2394.62444 1.63826
2392.57600 1.64020
2390.52756 1.64201
2388.47913 1.64327
2386.43069 1.64459
2384.38225 1.64678
2382.33381 1.64992
2380.28537 1.65380
2378.23693 1.65798
2376.18850 1.66250
2374.14006 1.66904
2372.09162 1.67789
2370.04318 1.68304
2367.99474 1.68174
2365.94630 1.68159
2363.89787 1.68518
2361.84943 1.69172
2359.80099 1.70280
2357.75255 1.71454
2355.70411 1.72020
2353.65567 1.71876
2351.60723 1.71287
2349.55880 1.70236
2347.51036 1.69033
2345.46192 1.68376
2343.41348 1.68561
2341.36504 1.68844
2339.31660 1.68881
2337.26817 1.68849
2335.21973 1.68991
2333.17129 1.69037
2331.12285 1.68929
2329.07441 1.69036
2327.02597 1.68968
2324.97754 1.68540
2322.92910 1.68190
2320.88066 1.67861
2318.83222 1.67330
2316.78378 1.66765
2314.73534 1.66234
2312.68691 1.65812
2310.63847 1.65584
2308.59003 1.65297
2306.54159 1.64831
2304.49315 1.64328
2302.44471 1.63769
2300.39628 1.63024
2298.34784 1.62160
2296.29940 1.61425
2294.25096 1.60883
2292.20252 1.60432
2290.15408 1.60073
2288.10565 1.59824
2286.05721 1.59621
2284.00877 1.59444
2281.96033 1.59428
2279.91189 1.59618
2277.86345 1.59830
2275.81502 1.59980
2273.76658 1.60159
2271.71814 1.60436
2269.66970 1.60748
2267.62126 1.61023
2265.57282 1.61335
2263.52439 1.61683
2261.47595 1.61947
2259.42751 1.62129
2257.37907 1.62293
2255.33063 1.62421
2253.28219 1.62450
2251.23376 1.62425
2249.18532 1.62447
2247.13688 1.62493
2245.08844 1.62490
2243.04000 1.62439
2240.99156 1.62401
2238.94313 1.62409
2236.89469 1.62396
2234.84625 1.62336
2232.79781 1.62331
2230.74937 1.62353
2228.70093 1.62336
2226.65250 1.62380
2224.60406 1.62526
2222.55562 1.62738
2220.50718 1.62945
2218.45874 1.63072
2216.41030 1.63169
2214.36186 1.63298
2212.31343 1.63495
2210.26499 1.63780
2208.21655 1.64129
2206.16811 1.64543
2204.11967 1.64961
2202.07123 1.65287
2200.02280 1.65517
2197.97436 1.65686
2195.92592 1.65851
2193.87748 1.66114
2191.82904 1.66454
2189.78060 1.66740
2187.73217 1.67021
2185.68373 1.67367
2183.63529 1.67687
2181.58685 1.67913
2179.53841 1.68073
2177.48997 1.68193
2175.44154 1.68217
2173.39310 1.68212
2171.34466 1.68366
2169.29622 1.68640
2167.24778 1.68878
2165.19934 1.69115
2163.15091 1.69360
2161.10247 1.69556
2159.05403 1.69789
2157.00559 1.70087
2154.95715 1.70332
2152.90871 1.70439
2150.86028 1.70404
2148.81184 1.70180
2146.76340 1.69779
2144.71496 1.69406
2142.66652 1.69197
2140.61808 1.69102
2138.56965 1.69058
2136.52121 1.69071
2134.47277 1.69129
2132.42433 1.69141
2130.37589 1.69014
2128.32745 1.68844
2126.27902 1.68742
2124.23058 1.68634
2122.18214 1.68507
2120.13370 1.68425
2118.08526 1.68325
2116.03682 1.68100
2113.98839 1.67747
2111.93995 1.67254
2109.89151 1.66589
2107.84307 1.65853
2105.79463 1.65140
2103.74619 1.64363
2101.69776 1.63467
2099.64932 1.62564
2097.60088 1.61760
2095.55244 1.61139
2093.50400 1.60738
2091.45556 1.60440
2089.40713 1.60128
2087.35869 1.59819
2085.31025 1.59607
2083.26181 1.59535
2081.21337 1.59540
2079.16493 1.59563
2077.11649 1.59616
2075.06806 1.59707
2073.01962 1.59829
2070.97118 1.59945
2068.92274 1.60010
2066.87430 1.60110
2064.82586 1.60320
2062.77743 1.60462
2060.72899 1.60480
2058.68055 1.60516
2056.63211 1.60533
2054.58367 1.60467
2052.53523 1.60418
2050.48680 1.60520
2048.43836 1.60671
2046.38992 1.60689
2044.34148 1.60649
2042.29304 1.60670
2040.24460 1.60747
2038.19617 1.60852
2036.14773 1.61016
2034.09929 1.61187
2032.05085 1.61243
2030.00241 1.61209
2027.95397 1.61240
2025.90554 1.61406
2023.85710 1.61588
2021.80866 1.61696
2019.76022 1.61809
2017.71178 1.62013
2015.66334 1.62192
2013.61491 1.62274
2011.56647 1.62386
2009.51803 1.62494
2007.46959 1.62504
2005.42115 1.62523
2003.37271 1.62675
2001.32428 1.62933
1999.27584 1.63177
1997.22740 1.63333
1995.17896 1.63453
1993.13052 1.63812
1991.08208 1.64528
1989.03365 1.65138
1986.98521 1.65503
1984.93677 1.65857
1982.88833 1.66216
1980.83989 1.66487
1978.79145 1.66637
1976.74302 1.66716
1974.69458 1.66770
1972.64614 1.66828
1970.59770 1.66927
1968.54926 1.67220
1966.50082 1.67662
1964.45239 1.67897
1962.40395 1.67975
1960.35551 1.68108
1958.30707 1.68260
1956.25863 1.68476
1954.21019 1.68803
1952.16176 1.69141
1950.11332 1.69408
1948.06488 1.69589
1946.01644 1.69772
1943.96800 1.70143
1941.91956 1.70723
1939.87112 1.71103
1937.82269 1.71287
1935.77425 1.71555
1933.72581 1.71826
1931.67737 1.71934
1929.62893 1.71936
1927.58049 1.71996
1925.53206 1.72165
1923.48362 1.72582
1921.43518 1.73032
1919.38674 1.73311
1917.33830 1.73851
1915.28986 1.74366
1913.24143 1.74507
1911.19299 1.74711
1909.14455 1.75182
1907.09611 1.75597
1905.04767 1.75815
1902.99923 1.76023
1900.95080 1.76314
1898.90236 1.76592
1896.85392 1.76876
1894.80548 1.77277
1892.75704 1.77582
1890.70860 1.77888
1888.66017 1.78491
1886.61173 1.79014
1884.56329 1.79408
1882.51485 1.79838
1880.46641 1.80238
1878.41797 1.80603
1876.36954 1.80933
1874.32110 1.81328
1872.27266 1.81754
1870.22422 1.82352
1868.17578 1.83440
1866.12734 1.84297
1864.07891 1.84576
1862.03047 1.84868
1859.98203 1.85439
1857.93359 1.86140
1855.88515 1.86824
1853.83671 1.87513
1851.78828 1.88216
1849.73984 1.88869
1847.69140 1.89447
1845.64296 1.90145
1843.59452 1.91106
1841.54608 1.91660
1839.49765 1.92005
1837.44921 1.92773
1835.40077 1.93710
1833.35233 1.94376
1831.30389 1.95058
1829.25545 1.95955
1827.20702 1.96694
1825.15858 1.97509
1823.11014 1.98348
1821.06170 1.98882
1819.01326 1.99362
1816.96482 1.99940
1814.91639 2.00468
1812.86795 2.00970
1810.81951 2.01748
1808.77107 2.02723
1806.72263 2.03535
1804.67419 2.04197
1802.62575 2.04884
1800.57732 2.05425
1798.52888 2.05592
1796.48044 2.05652
1794.43200 2.05668
1792.38356 2.05327
1790.33512 2.04262
1788.28669 2.03021
1786.23825 2.02262
1784.18981 2.02147
1782.14137 2.02241
1780.09293 2.02127
1778.04449 2.01941
1775.99606 2.02106
1773.94762 2.02910
1771.89918 2.04082
1769.85074 2.04522
1767.80230 2.04491
1765.75386 2.04552
1763.70543 2.04930
1761.65699 2.05598
1759.60855 2.06085
1757.56011 2.06594
1755.51167 2.07248
1753.46323 2.07912
1751.41480 2.08828
1749.36636 2.09914
1747.31792 2.10471
1745.26948 2.10523
1743.22104 2.10554
1741.17260 2.10694
1739.12417 2.10806
1737.07573 2.11133
1735.02729 2.12386
1732.97885 2.13292
1730.93041 2.12401
1728.88197 2.11622
1726.83354 2.11483
1724.78510 2.11676
1722.73666 2.11815
1720.68822 2.12231
1718.63978 2.13752
1716.59134 2.15638
1714.54291 2.14867
1712.49447 2.13672
1710.44603 2.13439
1708.39759 2.14096
1706.34915 2.14939
1704.30071 2.15063
1702.25228 2.15064
1700.20384 2.15474
1698.15540 2.15627
1696.10696 2.15057
1694.05852 2.14558
1692.01008 2.14602
1689.96165 2.15204
1687.91321 2.15972
1685.86477 2.16966
1683.81633 2.18130
1681.76789 2.17909
1679.71945 2.17391
1677.67102 2.17140
1675.62258 2.17192
1673.57414 2.17103
1671.52570 2.16783
1669.47726 2.16285
1667.42882 2.16045
1665.38038 2.16097
1663.33195 2.16463
1661.28351 2.16795
1659.23507 2.16864
1657.18663 2.17062
1655.13819 2.17554
1653.08975 2.18134
1651.04132 2.17586
1648.99288 2.17312
1646.94444 2.17037
1644.89600 2.16344
1642.84756 2.15657
1640.79912 2.15362
1638.75069 2.15318
1636.70225 2.15106
1634.65381 2.14003
1632.60537 2.12913
1630.55693 2.12181
1628.50849 2.11151
1626.46006 2.09868
1624.41162 2.08354
1622.36318 2.06758
1620.31474 2.05495
1618.26630 2.04341
1616.21786 2.02086
1614.16943 1.99777
1612.12099 1.97860
1610.07255 1.95409
1608.02411 1.92284
1605.97567 1.88814
1603.92723 1.84987
1601.87880 1.80492
1599.83036 1.75672
1597.78192 1.70448
1595.73348 1.64282
1593.68504 1.57036
1591.63660 1.49369
1589.58817 1.41411
1587.53973 1.33710
1585.49129 1.27204
1583.44285 1.22575
1581.39441 1.20163
1579.34597 1.19656
1577.29754 1.20946
1575.24910 1.23915
1573.20066 1.26204
1571.15222 1.27922
1569.10378 1.29057
1567.05534 1.27531
1565.00691 1.23296
1562.95847 1.18446
1560.91003 1.13896
1558.86159 1.03998
1556.81315 0.95659
1554.76471 0.92502
1552.71628 0.89856
1550.66784 0.87657
1548.61940 0.85909
1546.57096 0.84930
1544.52252 0.84526
1542.47408 0.84237
1540.42565 0.83307
1538.37721 0.82057
1536.32877 0.81553
1534.28033 0.81324
1532.23189 0.80946
1530.18345 0.80632
1528.13501 0.80598
1526.08658 0.80707
1524.03814 0.80807
1521.98970 0.80939
1519.94126 0.80947
1517.89282 0.80949
1515.84438 0.80977
1513.79595 0.80956
1511.74751 0.81159
1509.69907 0.81637
1507.65063 0.82200
1505.60219 0.82004
1503.55375 0.81669
1501.50532 0.81620
1499.45688 0.81800
1497.40844 0.82056
1495.36000 0.82070
1493.31156 0.82084
1491.26312 0.82491
1489.21469 0.83216
1487.16625 0.83463
1485.11781 0.83493
1483.06937 0.83728
1481.02093 0.84143
1478.97249 0.84563
1476.92406 0.85072
1474.87562 0.85781
1472.82718 0.86376
1470.77874 0.86396
1468.73030 0.86350
1466.68186 0.86731
1464.63343 0.87704
1462.58499 0.88930
1460.53655 0.90439
1458.48811 0.93920
1456.43967 1.01001
1454.39123 1.05385
1452.34280 1.07801
1450.29436 1.10316
1448.24592 1.13106
1446.19748 1.15702
1444.14904 1.17673
1442.10060 1.19407
1440.05217 1.21081
1438.00373 1.22920
1435.95529 1.25208
1433.90685 1.26745
1431.85841 1.27838
1429.80997 1.29077
1427.76154 1.30135
1425.71310 1.31016
1423.66466 1.31938
1421.61622 1.32801
1419.56778 1.33928
1417.51934 1.35182
1415.47091 1.35782
1413.42247 1.36370
1411.37403 1.37175
1409.32559 1.38012
1407.27715 1.38807
1405.22871 1.39683
1403.18028 1.40466
1401.13184 1.41194
1399.08340 1.42112
1397.03496 1.43001
1394.98652 1.43692
1392.93808 1.44118
1390.88965 1.44458
1388.84121 1.45009
1386.79277 1.45761
1384.74433 1.46252
1382.69589 1.46645
1380.64745 1.47156
1378.59901 1.47706
1376.55058 1.48282
1374.50214 1.48894
1372.45370 1.49345
1370.40526 1.49700
1368.35682 1.50144
1366.30838 1.50536
1364.25995 1.51000
1362.21151 1.51555
1360.16307 1.51915
1358.11463 1.52132
1356.06619 1.52411
1354.01775 1.52726
1351.96932 1.53022
1349.92088 1.53330
1347.87244 1.53667
1345.82400 1.54018
1343.77556 1.54363
1341.72712 1.54861
1339.67869 1.55457
1337.63025 1.55798
1335.58181 1.55871
1333.53337 1.55988
1331.48493 1.56245
1329.43649 1.56594
1327.38806 1.56950
1325.33962 1.57264
1323.29118 1.57560
1321.24274 1.57866
1319.19430 1.58183
1317.14586 1.58442
1315.09743 1.58730
1313.04899 1.59023
1311.00055 1.59218
1308.95211 1.59339
1306.90367 1.59502
1304.85523 1.59719
1302.80680 1.59951
1300.75836 1.60200
1298.70992 1.60439
1296.66148 1.60675
1294.61304 1.60910
1292.56460 1.61146
1290.51617 1.61387
1288.46773 1.61625
1286.41929 1.61768
1284.37085 1.61882
1282.32241 1.62075
1280.27397 1.62263
1278.22554 1.62419
1276.17710 1.62643
1274.12866 1.62931
1272.08022 1.63190
1270.03178 1.63382
1267.98334 1.63491
1265.93491 1.63615
1263.88647 1.63817
1261.83803 1.64040
1259.78959 1.64208
1257.74115 1.64391
1255.69271 1.64629
1253.64428 1.64803
1251.59584 1.64898
1249.54740 1.65040
1247.49896 1.65279
1245.45052 1.65512
1243.40208 1.65702
1241.35364 1.65886
1239.30521 1.66036
1237.25677 1.66106
1235.20833 1.66198
1233.15989 1.66391
1231.11145 1.66549
1229.06301 1.66632
1227.01458 1.66794
1224.96614 1.67056
1222.91770 1.67295
1220.86926 1.67416
1218.82082 1.67469
1216.77238 1.67628
1214.72395 1.67885
1212.67551 1.68092
1210.62707 1.68227
1208.57863 1.68357
1206.53019 1.68461
1204.48175 1.68536
1202.43332 1.68677
1200.38488 1.68882
1198.33644 1.69085
1196.28800 1.69237
1194.23956 1.69304
1192.19112 1.69358
1190.14269 1.69479
1188.09425 1.69576
1186.04581 1.69647
1183.99737 1.69791
1181.94893 1.69921
1179.90049 1.69973
1177.85206 1.70046
1175.80362 1.70183
1173.75518 1.70325
1171.70674 1.70413
1169.65830 1.70470
1167.60986 1.70535
1165.56143 1.70621
1163.51299 1.70770
1161.46455 1.70951
1159.41611 1.71107
1157.36767 1.71240
1155.31923 1.71356
1153.27080 1.71481
1151.22236 1.71637
1149.17392 1.71793
1147.12548 1.71962
1145.07704 1.72177
1143.02860 1.72372
1140.98017 1.72484
1138.93173 1.72532
1136.88329 1.72604
1134.83485 1.72701
1132.78641 1.72754
1130.73797 1.72829
1128.68954 1.72940
1126.64110 1.72996
1124.59266 1.72996
1122.54422 1.72994
1120.49578 1.72998
1118.44734 1.72978
1116.39891 1.72923
1114.35047 1.72904
1112.30203 1.72912
1110.25359 1.73005
1108.20515 1.73303
1106.15671 1.73694
1104.10827 1.74004
1102.05984 1.74280
1100.01140 1.74674
1097.96296 1.75277
1095.91452 1.76094
1093.86608 1.76944
1091.81764 1.77897
1089.76921 1.79414
1087.72077 1.80759
1085.67233 1.76030
1083.62389 1.66414
1081.57545 1.62841
1079.52701 1.66592
1077.47858 1.70715
1075.43014 1.72280
1073.38170 1.72687
1071.33326 1.72753
1069.28482 1.72686
1067.23638 1.72334
1065.18795 1.71951
1063.13951 1.72235
1061.09107 1.73215
1059.04263 1.73549
1056.99419 1.72588
1054.94575 1.71514
1052.89732 1.71122
1050.84888 1.71102
1048.80044 1.71209
1046.75200 1.71397
1044.70356 1.71696
1042.65512 1.71986
1040.60669 1.72219
1038.55825 1.72507
1036.50981 1.72770
1034.46137 1.73009
1032.41293 1.73342
1030.36449 1.73699
1028.31606 1.73926
1026.26762 1.74105
1024.21918 1.74321
1022.17074 1.74569
1020.12230 1.74855
1018.07386 1.75245
1016.02543 1.75661
1013.97699 1.75992
1011.92855 1.76265
1009.88011 1.76523
1007.83167 1.76846
1005.78323 1.77288
1003.73480 1.77780
1001.68636 1.78258
999.63792 1.78797
997.58948 1.79285
995.54104 1.79647
993.49260 1.79974
991.44417 1.80273
989.39573 1.80652
987.34729 1.81185
985.29885 1.81563
983.25041 1.81610
981.20197 1.81694
979.15354 1.81980
977.10510 1.82313
975.05666 1.82595
973.00822 1.82826
970.95978 1.83012
968.91134 1.83196
966.86290 1.83496
964.81447 1.83886
962.76603 1.84251
960.71759 1.84606
958.66915 1.84930
956.62071 1.85202
954.57227 1.85509
952.52384 1.85902
950.47540 1.86370
948.42696 1.86768
946.37852 1.87066
944.33008 1.87340
942.28164 1.87623
940.23321 1.88003
938.18477 1.88526
936.13633 1.88979
934.08789 1.89215
932.03945 1.89595
929.99101 1.90247
927.94258 1.90755
925.89414 1.91057
923.84570 1.91522
921.79726 1.92253
919.74882 1.93036
917.70038 1.93607
915.65195 1.94127
913.60351 1.94945
911.55507 1.95908
909.50663 1.96540
907.45819 1.96863
905.40975 1.97188
903.36132 1.97464
901.31288 1.97657
899.26444 1.97616
897.21600 1.97269
895.16756 1.96803
893.11912 1.96290
891.07069 1.95065
889.02225 1.91859
886.97381 1.85586
884.92537 1.74632
882.87693 1.57393
880.82849 1.35575
878.78006 1.14340
876.73162 0.98315
874.68318 0.88888
872.63474 0.84485
870.58630 0.82602
868.53786 0.81651
866.48943 0.81088
864.44099 0.80769
862.39255 0.80645
860.34411 0.80706
858.29567 0.81048
856.24723 0.82301
854.19880 0.86384
852.15036 0.95345
850.10192 1.08142
848.05348 1.20412
846.00504 1.28243
843.95660 1.31024
841.90817 1.32859
839.85973 1.36662
837.81129 1.40849
835.76285 1.44168
833.71441 1.46834
831.66597 1.48991
829.61753 1.50854
827.56910 1.52631
825.52066 1.54243
823.47222 1.55572
821.42378 1.56733
819.37534 1.57896
817.32690 1.59102
815.27847 1.60269
813.23003 1.61297
811.18159 1.62262
809.13315 1.63205
807.08471 1.63934
805.03627 1.64481
802.98784 1.65017
800.93940 1.65632
798.89096 1.66299
796.84252 1.66854
794.79408 1.67218
792.74564 1.67604
790.69721 1.68155
788.64877 1.68730
786.60033 1.69250
784.55189 1.69712
782.50345 1.70046
780.45501 1.70414
778.40658 1.71104
776.35814 1.71869
774.30970 1.72281
772.26126 1.72419
770.21282 1.72510
768.16438 1.72680
766.11595 1.73323
764.06751 1.74226
762.01907 1.74633
759.97063 1.74798
757.92219 1.75223
755.87375 1.75706
753.82532 1.76170
751.77688 1.76833
749.72844 1.77470
747.68000 1.77754
745.63156 1.77745
743.58312 1.77586
741.53469 1.77663
739.48625 1.78556
737.43781 1.79721
735.38937 1.80308
733.34093 1.80986
731.29249 1.82437
729.24406 1.83975
727.19562 1.85137
725.14718 1.86334
723.09874 1.88124
721.05030 1.91104
719.00186 1.93883
716.95343 1.85773
714.90499 1.66434
712.85655 1.55150
710.80811 1.57810
708.75967 1.66297
706.71123 1.72017
704.66280 1.75611
702.61436 1.77651
700.56592 1.76782
698.51748 1.74935
696.46904 1.74703
694.42060 1.75455
692.37216 1.76152
690.32373 1.77006
688.27529 1.78352
686.22685 1.79433
684.17841 1.79646
682.12997 1.79660
680.08153 1.79823
678.03310 1.80034
675.98466 1.80338
673.93622 1.80230
671.88778 1.79800
669.83934 1.80165
667.79090 1.81359
665.74247 1.82113
663.69403 1.82341
661.64559 1.82347
659.59715 1.82916
657.54871 1.84509
655.50027 1.85663
653.45184 1.85413
651.40340 1.85089
649.35496 1.85048
647.30652 1.84525
645.25808 1.83913
643.20964 1.83672
641.16121 1.83544
639.11277 1.84044
637.06433 1.84928
635.01589 1.85369
632.96745 1.86170
630.91901 1.87141
628.87058 1.87385
626.82214 1.88425
624.77370 1.89818
622.72526 1.88458
620.67682 1.85418
618.62838 1.84219
616.57995 1.86092
614.53151 1.87572
612.48307 1.86082
610.43463 1.86170
608.38619 1.91270
606.33775 1.95152
604.28932 1.91949
602.24088 1.89013
600.19244 1.89701
598.14400 1.89353
