3996.50324 1.27742
3994.45480 1.27936
3992.40636 1.28085
3990.35792 1.28114
3988.30948 1.28109
3986.26104 1.28126
3984.21261 1.28182
3982.16417 1.28259
3980.11573 1.28312
3978.06729 1.28325
3976.01885 1.28324
3973.97041 1.28351
3971.92198 1.28405
3969.87354 1.28444
3967.82510 1.28476
3965.77666 1.28470
3963.72822 1.28399
3961.67978 1.28341
3959.63135 1.28266
3957.58291 1.28119
3955.53447 1.27994
3953.48603 1.27933
3951.43759 1.27882
3949.38915 1.27908
3947.34072 1.27984
3945.29228 1.27899
3943.24384 1.27846
3941.19540 1.27909
3939.14696 1.27823
3937.09852 1.27634
3935.05009 1.27511
3933.00165 1.27619
3930.95321 1.27902
3928.90477 1.27898
3926.85633 1.27622
3924.80789 1.27518
3922.75946 1.27555
3920.71102 1.27440
3918.66258 1.27379
3916.61414 1.27491
3914.56570 1.27452
3912.51726 1.27190
3910.46883 1.26942
3908.42039 1.26786
3906.37195 1.26768
3904.32351 1.27140
3902.27507 1.27622
3900.22663 1.27737
3898.17820 1.27603
3896.12976 1.27232
3894.08132 1.26854
3892.03288 1.26908
3889.98444 1.27037
3887.93600 1.26660
3885.88756 1.26471
3883.83913 1.26691
3881.79069 1.26670
3879.74225 1.26683
3877.69381 1.26443
3875.64537 1.25994
3873.59693 1.25961
3871.54850 1.26212
3869.50006 1.26549
3867.45162 1.26476
3865.40318 1.26109
3863.35474 1.26250
3861.30630 1.26406
3859.25787 1.26108
3857.20943 1.25623
3855.16099 1.25386
3853.11255 1.26626
3851.06411 1.27363
3849.01567 1.26688
3846.96724 1.25968
3844.91880 1.25594
3842.87036 1.25617
3840.82192 1.25817
3838.77348 1.26215
3836.72504 1.26677
3834.67661 1.26645
3832.62817 1.26436
3830.57973 1.26309
3828.53129 1.26187
3826.48285 1.26182
3824.43441 1.26036
3822.38598 1.25821
3820.33754 1.26405
3818.28910 1.26639
3816.24066 1.26476
3814.19222 1.26545
3812.14378 1.26209
3810.09535 1.25678
3808.04691 1.25578
3805.99847 1.26013
3803.95003 1.26054
3801.90159 1.26232
3799.85315 1.26842
3797.80472 1.26769
3795.75628 1.26575
3793.70784 1.26390
3791.65940 1.26093
3789.61096 1.25938
3787.56252 1.25930
3785.51409 1.26054
3783.46565 1.26167
3781.41721 1.26111
3779.36877 1.26309
3777.32033 1.26574
3775.27189 1.26363
3773.22346 1.25973
3771.17502 1.25911
3769.12658 1.26364
3767.07814 1.26685
3765.02970 1.26729
3762.98126 1.26618
3760.93283 1.26477
3758.88439 1.26755
3756.83595 1.26985
3754.78751 1.26683
3752.73907 1.26504
3750.69063 1.27502
3748.64219 1.28288
3746.59376 1.27848
3744.54532 1.27825
3742.49688 1.28323
3740.44844 1.28127
3738.40000 1.27673
3736.35156 1.27815
3734.30313 1.28715
3732.25469 1.29111
3730.20625 1.28825
3728.15781 1.28475
3726.10937 1.28550
3724.06093 1.28927
3722.01250 1.29095
3719.96406 1.29075
3717.91562 1.28951
3715.86718 1.28734
3713.81874 1.28633
3711.77030 1.29339
3709.72187 1.30429
3707.67343 1.30641
3705.62499 1.30578
3703.57655 1.30680
3701.52811 1.31087
3699.47967 1.31422
3697.43124 1.31549
3695.38280 1.31708
3693.33436 1.31851
3691.28592 1.32057
3689.23748 1.32617
3687.18904 1.32942
3685.14061 1.32777
3683.09217 1.32499
3681.04373 1.32375
3678.99529 1.32475
3676.94685 1.32775
3674.89841 1.33138
3672.84998 1.32964
3670.80154 1.32915
3668.75310 1.33274
3666.70466 1.33125
3664.65622 1.32762
3662.60778 1.32612
3660.55935 1.32652
3658.51091 1.32806
3656.46247 1.33141
3654.41403 1.33386
3652.36559 1.33459
3650.31715 1.34027
3648.26872 1.34969
3646.22028 1.34805
3644.17184 1.34384
3642.12340 1.34186
3640.07496 1.34184
3638.02652 1.34285
3635.97809 1.34474
3633.92965 1.34697
3631.88121 1.34831
3629.83277 1.35179
3627.78433 1.35850
3625.73589 1.35889
3623.68746 1.35688
3621.63902 1.35673
3619.59058 1.35970
3617.54214 1.36251
3615.49370 1.36240
3613.44526 1.36295
3611.39682 1.36460
3609.34839 1.36589
3607.29995 1.36637
3605.25151 1.36558
3603.20307 1.36544
3601.15463 1.36749
3599.10619 1.37023
3597.05776 1.37211
3595.00932 1.37353
3592.96088 1.37314
3590.91244 1.37188
3588.86400 1.37316
3586.81556 1.37507
3584.76713 1.37304
3582.71869 1.37082
3580.67025 1.37022
3578.62181 1.37067
3576.57337 1.37162
3574.52493 1.37248
3572.47650 1.37332
3570.42806 1.37441
3568.37962 1.37747
3566.33118 1.38216
3564.28274 1.38185
3562.23430 1.37928
3560.18587 1.37793
3558.13743 1.37708
3556.08899 1.37691
3554.04055 1.37851
3551.99211 1.38034
3549.94367 1.38066
3547.89524 1.38176
3545.84680 1.38421
3543.79836 1.38416
3541.74992 1.38175
3539.70148 1.38083
3537.65304 1.38218
3535.60461 1.38333
3533.55617 1.38341
3531.50773 1.38402
3529.45929 1.38598
3527.41085 1.38799
3525.36241 1.38869
3523.31398 1.38823
3521.26554 1.38732
3519.21710 1.38679
3517.16866 1.38701
3515.12022 1.38772
3513.07178 1.38854
3511.02335 1.38948
3508.97491 1.39017
3506.92647 1.39047
3504.87803 1.39166
3502.82959 1.39330
3500.78115 1.39333
3498.73272 1.39228
3496.68428 1.39124
3494.63584 1.39077
3492.58740 1.39143
3490.53896 1.39312
3488.49052 1.39477
3486.44209 1.39546
3484.39365 1.39550
3482.34521 1.39559
3480.29677 1.39570
3478.24833 1.39532
3476.19989 1.39496
3474.15146 1.39520
3472.10302 1.39561
3470.05458 1.39589
3468.00614 1.39619
3465.95770 1.39634
3463.90926 1.39643
3461.86082 1.39661
3459.81239 1.39629
3457.76395 1.39570
3455.71551 1.39571
3453.66707 1.39623
3451.61863 1.39674
3449.57019 1.39773
3447.52176 1.39926
3445.47332 1.39986
3443.42488 1.39982
3441.37644 1.39977
3439.32800 1.39938
3437.27956 1.39942
3435.23113 1.39956
3433.18269 1.39896
3431.13425 1.39873
3429.08581 1.39908
3427.03737 1.39918
3424.98893 1.39969
3422.94050 1.40096
3420.89206 1.40162
3418.84362 1.40090
3416.79518 1.40040
3414.74674 1.40121
3412.69830 1.40226
3410.64987 1.40233
3408.60143 1.40161
3406.55299 1.40100
3404.50455 1.40111
3402.45611 1.40216
3400.40767 1.40352
3398.35924 1.40430
3396.31080 1.40406
3394.26236 1.40312
3392.21392 1.40258
3390.16548 1.40256
3388.11704 1.40275
3386.06861 1.40306
3384.02017 1.40337
3381.97173 1.40379
3379.92329 1.40402
3377.87485 1.40393
3375.82641 1.40388
3373.77798 1.40382
3371.72954 1.40363
3369.68110 1.40324
3367.63266 1.40278
3365.58422 1.40292
3363.53578 1.40367
3361.48735 1.40387
3359.43891 1.40340
3357.39047 1.40316
3355.34203 1.40327
3353.29359 1.40347
3351.24515 1.40374
3349.19672 1.40395
3347.14828 1.40397
3345.09984 1.40431
3343.05140 1.40529
3341.00296 1.40597
3338.95452 1.40594
3336.90609 1.40548
3334.85765 1.40473
3332.80921 1.40431
3330.76077 1.40418
3328.71233 1.40404
3326.66389 1.40389
3324.61545 1.40359
3322.56702 1.40364
3320.51858 1.40412
3318.47014 1.40472
3316.42170 1.40521
3314.37326 1.40527
3312.32482 1.40541
3310.27639 1.40575
3308.22795 1.40564
3306.17951 1.40559
3304.13107 1.40577
3302.08263 1.40548
3300.03419 1.40468
3297.98576 1.40391
3295.93732 1.40437
3293.88888 1.40593
3291.84044 1.40666
3289.79200 1.40668
3287.74356 1.40703
3285.69513 1.40718
3283.64669 1.40722
3281.59825 1.40772
3279.54981 1.40804
3277.50137 1.40759
3275.45293 1.40727
3273.40450 1.40755
3271.35606 1.40728
3269.30762 1.40639
3267.25918 1.40615
3265.21074 1.40662
3263.16230 1.40712
3261.11387 1.40744
3259.06543 1.40750
3257.01699 1.40772
3254.96855 1.40818
3252.92011 1.40830
3250.87167 1.40811
3248.82324 1.40825
3246.77480 1.40871
3244.72636 1.40852
3242.67792 1.40720
3240.62948 1.40613
3238.58104 1.40671
3236.53261 1.40788
3234.48417 1.40795
3232.43573 1.40749
3230.38729 1.40774
3228.33885 1.40861
3226.29041 1.40947
3224.24198 1.40996
3222.19354 1.40977
3220.14510 1.40940
3218.09666 1.40929
3216.04822 1.40906
3213.99978 1.40882
3211.95135 1.40890
3209.90291 1.40906
3207.85447 1.40871
3205.80603 1.40784
3203.75759 1.40736
3201.70915 1.40756
3199.66072 1.40818
3197.61228 1.40883
3195.56384 1.40867
3193.51540 1.40801
3191.46696 1.40758
3189.41852 1.40738
3187.37008 1.40731
3185.32165 1.40711
3183.27321 1.40682
3181.22477 1.40679
3179.17633 1.40705
3177.12789 1.40712
3175.07945 1.40697
3173.03102 1.40716
3170.98258 1.40723
3168.93414 1.40658
3166.88570 1.40605
3164.83726 1.40611
3162.78882 1.40627
3160.74039 1.40653
3158.69195 1.40666
3156.64351 1.40638
3154.59507 1.40573
3152.54663 1.40478
3150.49819 1.40424
3148.44976 1.40431
3146.40132 1.40402
3144.35288 1.40326
3142.30444 1.40290
3140.25600 1.40293
3138.20756 1.40292
3136.15913 1.40298
3134.11069 1.40367
3132.06225 1.40450
3130.01381 1.40437
3127.96537 1.40417
3125.91693 1.40436
3123.86850 1.40355
3121.82006 1.40197
3119.77162 1.40129
3117.72318 1.40167
3115.67474 1.40218
3113.62630 1.40217
3111.57787 1.40150
3109.52943 1.40109
3107.48099 1.40173
3105.43255 1.40282
3103.38411 1.40318
3101.33567 1.40230
3099.28724 1.40156
3097.23880 1.40225
3095.19036 1.40294
3093.14192 1.40173
3091.09348 1.39961
3089.04504 1.39894
3086.99661 1.39958
3084.94817 1.39988
3082.89973 1.39926
3080.85129 1.39835
3078.80285 1.39818
3076.75441 1.39897
3074.70598 1.39975
3072.65754 1.39994
3070.60910 1.39975
3068.56066 1.39941
3066.51222 1.39969
3064.46378 1.40060
3062.41535 1.40099
3060.36691 1.40072
3058.31847 1.40023
3056.27003 1.40004
3054.22159 1.40002
3052.17315 1.39980
3050.12471 1.40042
3048.07628 1.40161
3046.02784 1.40200
3043.97940 1.40223
3041.93096 1.40321
3039.88252 1.40463
3037.83408 1.40555
3035.78565 1.40558
3033.73721 1.40581
3031.68877 1.40665
3029.64033 1.40700
3027.59189 1.40651
3025.54345 1.40596
3023.49502 1.40612
3021.44658 1.40638
3019.39814 1.40631
3017.34970 1.40665
3015.30126 1.40737
3013.25282 1.40810
3011.20439 1.40881
3009.15595 1.40980
3007.10751 1.41107
3005.05907 1.41183
3003.01063 1.41191
3000.96219 1.41179
2998.91376 1.41179
2996.86532 1.41204
2994.81688 1.41212
2992.76844 1.41208
2990.72000 1.41254
2988.67156 1.41313
2986.62313 1.41291
2984.57469 1.41183
2982.52625 1.41052
2980.47781 1.40985
2978.42937 1.41005
2976.38093 1.40971
2974.33250 1.40869
2972.28406 1.40882
2970.23562 1.40959
2968.18718 1.40944
2966.13874 1.40906
2964.09030 1.40910
2962.04187 1.40892
2959.99343 1.40821
2957.94499 1.40746
2955.89655 1.40731
2953.84811 1.40726
2951.79967 1.40671
2949.75124 1.40609
2947.70280 1.40575
2945.65436 1.40577
2943.60592 1.40597
2941.55748 1.40630
2939.50904 1.40688
2937.46061 1.40729
2935.41217 1.40680
2933.36373 1.40531
2931.31529 1.40353
2929.26685 1.40217
2927.21841 1.40148
2925.16998 1.40102
2923.12154 1.40003
2921.07310 1.39822
2919.02466 1.39658
2916.97622 1.39568
2914.92778 1.39493
2912.87934 1.39487
2910.83091 1.39599
2908.78247 1.39725
2906.73403 1.39808
2904.68559 1.39858
2902.63715 1.39865
2900.58871 1.39822
2898.54028 1.39740
2896.49184 1.39675
2894.44340 1.39638
2892.39496 1.39559
2890.34652 1.39432
2888.29808 1.39331
2886.24965 1.39278
2884.20121 1.39221
2882.15277 1.39164
2880.10433 1.39158
2878.05589 1.39180
2876.00745 1.39156
2873.95902 1.39083
2871.91058 1.39043
2869.86214 1.39066
2867.81370 1.39116
2865.76526 1.39179
2863.71682 1.39234
2861.66839 1.39260
2859.61995 1.39274
2857.57151 1.39311
2855.52307 1.39325
2853.47463 1.39243
2851.42619 1.39064
2849.37776 1.38855
2847.32932 1.38743
2845.28088 1.38738
2843.23244 1.38674
2841.18400 1.38485
2839.13556 1.38254
2837.08713 1.38059
2835.03869 1.37882
2832.99025 1.37709
2830.94181 1.37552
2828.89337 1.37371
2826.84493 1.37195
2824.79650 1.37104
2822.74806 1.37049
2820.69962 1.36964
2818.65118 1.36867
2816.60274 1.36770
2814.55430 1.36666
2812.50587 1.36584
2810.45743 1.36549
2808.40899 1.36519
2806.36055 1.36465
2804.31211 1.36435
2802.26367 1.36427
2800.21524 1.36409
2798.16680 1.36378
2796.11836 1.36314
2794.06992 1.36245
2792.02148 1.36203
2789.97304 1.36134
2787.92461 1.36040
2785.87617 1.35990
2783.82773 1.35974
2781.77929 1.35983
2779.73085 1.36014
2777.68241 1.36034
2775.63397 1.36026
2773.58554 1.35995
2771.53710 1.35962
2769.48866 1.35927
2767.44022 1.35891
2765.39178 1.35868
2763.34334 1.35848
2761.29491 1.35803
2759.24647 1.35725
2757.19803 1.35650
2755.14959 1.35623
2753.10115 1.35648
2751.05271 1.35670
2749.00428 1.35652
2746.95584 1.35621
2744.90740 1.35587
2742.85896 1.35580
2740.81052 1.35586
2738.76208 1.35567
2736.71365 1.35576
2734.66521 1.35618
2732.61677 1.35631
2730.56833 1.35617
2728.51989 1.35591
2726.47145 1.35544
2724.42302 1.35510
2722.37458 1.35499
2720.32614 1.35465
2718.27770 1.35417
2716.22926 1.35401
2714.18082 1.35417
2712.13239 1.35454
2710.08395 1.35487
2708.03551 1.35488
2705.98707 1.35478
2703.93863 1.35513
2701.89019 1.35590
2699.84176 1.35614
2697.79332 1.35577
2695.74488 1.35543
2693.69644 1.35519
2691.64800 1.35510
2689.59956 1.35536
2687.55113 1.35562
2685.50269 1.35583
2683.45425 1.35655
2681.40581 1.35812
2679.35737 1.36014
2677.30893 1.36162
2675.26050 1.36220
2673.21206 1.36290
2671.16362 1.36444
2669.11518 1.36654
2667.06674 1.36885
2665.01830 1.37144
2662.96987 1.37446
2660.92143 1.37751
2658.87299 1.38016
2656.82455 1.38264
2654.77611 1.38470
2652.72767 1.38584
2650.67924 1.38668
2648.63080 1.38800
2646.58236 1.38940
2644.53392 1.39052
2642.48548 1.39172
2640.43704 1.39262
2638.38860 1.39300
2636.34017 1.39348
2634.29173 1.39392
2632.24329 1.39409
2630.19485 1.39421
2628.14641 1.39418
2626.09797 1.39420
2624.04954 1.39434
2622.00110 1.39434
2619.95266 1.39440
2617.90422 1.39446
2615.85578 1.39445
2613.80734 1.39439
2611.75891 1.39410
2609.71047 1.39374
2607.66203 1.39374
2605.61359 1.39399
2603.56515 1.39423
2601.51671 1.39430
2599.46828 1.39419
2597.41984 1.39405
2595.37140 1.39387
2593.32296 1.39383
2591.27452 1.39409
2589.22608 1.39460
2587.17765 1.39546
2585.12921 1.39654
2583.08077 1.39760
2581.03233 1.39861
2578.98389 1.39961
2576.93545 1.40065
2574.88702 1.40179
2572.83858 1.40282
2570.79014 1.40371
2568.74170 1.40473
2566.69326 1.40581
2564.64482 1.40664
2562.59639 1.40706
2560.54795 1.40745
2558.49951 1.40821
2556.45107 1.40949
2554.40263 1.41124
2552.35419 1.41286
2550.30576 1.41349
2548.25732 1.41293
2546.20888 1.41118
2544.16044 1.40902
2542.11200 1.40748
2540.06356 1.40718
2538.01513 1.40858
2535.96669 1.41123
2533.91825 1.41403
2531.86981 1.41641
2529.82137 1.41800
2527.77293 1.41847
2525.72450 1.41786
2523.67606 1.41612
2521.62762 1.41369
2519.57918 1.41146
2517.53074 1.40928
2515.48230 1.40692
2513.43387 1.40547
2511.38543 1.40593
2509.33699 1.40749
2507.28855 1.40924
2505.24011 1.41122
2503.19167 1.41294
2501.14324 1.41355
2499.09480 1.41318
2497.04636 1.41243
2494.99792 1.41152
2492.94948 1.41045
2490.90104 1.40917
2488.85260 1.40742
2486.80417 1.40537
2484.75573 1.40316
2482.70729 1.40038
2480.65885 1.39709
2478.61041 1.39352
2476.56197 1.38956
2474.51354 1.38568
2472.46510 1.38280
2470.41666 1.38091
2468.36822 1.37892
2466.31978 1.37613
2464.27134 1.37343
2462.22291 1.37155
2460.17447 1.36982
2458.12603 1.36793
2456.07759 1.36637
2454.02915 1.36554
2451.98071 1.36493
2449.93228 1.36390
2447.88384 1.36253
2445.83540 1.36112
2443.78696 1.36003
2441.73852 1.35957
2439.69008 1.35962
2437.64165 1.35976
2435.59321 1.35990
2433.54477 1.36001
2431.49633 1.36016
2429.44789 1.36062
2427.39945 1.36103
2425.35102 1.36076
2423.30258 1.35987
2421.25414 1.35885
2419.20570 1.35795
2417.15726 1.35727
2415.10882 1.35711
2413.06039 1.35766
2411.01195 1.35848
2408.96351 1.35896
2406.91507 1.35933
2404.86663 1.35988
2402.81819 1.36025
2400.76976 1.36045
2398.72132 1.36065
2396.67288 1.36077
2394.62444 1.36094
2392.57600 1.36133
2390.52756 1.36210
2388.47913 1.36330
2386.43069 1.36496
2384.38225 1.36747
2382.33381 1.37102
2380.28537 1.37546
2378.23693 1.38067
2376.18850 1.38655
2374.14006 1.39353
2372.09162 1.40213
2370.04318 1.41013
2367.99474 1.41480
2365.94630 1.41807
2363.89787 1.42290
2361.84943 1.42933
2359.80099 1.43497
2357.75255 1.43586
2355.70411 1.43198
2353.65567 1.42575
2351.60723 1.41792
2349.55880 1.41090
2347.51036 1.40774
2345.46192 1.41091
2343.41348 1.41858
2341.36504 1.42259
2339.31660 1.42188
2337.26817 1.42096
2335.21973 1.42021
2333.17129 1.41870
2331.12285 1.41657
2329.07441 1.41338
2327.02597 1.40999
2324.97754 1.40754
2322.92910 1.40549
2320.88066 1.40209
2318.83222 1.39769
2316.78378 1.39434
2314.73534 1.39246
2312.68691 1.39130
2310.63847 1.38968
2308.59003 1.38721
2306.54159 1.38449
2304.49315 1.38163
2302.44471 1.37830
2300.39628 1.37439
2298.34784 1.37076
2296.29940 1.36811
2294.25096 1.36597
2292.20252 1.36399
2290.15408 1.36239
2288.10565 1.36148
2286.05721 1.36091
2284.00877 1.36030
2281.96033 1.36030
2279.91189 1.36090
2277.86345 1.36140
2275.81502 1.36200
2273.76658 1.36305
2271.71814 1.36452
2269.66970 1.36611
2267.62126 1.36744
2265.57282 1.36838
2263.52439 1.36896
2261.47595 1.36929
2259.42751 1.36960
2257.37907 1.36990
2255.33063 1.37022
2253.28219 1.37075
2251.23376 1.37132
2249.18532 1.37169
2247.13688 1.37238
2245.08844 1.37338
2243.04000 1.37375
2240.99156 1.37374
2238.94313 1.37409
2236.89469 1.37424
2234.84625 1.37381
2232.79781 1.37353
2230.74937 1.37369
2228.70093 1.37382
2226.65250 1.37415
2224.60406 1.37516
2222.55562 1.37681
2220.50718 1.37860
2218.45874 1.37991
2216.41030 1.38072
2214.36186 1.38156
2212.31343 1.38251
2210.26499 1.38315
2208.21655 1.38337
2206.16811 1.38370
2204.11967 1.38477
2202.07123 1.38624
2200.02280 1.38728
2197.97436 1.38844
2195.92592 1.39070
2193.87748 1.39343
2191.82904 1.39558
2189.78060 1.39690
2187.73217 1.39783
2185.68373 1.39875
2183.63529 1.39985
2181.58685 1.40108
2179.53841 1.40170
2177.48997 1.40162
2175.44154 1.40162
2173.39310 1.40217
2171.34466 1.40322
2169.29622 1.40474
2167.24778 1.40653
2165.19934 1.40820
2163.15091 1.40989
2161.10247 1.41189
2159.05403 1.41393
2157.00559 1.41570
2154.95715 1.41699
2152.90871 1.41719
2150.86028 1.41625
2148.81184 1.41450
2146.76340 1.41224
2144.71496 1.41021
2142.66652 1.40913
2140.61808 1.40881
2138.56965 1.40877
2136.52121 1.40873
2134.47277 1.40863
2132.42433 1.40893
2130.37589 1.40953
2128.32745 1.40995
2126.27902 1.41031
2124.23058 1.41078
2122.18214 1.41058
2120.13370 1.40942
2118.08526 1.40795
2116.03682 1.40651
2113.98839 1.40488
2111.93995 1.40289
2109.89151 1.40128
2107.84307 1.40028
2105.79463 1.39894
2103.74619 1.39685
2101.69776 1.39465
2099.64932 1.39291
2097.60088 1.39128
2095.55244 1.38921
2093.50400 1.38734
2091.45556 1.38631
2089.40713 1.38589
2087.35869 1.38575
2085.31025 1.38554
2083.26181 1.38528
2081.21337 1.38514
2079.16493 1.38496
2077.11649 1.38497
2075.06806 1.38567
2073.01962 1.38636
2070.97118 1.38686
2068.92274 1.38792
2066.87430 1.38939
2064.82586 1.39078
2062.77743 1.39135
2060.72899 1.39085
2058.68055 1.39011
2056.63211 1.38989
2054.58367 1.39002
2052.53523 1.39007
2050.48680 1.38996
2048.43836 1.39013
2046.38992 1.39127
2044.34148 1.39330
2042.29304 1.39551
2040.24460 1.39733
2038.19617 1.39838
2036.14773 1.39848
2034.09929 1.39800
2032.05085 1.39735
2030.00241 1.39675
2027.95397 1.39658
2025.90554 1.39700
2023.85710 1.39783
2021.80866 1.39907
2019.76022 1.40092
2017.71178 1.40304
2015.66334 1.40414
2013.61491 1.40409
2011.56647 1.40429
2009.51803 1.40520
2007.46959 1.40620
2005.42115 1.40710
2003.37271 1.40828
2001.32428 1.40978
1999.27584 1.41088
1997.22740 1.41126
1995.17896 1.41125
1993.13052 1.41187
1991.08208 1.41361
1989.03365 1.41533
1986.98521 1.41683
1984.93677 1.41866
1982.88833 1.42094
1980.83989 1.42304
1978.79145 1.42434
1976.74302 1.42493
1974.69458 1.42510
1972.64614 1.42504
1970.59770 1.42494
1968.54926 1.42565
1966.50082 1.42706
1964.45239 1.42769
1962.40395 1.42803
1960.35551 1.42926
1958.30707 1.43074
1956.25863 1.43175
1954.21019 1.43217
1952.16176 1.43259
1950.11332 1.43376
1948.06488 1.43563
1946.01644 1.43788
1943.96800 1.44075
1941.91956 1.44341
1939.87112 1.44374
1937.82269 1.44313
1935.77425 1.44318
1933.72581 1.44366
1931.67737 1.44422
1929.62893 1.44476
1927.58049 1.44591
1925.53206 1.44825
1923.48362 1.45159
1921.43518 1.45387
1919.38674 1.45460
1917.33830 1.45541
1915.28986 1.45580
1913.24143 1.45600
1911.19299 1.45749
1909.14455 1.45976
1907.09611 1.46157
1905.04767 1.46251
1902.99923 1.46295
1900.95080 1.46371
1898.90236 1.46501
1896.85392 1.46715
1894.80548 1.47004
1892.75704 1.47236
1890.70860 1.47442
1888.66017 1.47681
1886.61173 1.47779
1884.56329 1.47803
1882.51485 1.47881
1880.46641 1.48030
1878.41797 1.48239
1876.36954 1.48423
1874.32110 1.48611
1872.27266 1.48888
1870.22422 1.49331
1868.17578 1.49864
1866.12734 1.50129
1864.07891 1.50232
1862.03047 1.50472
1859.98203 1.50841
1857.93359 1.51203
1855.88515 1.51474
1853.83671 1.51640
1851.78828 1.51789
1849.73984 1.52044
1847.69140 1.52395
1845.64296 1.52825
1843.59452 1.53403
1841.54608 1.53742
1839.49765 1.53889
1837.44921 1.54163
1835.40077 1.54564
1833.35233 1.55002
1831.30389 1.55549
1829.25545 1.56180
1827.20702 1.56566
1825.15858 1.56877
1823.11014 1.57217
1821.06170 1.57530
1819.01326 1.57982
1816.96482 1.58589
1814.91639 1.59193
1812.86795 1.59837
1810.81951 1.60630
1808.77107 1.61420
1806.72263 1.62154
1804.67419 1.62961
1802.62575 1.63912
1800.57732 1.64776
1798.52888 1.65205
1796.48044 1.65375
1794.43200 1.65630
1792.38356 1.65887
1790.33512 1.65398
1788.28669 1.64451
1786.23825 1.63743
1784.18981 1.63428
1782.14137 1.63284
1780.09293 1.63045
1778.04449 1.62736
1775.99606 1.62696
1773.94762 1.63131
1771.89918 1.63926
1769.85074 1.64493
1767.80230 1.64829
1765.75386 1.65146
1763.70543 1.65517
1761.65699 1.66019
1759.60855 1.66434
1757.56011 1.66844
1755.51167 1.67294
1753.46323 1.67796
1751.41480 1.68746
1749.36636 1.69891
1747.31792 1.70237
1745.26948 1.70207
1743.22104 1.70329
1741.17260 1.70616
1739.12417 1.70986
1737.07573 1.71353
1735.02729 1.72145
1732.97885 1.72759
1730.93041 1.72384
1728.88197 1.72105
1726.83354 1.72169
1724.78510 1.72508
1722.73666 1.72869
1720.68822 1.73331
1718.63978 1.74542
1716.59134 1.76043
1714.54291 1.75643
1712.49447 1.74943
1710.44603 1.74806
1708.39759 1.75256
1706.34915 1.76097
1704.30071 1.76542
1702.25228 1.76750
1700.20384 1.77324
1698.15540 1.77746
1696.10696 1.77424
1694.05852 1.76820
1692.01008 1.76535
1689.96165 1.76847
1687.91321 1.77376
1685.86477 1.78086
1683.81633 1.79167
1681.76789 1.79173
1679.71945 1.78721
1677.67102 1.78415
1675.62258 1.78463
1673.57414 1.78722
1671.52570 1.79198
1669.47726 1.79522
1667.42882 1.79244
1665.38038 1.78866
1663.33195 1.78810
1661.28351 1.78761
1659.23507 1.78602
1657.18663 1.78702
1655.13819 1.79259
1653.08975 1.80078
1651.04132 1.79486
1648.99288 1.79253
1646.94444 1.79003
1644.89600 1.78071
1642.84756 1.77200
1640.79912 1.76807
1638.75069 1.76774
1636.70225 1.76658
1634.65381 1.75564
1632.60537 1.74431
1630.55693 1.73754
1628.50849 1.72958
1626.46006 1.71995
1624.41162 1.70696
1622.36318 1.69152
1620.31474 1.67701
1618.26630 1.66314
1616.21786 1.63828
1614.16943 1.61215
1612.12099 1.59102
1610.07255 1.56661
1608.02411 1.53597
1605.97567 1.50113
1603.92723 1.46322
1601.87880 1.41834
1599.83036 1.36971
1597.78192 1.31701
1595.73348 1.25512
1593.68504 1.18291
1591.63660 1.10610
1589.58817 1.02647
1587.53973 0.95068
1585.49129 0.88804
1583.44285 0.84517
1581.39441 0.82551
1579.34597 0.82527
1577.29754 0.84499
1575.24910 0.88517
1573.20066 0.91467
1571.15222 0.93665
1569.10378 0.95674
1567.05534 0.94820
1565.00691 0.90608
1562.95847 0.85457
1560.91003 0.80401
1558.86159 0.69441
1556.81315 0.60424
1554.76471 0.57034
1552.71628 0.54214
1550.66784 0.51866
1548.61940 0.49942
1546.57096 0.48734
1544.52252 0.48038
1542.47408 0.47443
1540.42565 0.46432
1538.37721 0.45330
1536.32877 0.44809
1534.28033 0.44487
1532.23189 0.44070
1530.18345 0.43706
1528.13501 0.43558
1526.08658 0.43537
1524.03814 0.43482
1521.98970 0.43362
1519.94126 0.43124
1517.89282 0.42902
1515.84438 0.42656
1513.79595 0.42362
1511.74751 0.42252
1509.69907 0.42359
1507.65063 0.42503
1505.60219 0.42121
1503.55375 0.41741
1501.50532 0.41582
1499.45688 0.41594
1497.40844 0.41669
1495.36000 0.41538
1493.31156 0.41380
1491.26312 0.41482
1489.21469 0.41745
1487.16625 0.41584
1485.11781 0.41262
1483.06937 0.41112
1481.02093 0.41104
1478.97249 0.41129
1476.92406 0.41257
1474.87562 0.41567
1472.82718 0.41860
1470.77874 0.41794
1468.73030 0.41700
1466.68186 0.41980
1464.63343 0.42784
1462.58499 0.43736
1460.53655 0.44886
1458.48811 0.48067
1456.43967 0.55557
1454.39123 0.60579
1452.34280 0.63279
1450.29436 0.65996
1448.24592 0.69000
1446.19748 0.71820
1444.14904 0.73984
1442.10060 0.75888
1440.05217 0.77663
1438.00373 0.79528
1435.95529 0.81874
1433.90685 0.83515
1431.85841 0.84692
1429.80997 0.86074
1427.76154 0.87304
1425.71310 0.88289
1423.66466 0.89280
1421.61622 0.90173
1419.56778 0.91281
1417.51934 0.92631
1415.47091 0.93398
1413.42247 0.94087
1411.37403 0.94956
1409.32559 0.95839
1407.27715 0.96657
1405.22871 0.97599
1403.18028 0.98460
1401.13184 0.99194
1399.08340 1.00137
1397.03496 1.01101
1394.98652 1.01836
1392.93808 1.02268
1390.88965 1.02577
1388.84121 1.03065
1386.79277 1.03761
1384.74433 1.04254
1382.69589 1.04681
1380.64745 1.05225
1378.59901 1.05817
1376.55058 1.06424
1374.50214 1.07075
1372.45370 1.07559
1370.40526 1.07862
1368.35682 1.08237
1366.30838 1.08630
1364.25995 1.09156
1362.21151 1.09791
1360.16307 1.10197
1358.11463 1.10447
1356.06619 1.10782
1354.01775 1.11174
1351.96932 1.11551
1349.92088 1.11922
1347.87244 1.12256
1345.82400 1.12591
1343.77556 1.12970
1341.72712 1.13503
1339.67869 1.14118
1337.63025 1.14493
1335.58181 1.14627
1333.53337 1.14818
1331.48493 1.15086
1329.43649 1.15367
1327.38806 1.15643
1325.33962 1.15914
1323.29118 1.16224
1321.24274 1.16585
1319.19430 1.16979
1317.14586 1.17297
1315.09743 1.17571
1313.04899 1.17821
1311.00055 1.18038
1308.95211 1.18278
1306.90367 1.18547
1304.85523 1.18767
1302.80680 1.18984
1300.75836 1.19251
1298.70992 1.19511
1296.66148 1.19739
1294.61304 1.19942
1292.56460 1.20187
1290.51617 1.20455
1288.46773 1.20704
1286.41929 1.20908
1284.37085 1.21087
1282.32241 1.21270
1280.27397 1.21465
1278.22554 1.21660
1276.17710 1.21835
1274.12866 1.22013
1272.08022 1.22215
1270.03178 1.22426
1267.98334 1.22591
1265.93491 1.22718
1263.88647 1.22820
1261.83803 1.22971
1259.78959 1.23200
1257.74115 1.23431
1255.69271 1.23621
1253.64428 1.23793
1251.59584 1.23976
1249.54740 1.24188
1247.49896 1.24446
1245.45052 1.24671
1243.40208 1.24806
1241.35364 1.24894
1239.30521 1.25027
1237.25677 1.25198
1235.20833 1.25346
1233.15989 1.25463
1231.11145 1.25597
1229.06301 1.25770
1227.01458 1.25950
1224.96614 1.26134
1222.91770 1.26331
1220.86926 1.26534
1218.82082 1.26731
1216.77238 1.26937
1214.72395 1.27152
1212.67551 1.27309
1210.62707 1.27337
1208.57863 1.27347
1206.53019 1.27473
1204.48175 1.27689
1202.43332 1.27905
1200.38488 1.28057
1198.33644 1.28147
1196.28800 1.28230
1194.23956 1.28359
1192.19112 1.28540
1190.14269 1.28735
1188.09425 1.28879
1186.04581 1.28946
1183.99737 1.28966
1181.94893 1.28973
1179.90049 1.28993
1177.85206 1.29061
1175.80362 1.29179
1173.75518 1.29300
1171.70674 1.29399
1169.65830 1.29467
1167.60986 1.29503
1165.56143 1.29531
1163.51299 1.29595
1161.46455 1.29712
1159.41611 1.29823
1157.36767 1.29869
1155.31923 1.29851
1153.27080 1.29793
1151.22236 1.29775
1149.17392 1.29894
1147.12548 1.30122
1145.07704 1.30340
1143.02860 1.30437
1140.98017 1.30409
1138.93173 1.30365
1136.88329 1.30405
1134.83485 1.30525
1132.78641 1.30673
1130.73797 1.30799
1128.68954 1.30838
1126.64110 1.30769
1124.59266 1.30668
1122.54422 1.30661
1120.49578 1.30797
1118.44734 1.31062
1116.39891 1.31358
1114.35047 1.31583
1112.30203 1.31719
1110.25359 1.31761
1108.20515 1.31767
1106.15671 1.31858
1104.10827 1.32135
1102.05984 1.32563
1100.01140 1.33054
1097.96296 1.33545
1095.91452 1.34018
1093.86608 1.34544
1091.81764 1.35395
1089.76921 1.36930
1087.72077 1.38602
1085.67233 1.35561
1083.62389 1.27503
1081.57545 1.23695
1079.52701 1.26258
1077.47858 1.29498
1075.43014 1.30861
1073.38170 1.31475
1071.33326 1.31882
1069.28482 1.32194
1067.23638 1.32373
1065.18795 1.32504
1063.13951 1.32739
1061.09107 1.33125
1059.04263 1.33385
1056.99419 1.33366
1054.94575 1.33281
1052.89732 1.33351
1050.84888 1.33514
1048.80044 1.33741
1046.75200 1.34037
1044.70356 1.34345
1042.65512 1.34542
1040.60669 1.34606
1038.55825 1.34597
1036.50981 1.34554
1034.46137 1.34601
1032.41293 1.34833
1030.36449 1.35226
1028.31606 1.35627
1026.26762 1.35966
1024.21918 1.36172
1022.17074 1.36203
1020.12230 1.36122
1018.07386 1.36058
1016.02543 1.36106
1013.97699 1.36350
1011.92855 1.36785
1009.88011 1.37282
1007.83167 1.37731
1005.78323 1.38037
1003.73480 1.38187
1001.68636 1.38204
999.63792 1.38177
997.58948 1.38209
995.54104 1.38390
993.49260 1.38810
991.44417 1.39453
989.39573 1.40115
987.34729 1.40570
985.29885 1.40741
983.25041 1.40669
981.20197 1.40512
979.15354 1.40425
977.10510 1.40556
975.05666 1.40948
973.00822 1.41540
970.95978 1.42230
968.91134 1.42838
966.86290 1.43165
964.81447 1.43198
962.76603 1.43047
960.71759 1.42820
958.66915 1.42753
956.62071 1.43032
954.57227 1.43624
952.52384 1.44395
950.47540 1.45208
948.42696 1.45816
946.37852 1.46047
944.33008 1.45971
942.28164 1.45811
940.23321 1.45811
938.18477 1.46090
936.13633 1.46613
934.08789 1.47334
932.03945 1.48189
929.99101 1.49027
927.94258 1.49700
925.89414 1.50046
923.84570 1.50058
921.79726 1.49946
919.74882 1.50008
917.70038 1.50464
915.65195 1.51364
913.60351 1.52606
911.55507 1.53805
909.50663 1.54328
907.45819 1.54412
905.40975 1.54849
903.36132 1.55347
901.31288 1.55304
899.26444 1.54879
897.21600 1.54491
895.16756 1.54271
893.11912 1.53991
891.07069 1.53148
889.02225 1.51170
886.97381 1.47382
884.92537 1.40663
882.87693 1.29072
880.82849 1.10556
878.78006 0.88450
876.73162 0.70305
874.68318 0.59534
872.63474 0.54586
870.58630 0.52456
868.53786 0.51313
866.48943 0.50577
864.44099 0.50095
862.39255 0.49800
860.34411 0.49685
858.29567 0.49842
856.24723 0.50807
854.19880 0.54349
852.15036 0.62562
850.10192 0.74720
848.05348 0.86707
846.00504 0.94490
843.95660 0.97236
841.90817 0.98850
839.85973 1.02295
837.81129 1.06175
835.76285 1.09217
833.71441 1.11648
831.66597 1.13744
829.61753 1.15678
827.56910 1.17478
825.52066 1.19016
823.47222 1.20250
821.42378 1.21277
819.37534 1.22220
817.32690 1.23086
815.27847 1.23886
813.23003 1.24740
811.18159 1.25661
809.13315 1.26673
807.08471 1.27611
805.03627 1.28251
802.98784 1.28724
800.93940 1.29159
798.89096 1.29510
796.84252 1.29934
794.79408 1.30474
792.74564 1.30962
790.69721 1.31409
788.64877 1.31967
786.60033 1.32685
784.55189 1.33363
782.50345 1.33765
780.45501 1.33856
778.40658 1.33891
776.35814 1.34247
774.30970 1.34914
772.26126 1.35465
770.21282 1.35678
768.16438 1.35766
766.11595 1.36116
764.06751 1.36747
762.01907 1.37304
759.97063 1.37559
757.92219 1.37647
755.87375 1.37816
753.82532 1.38118
751.77688 1.38626
749.72844 1.39286
747.68000 1.39798
745.63156 1.40081
743.58312 1.40297
741.53469 1.40603
739.48625 1.41230
737.43781 1.42066
735.38937 1.42733
733.34093 1.43232
731.29249 1.44087
729.24406 1.45492
727.19562 1.47010
725.14718 1.48345
723.09874 1.50025
721.05030 1.52847
719.00186 1.55786
716.95343 1.48183
714.90499 1.27965
712.85655 1.15396
710.80811 1.17664
708.75967 1.27217
706.71123 1.34222
704.66280 1.37937
702.61436 1.39077
700.56592 1.37247
698.51748 1.35549
696.46904 1.36268
694.42060 1.37917
692.37216 1.39415
690.32373 1.40733
688.27529 1.41621
686.22685 1.42062
684.17841 1.42531
682.12997 1.43406
680.08153 1.44194
678.03310 1.44420
675.98466 1.44295
673.93622 1.43857
671.88778 1.43574
669.83934 1.44747
667.79090 1.46742
665.74247 1.47003
663.69403 1.47054
661.64559 1.47321
659.59715 1.47287
657.54871 1.47137
655.50027 1.46758
653.45184 1.46465
651.40340 1.46981
649.35496 1.47839
647.30652 1.48591
645.25808 1.49310
643.20964 1.49893
641.16121 1.49866
639.11277 1.49679
637.06433 1.49939
635.01589 1.50408
632.96745 1.50548
630.91901 1.50530
628.87058 1.50909
626.82214 1.51665
624.77370 1.52805
622.72526 1.54110
620.67682 1.55316
618.62838 1.55898
616.57995 1.55912
614.53151 1.55663
612.48307 1.54942
610.43463 1.53553
608.38619 1.52481
606.33775 1.54364
604.28932 1.58373
602.24088 1.60848
600.19244 1.63339
598.14400 1.66909
