3996.50324 1.91499
3994.45480 1.91515
3992.40636 1.91667
3990.35792 1.91989
3988.30948 1.92379
3986.26104 1.92540
3984.21261 1.92554
3982.16417 1.92821
3980.11573 1.93176
3978.06729 1.93198
3976.01885 1.93084
3973.97041 1.92984
3971.92198 1.92822
3969.87354 1.92843
3967.82510 1.93021
3965.77666 1.93073
3963.72822 1.93117
3961.67978 1.93235
3959.63135 1.92976
3957.58291 1.92436
3955.53447 1.92097
3953.48603 1.91715
3951.43759 1.91310
3949.38915 1.91497
3947.34072 1.91907
3945.29228 1.91580
3943.24384 1.91349
3941.19540 1.91790
3939.14696 1.91747
3937.09852 1.91232
3935.05009 1.90740
3933.00165 1.90574
3930.95321 1.90990
3928.90477 1.91066
3926.85633 1.90524
3924.80789 1.90457
3922.75946 1.90731
3920.71102 1.90023
3918.66258 1.89207
3916.61414 1.89732
3914.56570 1.90354
3912.51726 1.89868
3910.46883 1.88964
3908.42039 1.87969
3906.37195 1.86964
3904.32351 1.87246
3902.27507 1.89070
3900.22663 1.90426
3898.17820 1.90834
3896.12976 1.89919
3894.08132 1.88192
3892.03288 1.87810
3889.98444 1.88705
3887.93600 1.88001
3885.88756 1.87149
3883.83913 1.87358
3881.79069 1.87052
3879.74225 1.87437
3877.69381 1.87317
3875.64537 1.85916
3873.59693 1.85478
3871.54850 1.86204
3869.50006 1.87637
3867.45162 1.87870
3865.40318 1.86616
3863.35474 1.86850
3861.30630 1.87447
3859.25787 1.86381
3857.20943 1.84402
3855.16099 1.82842
3853.11255 1.86126
3851.06411 1.89983
3849.01567 1.88776
3846.96724 1.86484
3844.91880 1.85032
3842.87036 1.84670
3840.82192 1.84365
3838.77348 1.84733
3836.72504 1.86587
3834.67661 1.87301
3832.62817 1.86952
3830.57973 1.86591
3828.53129 1.85947
3826.48285 1.85467
3824.43441 1.84777
3822.38598 1.83638
3820.33754 1.84980
3818.28910 1.86329
3816.24066 1.86606
3814.19222 1.87545
3812.14378 1.86820
3810.09535 1.84943
3808.04691 1.84009
3805.99847 1.85033
3803.95003 1.85275
3801.90159 1.85616
3799.85315 1.87372
3797.80472 1.87156
3795.75628 1.86809
3793.70784 1.86662
3791.65940 1.85852
3789.61096 1.85343
3787.56252 1.85247
3785.51409 1.85485
3783.46565 1.85852
3781.41721 1.85536
3779.36877 1.85732
3777.32033 1.86641
3775.27189 1.86420
3773.22346 1.85558
3771.17502 1.85409
3769.12658 1.86358
3767.07814 1.86892
3765.02970 1.87155
3762.98126 1.87133
3760.93283 1.86359
3758.88439 1.86516
3756.83595 1.87036
3754.78751 1.85779
3752.73907 1.84002
3750.69063 1.86004
3748.64219 1.89687
3746.59376 1.88958
3744.54532 1.88447
3742.49688 1.89947
3740.44844 1.89257
3738.40000 1.87299
3736.35156 1.87269
3734.30313 1.90378
3732.25469 1.92214
3730.20625 1.91498
3728.15781 1.89941
3726.10937 1.89465
3724.06093 1.90546
3722.01250 1.91407
3719.96406 1.91501
3717.91562 1.90977
3715.86718 1.89857
3713.81874 1.88540
3711.77030 1.89411
3709.72187 1.93043
3707.67343 1.94239
3705.62499 1.93534
3703.57655 1.93172
3701.52811 1.94747
3699.47967 1.96579
3697.43124 1.96850
3695.38280 1.96650
3693.33436 1.96450
3691.28592 1.97003
3689.23748 2.00079
3687.18904 2.02358
3685.14061 2.01739
3683.09217 2.00400
3681.04373 1.99121
3678.99529 1.97575
3676.94685 1.96241
3674.89841 1.98145
3672.84998 1.99327
3670.80154 1.98467
3668.75310 1.99775
3666.70466 2.00360
3664.65622 1.99414
3662.60778 1.98869
3660.55935 1.98679
3658.51091 1.98239
3656.46247 1.98515
3654.41403 1.99049
3652.36559 1.97907
3650.31715 1.97721
3648.26872 2.03001
3646.22028 2.05671
3644.17184 2.04273
3642.12340 2.02769
3640.07496 2.02327
3638.02652 2.02393
3635.97809 2.02573
3633.92965 2.02747
3631.88121 2.01920
3629.83277 2.01599
3627.78433 2.05766
3625.73589 2.07866
3623.68746 2.06466
3621.63902 2.04961
3619.59058 2.05039
3617.54214 2.06478
3615.49370 2.06922
3613.44526 2.07057
3611.39682 2.07383
3609.34839 2.07632
3607.29995 2.08782
3605.25151 2.09394
3603.20307 2.08828
3601.15463 2.09103
3599.10619 2.10699
3597.05776 2.11732
3595.00932 2.11859
3592.96088 2.11762
3590.91244 2.10944
3588.86400 2.10163
3586.81556 2.11794
3584.76713 2.13212
3582.71869 2.12362
3580.67025 2.11291
3578.62181 2.10938
3576.57337 2.11158
3574.52493 2.11902
3572.47650 2.12475
3570.42806 2.12168
3568.37962 2.12222
3566.33118 2.14263
3564.28274 2.15439
3562.23430 2.14775
3560.18587 2.14210
3558.13743 2.14121
3556.08899 2.13825
3554.04055 2.13545
3551.99211 2.13970
3549.94367 2.14281
3547.89524 2.13938
3545.84680 2.14226
3543.79836 2.15245
3541.74992 2.15595
3539.70148 2.15236
3537.65304 2.15060
3535.60461 2.15536
3533.55617 2.15857
3531.50773 2.15406
3529.45929 2.15051
3527.41085 2.15699
3525.36241 2.16582
3523.31398 2.17082
3521.26554 2.17473
3519.21710 2.17569
3517.16866 2.17392
3515.12022 2.17216
3513.07178 2.17063
3511.02335 2.17067
3508.97491 2.17302
3506.92647 2.17461
3504.87803 2.17802
3502.82959 2.18724
3500.78115 2.19230
3498.73272 2.18864
3496.68428 2.18740
3494.63584 2.19294
3492.58740 2.19547
3490.53896 2.19103
3488.49052 2.18707
3486.44209 2.18697
3484.39365 2.18795
3482.34521 2.19089
3480.29677 2.19688
3478.24833 2.20119
3476.19989 2.20332
3474.15146 2.20596
3472.10302 2.20651
3470.05458 2.20593
3468.00614 2.20888
3465.95770 2.21036
3463.90926 2.20635
3461.86082 2.20377
3459.81239 2.20687
3457.76395 2.21090
3455.71551 2.20941
3453.66707 2.20542
3451.61863 2.20490
3449.57019 2.20812
3447.52176 2.21416
3445.47332 2.21649
3443.42488 2.21326
3441.37644 2.21351
3439.32800 2.21802
3437.27956 2.22007
3435.23113 2.21764
3433.18269 2.21593
3431.13425 2.21810
3429.08581 2.21786
3427.03737 2.21386
3424.98893 2.21266
3422.94050 2.21564
3420.89206 2.21830
3418.84362 2.21695
3416.79518 2.21510
3414.74674 2.21644
3412.69830 2.21718
3410.64987 2.21465
3408.60143 2.21360
3406.55299 2.21597
3404.50455 2.21859
3402.45611 2.22226
3400.40767 2.22541
3398.35924 2.22440
3396.31080 2.22272
3394.26236 2.22257
3392.21392 2.22163
3390.16548 2.21923
3388.11704 2.21795
3386.06861 2.21919
3384.02017 2.22233
3381.97173 2.22373
3379.92329 2.22052
3377.87485 2.22128
3375.82641 2.22801
3373.77798 2.22994
3371.72954 2.22697
3369.68110 2.22446
3367.63266 2.22401
3365.58422 2.22741
3363.53578 2.23073
3361.48735 2.23061
3359.43891 2.22967
3357.39047 2.22820
3355.34203 2.22816
3353.29359 2.23240
3351.24515 2.23619
3349.19672 2.23294
3347.14828 2.22678
3345.09984 2.22484
3343.05140 2.22494
3341.00296 2.22511
3338.95452 2.22754
3336.90609 2.23079
3334.85765 2.23001
3332.80921 2.22684
3330.76077 2.22665
3328.71233 2.22895
3326.66389 2.23122
3324.61545 2.23146
3322.56702 2.23025
3320.51858 2.22846
3318.47014 2.22688
3316.42170 2.22808
3314.37326 2.23068
3312.32482 2.23234
3310.27639 2.23241
3308.22795 2.23247
3306.17951 2.23490
3304.13107 2.23776
3302.08263 2.23800
3300.03419 2.23494
3297.98576 2.23111
3295.93732 2.22949
3293.88888 2.22924
3291.84044 2.22731
3289.79200 2.22598
3287.74356 2.22912
3285.69513 2.23266
3283.64669 2.23262
3281.59825 2.23116
3279.54981 2.23106
3277.50137 2.23341
3275.45293 2.23676
3273.40450 2.23637
3271.35606 2.23179
3269.30762 2.22891
3267.25918 2.22858
3265.21074 2.22698
3263.16230 2.22528
3261.11387 2.22759
3259.06543 2.23167
3257.01699 2.23241
3254.96855 2.23334
3252.92011 2.23695
3250.87167 2.23552
3248.82324 2.22893
3246.77480 2.22645
3244.72636 2.22899
3242.67792 2.23104
3240.62948 2.23067
3238.58104 2.23010
3236.53261 2.23164
3234.48417 2.23356
3232.43573 2.23343
3230.38729 2.23285
3228.33885 2.23407
3226.29041 2.23486
3224.24198 2.23193
3222.19354 2.22775
3220.14510 2.22518
3218.09666 2.22214
3216.04822 2.21892
3213.99978 2.21857
3211.95135 2.22217
3209.90291 2.22768
3207.85447 2.22992
3205.80603 2.22690
3203.75759 2.22205
3201.70915 2.22085
3199.66072 2.22324
3197.61228 2.22076
3195.56384 2.21267
3193.51540 2.20821
3191.46696 2.21174
3189.41852 2.21793
3187.37008 2.21896
3185.32165 2.21773
3183.27321 2.21936
3181.22477 2.21889
3179.17633 2.21401
3177.12789 2.21030
3175.07945 2.20936
3173.03102 2.20831
3170.98258 2.20794
3168.93414 2.20899
3166.88570 2.20790
3164.83726 2.20486
3162.78882 2.20488
3160.74039 2.20700
3158.69195 2.20632
3156.64351 2.20373
3154.59507 2.20172
3152.54663 2.19974
3150.49819 2.19836
3148.44976 2.19863
3146.40132 2.19897
3144.35288 2.19781
3142.30444 2.19647
3140.25600 2.19664
3138.20756 2.19811
3136.15913 2.19877
3134.11069 2.19697
3132.06225 2.19527
3130.01381 2.19481
3127.96537 2.19421
3125.91693 2.19396
3123.86850 2.19260
3121.82006 2.18972
3119.77162 2.18815
3117.72318 2.18786
3115.67474 2.18721
3113.62630 2.18744
3111.57787 2.18818
3109.52943 2.18670
3107.48099 2.18361
3105.43255 2.18074
3103.38411 2.18018
3101.33567 2.18421
3099.28724 2.18826
3097.23880 2.18599
3095.19036 2.18188
3093.14192 2.18160
3091.09348 2.18226
3089.04504 2.18235
3086.99661 2.18283
3084.94817 2.18024
3082.89973 2.17576
3080.85129 2.17515
3078.80285 2.17609
3076.75441 2.17516
3074.70598 2.17482
3072.65754 2.17535
3070.60910 2.17465
3068.56066 2.17397
3066.51222 2.17506
3064.46378 2.17518
3062.41535 2.17308
3060.36691 2.17192
3058.31847 2.17160
3056.27003 2.17177
3054.22159 2.17405
3052.17315 2.17602
3050.12471 2.17675
3048.07628 2.17838
3046.02784 2.17997
3043.97940 2.17965
3041.93096 2.18050
3039.88252 2.18548
3037.83408 2.18858
3035.78565 2.18839
3033.73721 2.19113
3031.68877 2.19292
3029.64033 2.18976
3027.59189 2.18653
3025.54345 2.18556
3023.49502 2.18549
3021.44658 2.18489
3019.39814 2.18634
3017.34970 2.19112
3015.30126 2.19466
3013.25282 2.19567
3011.20439 2.19678
3009.15595 2.19786
3007.10751 2.19764
3005.05907 2.19751
3003.01063 2.20008
3000.96219 2.20589
2998.91376 2.21060
2996.86532 2.21000
2994.81688 2.20727
2992.76844 2.20707
2990.72000 2.20741
2988.67156 2.20587
2986.62313 2.20531
2984.57469 2.20535
2982.52625 2.20493
2980.47781 2.20662
2978.42937 2.20819
2976.38093 2.20757
2974.33250 2.20687
2972.28406 2.20513
2970.23562 2.20160
2968.18718 2.19971
2966.13874 2.20156
2964.09030 2.20318
2962.04187 2.20145
2959.99343 2.19909
2957.94499 2.19659
2955.89655 2.19333
2953.84811 2.19126
2951.79967 2.19176
2949.75124 2.19420
2947.70280 2.19668
2945.65436 2.19749
2943.60592 2.19570
2941.55748 2.19461
2939.50904 2.19769
2937.46061 2.20118
2935.41217 2.20096
2933.36373 2.19895
2931.31529 2.19833
2929.26685 2.20109
2927.21841 2.20597
2925.16998 2.20848
2923.12154 2.20859
2921.07310 2.20914
2919.02466 2.20944
2916.97622 2.20730
2914.92778 2.20186
2912.87934 2.19654
2910.83091 2.19431
2908.78247 2.19180
2906.73403 2.18678
2904.68559 2.18212
2902.63715 2.18063
2900.58871 2.18026
2898.54028 2.17809
2896.49184 2.17562
2894.44340 2.17243
2892.39496 2.16649
2890.34652 2.15987
2888.29808 2.15592
2886.24965 2.15377
2884.20121 2.15193
2882.15277 2.15316
2880.10433 2.15677
2878.05589 2.15588
2876.00745 2.15008
2873.95902 2.14673
2871.91058 2.14685
2869.86214 2.14734
2867.81370 2.14811
2865.76526 2.14874
2863.71682 2.14934
2861.66839 2.15036
2859.61995 2.15065
2857.57151 2.15196
2855.52307 2.15702
2853.47463 2.16188
2851.42619 2.16201
2849.37776 2.15936
2847.32932 2.15484
2845.28088 2.14620
2843.23244 2.13597
2841.18400 2.12808
2839.13556 2.12060
2837.08713 2.11220
2835.03869 2.10491
2832.99025 2.09930
2830.94181 2.09440
2828.89337 2.08892
2826.84493 2.08380
2824.79650 2.08204
2822.74806 2.08132
2820.69962 2.07673
2818.65118 2.07036
2816.60274 2.06591
2814.55430 2.06259
2812.50587 2.05852
2810.45743 2.05414
2808.40899 2.05277
2806.36055 2.05449
2804.31211 2.05453
2802.26367 2.05228
2800.21524 2.05012
2798.16680 2.04655
2796.11836 2.04285
2794.06992 2.04188
2792.02148 2.04170
2789.97304 2.04016
2787.92461 2.03764
2785.87617 2.03611
2783.82773 2.03588
2781.77929 2.03549
2779.73085 2.03491
2777.68241 2.03416
2775.63397 2.03297
2773.58554 2.03244
2771.53710 2.03319
2769.48866 2.03352
2767.44022 2.03235
2765.39178 2.03032
2763.34334 2.02810
2761.29491 2.02687
2759.24647 2.02646
2757.19803 2.02514
2755.14959 2.02349
2753.10115 2.02355
2751.05271 2.02454
2749.00428 2.02461
2746.95584 2.02430
2744.90740 2.02414
2742.85896 2.02445
2740.81052 2.02465
2738.76208 2.02267
2736.71365 2.01956
2734.66521 2.01849
2732.61677 2.01911
2730.56833 2.01876
2728.51989 2.01789
2726.47145 2.01679
2724.42302 2.01517
2722.37458 2.01528
2720.32614 2.01719
2718.27770 2.01912
2716.22926 2.01949
2714.18082 2.01801
2712.13239 2.01636
2710.08395 2.01471
2708.03551 2.01280
2705.98707 2.01242
2703.93863 2.01464
2701.89019 2.01821
2699.84176 2.02009
2697.79332 2.01981
2695.74488 2.02052
2693.69644 2.02237
2691.64800 2.02281
2689.59956 2.02177
2687.55113 2.02174
2685.50269 2.02338
2683.45425 2.02490
2681.40581 2.02687
2679.35737 2.03013
2677.30893 2.03249
2675.26050 2.03425
2673.21206 2.03831
2671.16362 2.04484
2669.11518 2.05179
2667.06674 2.05768
2665.01830 2.06359
2662.96987 2.07121
2660.92143 2.08036
2658.87299 2.08902
2656.82455 2.09524
2654.77611 2.10068
2652.72767 2.10677
2650.67924 2.11132
2648.63080 2.11260
2646.58236 2.11240
2644.53392 2.11311
2642.48548 2.11569
2640.43704 2.11944
2638.38860 2.12102
2636.34017 2.12088
2634.29173 2.12308
2632.24329 2.12717
2630.19485 2.12963
2628.14641 2.12865
2626.09797 2.12524
2624.04954 2.12141
2622.00110 2.11950
2619.95266 2.12054
2617.90422 2.12269
2615.85578 2.12423
2613.80734 2.12395
2611.75891 2.12204
2609.71047 2.12001
2607.66203 2.11840
2605.61359 2.11785
2603.56515 2.11933
2601.51671 2.12145
2599.46828 2.12144
2597.41984 2.12039
2595.37140 2.11961
2593.32296 2.11889
2591.27452 2.11959
2589.22608 2.12095
2587.17765 2.12190
2585.12921 2.12218
2583.08077 2.12129
2581.03233 2.12138
2578.98389 2.12310
2576.93545 2.12463
2574.88702 2.12651
2572.83858 2.12949
2570.79014 2.13322
2568.74170 2.13799
2566.69326 2.14253
2564.64482 2.14519
2562.59639 2.14702
2560.54795 2.14839
2558.49951 2.14981
2556.45107 2.15376
2554.40263 2.15999
2552.35419 2.16468
2550.30576 2.16546
2548.25732 2.16386
2546.20888 2.16170
2544.16044 2.15856
2542.11200 2.15451
2540.06356 2.15349
2538.01513 2.15823
2535.96669 2.16596
2533.91825 2.17393
2531.86981 2.18140
2529.82137 2.18762
2527.77293 2.19200
2525.72450 2.19326
2523.67606 2.19092
2521.62762 2.18736
2519.57918 2.18379
2517.53074 2.17819
2515.48230 2.17063
2513.43387 2.16541
2511.38543 2.16440
2509.33699 2.16493
2507.28855 2.16693
2505.24011 2.17192
2503.19167 2.17743
2501.14324 2.17947
2499.09480 2.17851
2497.04636 2.17643
2494.99792 2.17277
2492.94948 2.16692
2490.90104 2.15984
2488.85260 2.15431
2486.80417 2.14912
2484.75573 2.14124
2482.70729 2.13240
2480.65885 2.12452
2478.61041 2.11593
2476.56197 2.10573
2474.51354 2.09582
2472.46510 2.08769
2470.41666 2.08078
2468.36822 2.07373
2466.31978 2.06712
2464.27134 2.06185
2462.22291 2.05680
2460.17447 2.05078
2458.12603 2.04371
2456.07759 2.03799
2454.02915 2.03452
2451.98071 2.02993
2449.93228 2.02439
2447.88384 2.02106
2445.83540 2.01932
2443.78696 2.01730
2441.73852 2.01555
2439.69008 2.01530
2437.64165 2.01604
2435.59321 2.01545
2433.54477 2.01241
2431.49633 2.00929
2429.44789 2.00742
2427.39945 2.00512
2425.35102 2.00231
2423.30258 2.00042
2421.25414 1.99946
2419.20570 1.99911
2417.15726 1.99917
2415.10882 1.99860
2413.06039 1.99779
2411.01195 1.99816
2408.96351 1.99963
2406.91507 2.00084
2404.86663 2.00084
2402.81819 2.00107
2400.76976 2.00190
2398.72132 2.00164
2396.67288 2.00130
2394.62444 2.00238
2392.57600 2.00419
2390.52756 2.00590
2388.47913 2.00698
2386.43069 2.00735
2384.38225 2.00752
2382.33381 2.00854
2380.28537 2.01115
2378.23693 2.01625
2376.18850 2.02364
2374.14006 2.02768
2372.09162 2.02728
2370.04318 2.03096
2367.99474 2.04006
2365.94630 2.05326
2363.89787 2.06682
2361.84943 2.06752
2359.80099 2.05994
2357.75255 2.06232
2355.70411 2.07130
2353.65567 2.07763
2351.60723 2.08079
2349.55880 2.07524
2347.51036 2.06456
2345.46192 2.05988
2343.41348 2.06315
2341.36504 2.06163
2339.31660 2.06128
2337.26817 2.06767
2335.21973 2.07153
2333.17129 2.07172
2331.12285 2.06985
2329.07441 2.06492
2327.02597 2.05944
2324.97754 2.05768
2322.92910 2.05903
2320.88066 2.05502
2318.83222 2.04411
2316.78378 2.03498
2314.73534 2.02996
2312.68691 2.02529
2310.63847 2.02044
2308.59003 2.01599
2306.54159 2.01138
2304.49315 2.00652
2302.44471 2.00191
2300.39628 1.99750
2298.34784 1.99261
2296.29940 1.98754
2294.25096 1.98278
2292.20252 1.97773
2290.15408 1.97292
2288.10565 1.97074
2286.05721 1.97037
2284.00877 1.96899
2281.96033 1.96738
2279.91189 1.96780
2277.86345 1.96979
2275.81502 1.97094
2273.76658 1.97076
2271.71814 1.97066
2269.66970 1.97143
2267.62126 1.97328
2265.57282 1.97592
2263.52439 1.97737
2261.47595 1.97792
2259.42751 1.98031
2257.37907 1.98371
2255.33063 1.98604
2253.28219 1.98675
2251.23376 1.98616
2249.18532 1.98658
2247.13688 1.98842
2245.08844 1.98913
2243.04000 1.98827
2240.99156 1.98629
2238.94313 1.98380
2236.89469 1.98188
2234.84625 1.98105
2232.79781 1.98200
2230.74937 1.98364
2228.70093 1.98444
2226.65250 1.98456
2224.60406 1.98533
2222.55562 1.98719
2220.50718 1.98914
2218.45874 1.99116
2216.41030 1.99302
2214.36186 1.99415
2212.31343 1.99416
2210.26499 1.99345
2208.21655 1.99518
2206.16811 2.00004
2204.11967 2.00465
2202.07123 2.00731
2200.02280 2.00873
2197.97436 2.01050
2195.92592 2.01327
2193.87748 2.01581
2191.82904 2.01756
2189.78060 2.02045
2187.73217 2.02525
2185.68373 2.02905
2183.63529 2.03161
2181.58685 2.03472
2179.53841 2.03660
2177.48997 2.03648
2175.44154 2.03647
2173.39310 2.03773
2171.34466 2.04007
2169.29622 2.04300
2167.24778 2.04556
2165.19934 2.04691
2163.15091 2.04838
2161.10247 2.05252
2159.05403 2.05811
2157.00559 2.06170
2154.95715 2.06413
2152.90871 2.06647
2150.86028 2.06542
2148.81184 2.05997
2146.76340 2.05288
2144.71496 2.04629
2142.66652 2.04240
2140.61808 2.04320
2138.56965 2.04651
2136.52121 2.04714
2134.47277 2.04404
2132.42433 2.04101
2130.37589 2.04032
2128.32745 2.04038
2126.27902 2.03945
2124.23058 2.03808
2122.18214 2.03660
2120.13370 2.03460
2118.08526 2.03293
2116.03682 2.03164
2113.98839 2.02877
2111.93995 2.02417
2109.89151 2.01893
2107.84307 2.01204
2105.79463 2.00251
2103.74619 1.99296
2101.69776 1.98636
2099.64932 1.98201
2097.60088 1.97741
2095.55244 1.97148
2093.50400 1.96658
2091.45556 1.96521
2089.40713 1.96606
2087.35869 1.96627
2085.31025 1.96472
2083.26181 1.96226
2081.21337 1.96097
2079.16493 1.96154
2077.11649 1.96323
2075.06806 1.96552
2073.01962 1.96683
2070.97118 1.96644
2068.92274 1.96585
2066.87430 1.96610
2064.82586 1.96681
2062.77743 1.96722
2060.72899 1.96761
2058.68055 1.96886
2056.63211 1.97069
2054.58367 1.97255
2052.53523 1.97411
2050.48680 1.97445
2048.43836 1.97404
2046.38992 1.97452
2044.34148 1.97535
2042.29304 1.97551
2040.24460 1.97623
2038.19617 1.97834
2036.14773 1.98001
2034.09929 1.97988
2032.05085 1.97941
2030.00241 1.97862
2027.95397 1.97749
2025.90554 1.97759
2023.85710 1.97817
2021.80866 1.97855
2019.76022 1.97914
2017.71178 1.98076
2015.66334 1.98329
2013.61491 1.98456
2011.56647 1.98473
2009.51803 1.98566
2007.46959 1.98736
2005.42115 1.98809
2003.37271 1.98700
2001.32428 1.98625
1999.27584 1.98761
1997.22740 1.98947
1995.17896 1.99054
1993.13052 1.99290
1991.08208 1.99721
1989.03365 2.00080
1986.98521 2.00406
1984.93677 2.00655
1982.88833 2.00714
1980.83989 2.00716
1978.79145 2.00803
1976.74302 2.00959
1974.69458 2.00974
1972.64614 2.00829
1970.59770 2.00679
1968.54926 2.00798
1966.50082 2.01255
1964.45239 2.01504
1962.40395 2.01483
1960.35551 2.01586
1958.30707 2.01710
1956.25863 2.01769
1954.21019 2.01934
1952.16176 2.02069
1950.11332 2.02035
1948.06488 2.01990
1946.01644 2.02081
1943.96800 2.02453
1941.91956 2.03166
1939.87112 2.03627
1937.82269 2.03700
1935.77425 2.03808
1933.72581 2.03912
1931.67737 2.03834
1929.62893 2.03723
1927.58049 2.03708
1925.53206 2.03708
1923.48362 2.03994
1921.43518 2.04395
1919.38674 2.04470
1917.33830 2.04805
1915.28986 2.05211
1913.24143 2.05105
1911.19299 2.04978
1909.14455 2.05356
1907.09611 2.05905
1905.04767 2.06173
1902.99923 2.06310
1900.95080 2.06436
1898.90236 2.06550
1896.85392 2.06765
1894.80548 2.07080
1892.75704 2.07153
1890.70860 2.07221
1888.66017 2.07714
1886.61173 2.07890
1884.56329 2.07829
1882.51485 2.08155
1880.46641 2.08538
1878.41797 2.08743
1876.36954 2.08978
1874.32110 2.09255
1872.27266 2.09388
1870.22422 2.09839
1868.17578 2.11273
1866.12734 2.12364
1864.07891 2.12364
1862.03047 2.12339
1859.98203 2.12678
1857.93359 2.13003
1855.88515 2.13343
1853.83671 2.13831
1851.78828 2.14259
1849.73984 2.14575
1847.69140 2.14952
1845.64296 2.15787
1843.59452 2.17606
1841.54608 2.18661
1839.49765 2.18468
1837.44921 2.18656
1835.40077 2.19538
1833.35233 2.20061
1831.30389 2.20506
1829.25545 2.22189
1827.20702 2.23830
1825.15858 2.25021
1823.11014 2.26385
1821.06170 2.27095
1819.01326 2.27719
1816.96482 2.28876
1814.91639 2.30140
1812.86795 2.31533
1810.81951 2.33766
1808.77107 2.36391
1806.72263 2.38241
1804.67419 2.39463
1802.62575 2.41044
1800.57732 2.43542
1798.52888 2.45787
1796.48044 2.46774
1794.43200 2.47185
1792.38356 2.48433
1790.33512 2.49833
1788.28669 2.49577
1786.23825 2.48490
1784.18981 2.47647
1782.14137 2.47364
1780.09293 2.47114
1778.04449 2.46369
1775.99606 2.45640
1773.94762 2.45818
1771.89918 2.47016
1769.85074 2.47731
1767.80230 2.48046
1765.75386 2.48655
1763.70543 2.49433
1761.65699 2.49997
1759.60855 2.49660
1757.56011 2.49356
1755.51167 2.49750
1753.46323 2.49986
1751.41480 2.50358
1749.36636 2.51776
1747.31792 2.52740
1745.26948 2.52884
1743.22104 2.53404
1741.17260 2.54361
1739.12417 2.55183
1737.07573 2.55603
1735.02729 2.56725
1732.97885 2.57897
1730.93041 2.57051
1728.88197 2.56030
1726.83354 2.55405
1724.78510 2.55374
1722.73666 2.55710
1720.68822 2.55900
1718.63978 2.56838
1716.59134 2.58889
1714.54291 2.58816
1712.49447 2.57983
1710.44603 2.57759
1708.39759 2.57806
1706.34915 2.57899
1704.30071 2.57927
1702.25228 2.57708
1700.20384 2.57692
1698.15540 2.58217
1696.10696 2.59329
1694.05852 2.59798
1692.01008 2.58835
1689.96165 2.58196
1687.91321 2.58056
1685.86477 2.57750
1683.81633 2.59624
1681.76789 2.61471
1679.71945 2.60687
1677.67102 2.59515
1675.62258 2.59156
1673.57414 2.59158
1671.52570 2.59112
1669.47726 2.59669
1667.42882 2.59675
1665.38038 2.58897
1663.33195 2.59306
1661.28351 2.60576
1659.23507 2.60204
1657.18663 2.58854
1655.13819 2.57920
1653.08975 2.59861
1651.04132 2.60836
1648.99288 2.59459
1646.94444 2.58560
1644.89600 2.58325
1642.84756 2.57998
1640.79912 2.57963
1638.75069 2.57828
1636.70225 2.57469
1634.65381 2.57120
1632.60537 2.56275
1630.55693 2.55359
1628.50849 2.54835
1626.46006 2.54752
1624.41162 2.54090
1622.36318 2.52827
1620.31474 2.51589
1618.26630 2.50507
1616.21786 2.48866
1614.16943 2.46690
1612.12099 2.44346
1610.07255 2.41621
1608.02411 2.38816
1605.97567 2.36027
1603.92723 2.32778
1601.87880 2.28563
1599.83036 2.23799
1597.78192 2.18659
1595.73348 2.12616
1593.68504 2.05438
1591.63660 1.97793
1589.58817 1.90274
1587.53973 1.83726
1585.49129 1.78735
1583.44285 1.75548
1581.39441 1.74292
1579.34597 1.74518
1577.29754 1.76451
1575.24910 1.80436
1573.20066 1.83376
1571.15222 1.85720
1569.10378 1.88215
1567.05534 1.87541
1565.00691 1.83101
1562.95847 1.77713
1560.91003 1.72803
1558.86159 1.63913
1556.81315 1.56525
1554.76471 1.53410
1552.71628 1.50692
1550.66784 1.48338
1548.61940 1.46316
1546.57096 1.44895
1544.52252 1.43986
1542.47408 1.43398
1540.42565 1.42575
1538.37721 1.41128
1536.32877 1.40151
1534.28033 1.39622
1532.23189 1.39187
1530.18345 1.38665
1528.13501 1.38371
1526.08658 1.38394
1524.03814 1.38364
1521.98970 1.38193
1519.94126 1.37859
1517.89282 1.37467
1515.84438 1.36996
1513.79595 1.36402
1511.74751 1.35992
1509.69907 1.35863
1507.65063 1.36068
1505.60219 1.35747
1503.55375 1.34961
1501.50532 1.34456
1499.45688 1.34327
1497.40844 1.34462
1495.36000 1.34285
1493.31156 1.33843
1491.26312 1.33733
1489.21469 1.34118
1487.16625 1.34005
1485.11781 1.33434
1483.06937 1.33039
1481.02093 1.32895
1478.97249 1.32774
1476.92406 1.32703
1474.87562 1.32925
1472.82718 1.33296
1470.77874 1.33071
1468.73030 1.32620
1466.68186 1.32641
1464.63343 1.33380
1462.58499 1.34176
1460.53655 1.34868
1458.48811 1.37101
1456.43967 1.42935
1454.39123 1.47028
1452.34280 1.49447
1450.29436 1.52083
1448.24592 1.55152
1446.19748 1.58124
1444.14904 1.60437
1442.10060 1.62525
1440.05217 1.64515
1438.00373 1.66706
1435.95529 1.69484
1433.90685 1.71163
1431.85841 1.72140
1429.80997 1.73421
1427.76154 1.74644
1425.71310 1.75641
1423.66466 1.76616
1421.61622 1.77384
1419.56778 1.78477
1417.51934 1.79957
1415.47091 1.80596
1413.42247 1.81111
1411.37403 1.81971
1409.32559 1.82816
1407.27715 1.83461
1405.22871 1.84290
1403.18028 1.85122
1401.13184 1.85775
1399.08340 1.86608
1397.03496 1.87476
1394.98652 1.88284
1392.93808 1.88846
1390.88965 1.89029
1388.84121 1.89264
1386.79277 1.89855
1384.74433 1.90295
1382.69589 1.90514
1380.64745 1.90901
1378.59901 1.91525
1376.55058 1.92246
1374.50214 1.92977
1372.45370 1.93384
1370.40526 1.93564
1368.35682 1.93909
1366.30838 1.94285
1364.25995 1.94771
1362.21151 1.95415
1360.16307 1.95861
1358.11463 1.96140
1356.06619 1.96459
1354.01775 1.96844
1351.96932 1.97261
1349.92088 1.97735
1347.87244 1.98169
1345.82400 1.98469
1343.77556 1.98762
1341.72712 1.99226
1339.67869 1.99819
1337.63025 2.00270
1335.58181 2.00498
1333.53337 2.00723
1331.48493 2.00994
1329.43649 2.01242
1327.38806 2.01381
1325.33962 2.01484
1323.29118 2.01676
1321.24274 2.02007
1319.19430 2.02570
1317.14586 2.03077
1315.09743 2.03359
1313.04899 2.03660
1311.00055 2.04026
1308.95211 2.04314
1306.90367 2.04420
1304.85523 2.04440
1302.80680 2.04593
1300.75836 2.04838
1298.70992 2.05063
1296.66148 2.05327
1294.61304 2.05666
1292.56460 2.06011
1290.51617 2.06188
1288.46773 2.06206
1286.41929 2.06277
1284.37085 2.06542
1282.32241 2.06823
1280.27397 2.06917
1278.22554 2.06985
1276.17710 2.07116
1274.12866 2.07194
1272.08022 2.07287
1270.03178 2.07373
1267.98334 2.07310
1265.93491 2.07281
1263.88647 2.07442
1261.83803 2.07706
1259.78959 2.07954
1257.74115 2.08118
1255.69271 2.08171
1253.64428 2.08134
1251.59584 2.08085
1249.54740 2.08173
1247.49896 2.08385
1245.45052 2.08550
1243.40208 2.08660
1241.35364 2.08810
1239.30521 2.08976
1237.25677 2.09037
1235.20833 2.09016
1233.15989 2.09023
1231.11145 2.09152
1229.06301 2.09298
1227.01458 2.09388
1224.96614 2.09662
1222.91770 2.10079
1220.86926 2.10359
1218.82082 2.10414
1216.77238 2.10290
1214.72395 2.10176
1212.67551 2.10258
1210.62707 2.10475
1208.57863 2.10688
1206.53019 2.10829
1204.48175 2.10919
1202.43332 2.11044
1200.38488 2.11290
1198.33644 2.11660
1196.28800 2.11864
1194.23956 2.11688
1192.19112 2.11494
1190.14269 2.11624
1188.09425 2.11858
1186.04581 2.11978
1183.99737 2.12110
1181.94893 2.12291
1179.90049 2.12423
1177.85206 2.12521
1175.80362 2.12604
1173.75518 2.12607
1171.70674 2.12585
1169.65830 2.12638
1167.60986 2.12771
1165.56143 2.12922
1163.51299 2.12898
1161.46455 2.12541
1159.41611 2.12045
1157.36767 2.11756
1155.31923 2.11796
1153.27080 2.11996
1151.22236 2.12043
1149.17392 2.11847
1147.12548 2.11576
1145.07704 2.11303
1143.02860 2.11054
1140.98017 2.10897
1138.93173 2.10829
1136.88329 2.10763
1134.83485 2.10510
1132.78641 2.10091
1130.73797 2.09768
1128.68954 2.09583
1126.64110 2.09357
1124.59266 2.09053
1122.54422 2.08720
1120.49578 2.08362
1118.44734 2.08060
1116.39891 2.07729
1114.35047 2.07379
1112.30203 2.07350
1110.25359 2.07704
1108.20515 2.08047
1106.15671 2.08163
1104.10827 2.08283
1102.05984 2.08561
1100.01140 2.08909
1097.96296 2.09391
1095.91452 2.10242
1093.86608 2.11425
1091.81764 2.12931
1089.76921 2.15121
1087.72077 2.17476
1085.67233 2.15697
1083.62389 2.09533
1081.57545 2.06762
1079.52701 2.08677
1077.47858 2.09921
1075.43014 2.09082
1073.38170 2.07920
1071.33326 2.06889
1069.28482 2.05889
1067.23638 2.04978
1065.18795 2.04427
1063.13951 2.04621
1061.09107 2.05373
1059.04263 2.05195
1056.99419 2.03579
1054.94575 2.02057
1052.89732 2.01210
1050.84888 2.00505
1048.80044 2.00002
1046.75200 1.99753
1044.70356 1.99472
1042.65512 1.99029
1040.60669 1.98537
1038.55825 1.98172
1036.50981 1.97887
1034.46137 1.97477
1032.41293 1.96932
1030.36449 1.96394
1028.31606 1.95894
1026.26762 1.95339
1024.21918 1.94617
1022.17074 1.93761
1020.12230 1.92941
1018.07386 1.92419
1016.02543 1.92215
1013.97699 1.92100
1011.92855 1.91983
1009.88011 1.92010
1007.83167 1.92174
1005.78323 1.92229
1003.73480 1.92286
1001.68636 1.92538
999.63792 1.92818
997.58948 1.93159
995.54104 1.93781
993.49260 1.94533
991.44417 1.95176
989.39573 1.95849
987.34729 1.96796
985.29885 1.97804
983.25041 1.98438
981.20197 1.98831
979.15354 1.99456
977.10510 2.00235
975.05666 2.00732
973.00822 2.00918
970.95978 2.01155
968.91134 2.01839
966.86290 2.02727
964.81447 2.03219
962.76603 2.03433
960.71759 2.03831
958.66915 2.04399
956.62071 2.04853
954.57227 2.05192
952.52384 2.05517
950.47540 2.05747
948.42696 2.05958
946.37852 2.06446
944.33008 2.07188
942.28164 2.07887
940.23321 2.08423
938.18477 2.08822
936.13633 2.09141
934.08789 2.09725
932.03945 2.10921
929.99101 2.12337
927.94258 2.13357
925.89414 2.13896
923.84570 2.14222
921.79726 2.14739
919.74882 2.15365
917.70038 2.15577
915.65195 2.15701
913.60351 2.16728
911.55507 2.18942
909.50663 2.21198
907.45819 2.22003
905.40975 2.21454
903.36132 2.20708
901.31288 2.20510
899.26444 2.20843
897.21600 2.21281
895.16756 2.21457
893.11912 2.21277
891.07069 2.20804
889.02225 2.19957
886.97381 2.18641
884.92537 2.16545
882.87693 2.11619
880.82849 2.00483
878.78006 1.83272
876.73162 1.66243
874.68318 1.54696
872.63474 1.48686
870.58630 1.45662
868.53786 1.43798
866.48943 1.42456
864.44099 1.41353
862.39255 1.40458
860.34411 1.39875
858.29567 1.39667
856.24723 1.40338
854.19880 1.43509
852.15036 1.50901
850.10192 1.61632
848.05348 1.72108
846.00504 1.79113
843.95660 1.81936
841.90817 1.83558
839.85973 1.86233
837.81129 1.88965
835.76285 1.91232
833.71441 1.93323
831.66597 1.95028
829.61753 1.96394
827.56910 1.97783
825.52066 1.99021
823.47222 1.99703
821.42378 1.99739
819.37534 1.99523
817.32690 1.99593
815.27847 1.99949
813.23003 2.00221
811.18159 2.00460
809.13315 2.00876
807.08471 2.01200
805.03627 2.01578
802.98784 2.02318
800.93940 2.02860
798.89096 2.02730
796.84252 2.02391
794.79408 2.02255
792.74564 2.02319
790.69721 2.02610
788.64877 2.03173
786.60033 2.03710
784.55189 2.03660
782.50345 2.03263
780.45501 2.03276
778.40658 2.03888
776.35814 2.04570
774.30970 2.04954
772.26126 2.05298
770.21282 2.05833
768.16438 2.06271
766.11595 2.06056
764.06751 2.05649
762.01907 2.05810
759.97063 2.06162
757.92219 2.06568
755.87375 2.07203
753.82532 2.07498
751.77688 2.07621
749.72844 2.08121
747.68000 2.08587
745.63156 2.09166
743.58312 2.09941
741.53469 2.10350
739.48625 2.10570
737.43781 2.10822
735.38937 2.10987
733.34093 2.11234
731.29249 2.12498
729.24406 2.14404
727.19562 2.15610
725.14718 2.17049
723.09874 2.19762
721.05030 2.24017
719.00186 2.29759
716.95343 2.26619
714.90499 2.09308
712.85655 1.97132
710.80811 1.97239
708.75967 2.02074
706.71123 2.05154
704.66280 2.07727
702.61436 2.09125
700.56592 2.07338
698.51748 2.05389
696.46904 2.06542
694.42060 2.08559
692.37216 2.08688
690.32373 2.08254
688.27529 2.08520
686.22685 2.08815
684.17841 2.09136
682.12997 2.09706
680.08153 2.09669
678.03310 2.08447
675.98466 2.06990
673.93622 2.06959
671.88778 2.08258
669.83934 2.08490
667.79090 2.07054
665.74247 2.07486
663.69403 2.07841
661.64559 2.07913
659.59715 2.09402
657.54871 2.10332
655.50027 2.08747
653.45184 2.06844
651.40340 2.05741
649.35496 2.05323
647.30652 2.05773
645.25808 2.05849
643.20964 2.06192
641.16121 2.08118
639.11277 2.08922
637.06433 2.06955
635.01589 2.06276
632.96745 2.07960
630.91901 2.07887
628.87058 2.05130
626.82214 2.02261
624.77370 2.00995
622.72526 2.01035
620.67682 2.01030
618.62838 2.02376
616.57995 2.07878
614.53151 2.13126
612.48307 2.13063
610.43463 2.09846
608.38619 2.04772
606.33775 2.01026
604.28932 2.01247
602.24088 2.04938
600.19244 2.08499
598.14400 2.09620
