3996.50324 1.25655
3994.45480 1.25800
3992.40636 1.25877
3990.35792 1.25940
3988.30948 1.26011
3986.26104 1.26065
3984.21261 1.26105
3982.16417 1.26138
3980.11573 1.26152
3978.06729 1.26154
3976.01885 1.26204
3973.97041 1.26251
3971.92198 1.26215
3969.87354 1.26182
3967.82510 1.26175
3965.77666 1.26152
3963.72822 1.26152
3961.67978 1.26144
3959.63135 1.26024
3957.58291 1.25841
3955.53447 1.25701
3953.48603 1.25591
3951.43759 1.25530
3949.38915 1.25596
3947.34072 1.25654
3945.29228 1.25588
3943.24384 1.25546
3941.19540 1.25511
3939.14696 1.25380
3937.09852 1.25258
3935.05009 1.25226
3933.00165 1.25317
3930.95321 1.25458
3928.90477 1.25432
3926.85633 1.25310
3924.80789 1.25277
3922.75946 1.25226
3920.71102 1.25047
3918.66258 1.24918
3916.61414 1.24893
3914.56570 1.24769
3912.51726 1.24577
3910.46883 1.24452
3908.42039 1.24396
3906.37195 1.24443
3904.32351 1.24715
3902.27507 1.25006
3900.22663 1.24994
3898.17820 1.24749
3896.12976 1.24437
3894.08132 1.24264
3892.03288 1.24324
3889.98444 1.24305
3887.93600 1.24099
3885.88756 1.24087
3883.83913 1.24204
3881.79069 1.24111
3879.74225 1.24018
3877.69381 1.23832
3875.64537 1.23612
3873.59693 1.23620
3871.54850 1.23730
3869.50006 1.23809
3867.45162 1.23669
3865.40318 1.23489
3863.35474 1.23562
3861.30630 1.23508
3859.25787 1.23281
3857.20943 1.23134
3855.16099 1.23221
3853.11255 1.23925
3851.06411 1.24205
3849.01567 1.23774
3846.96724 1.23315
3844.91880 1.23078
3842.87036 1.23119
3840.82192 1.23338
3838.77348 1.23674
3836.72504 1.23859
3834.67661 1.23673
3832.62817 1.23410
3830.57973 1.23229
3828.53129 1.23109
3826.48285 1.23114
3824.43441 1.23074
3822.38598 1.23029
3820.33754 1.23404
3818.28910 1.23579
3816.24066 1.23533
3814.19222 1.23431
3812.14378 1.23121
3810.09535 1.22890
3808.04691 1.23039
3805.99847 1.23384
3803.95003 1.23356
3801.90159 1.23402
3799.85315 1.23686
3797.80472 1.23598
3795.75628 1.23354
3793.70784 1.23128
3791.65940 1.22947
3789.61096 1.22872
3787.56252 1.22909
3785.51409 1.23042
3783.46565 1.23085
3781.41721 1.22997
3779.36877 1.23049
3777.32033 1.23127
3775.27189 1.23027
3773.22346 1.22916
3771.17502 1.22980
3769.12658 1.23222
3767.07814 1.23363
3765.02970 1.23379
3762.98126 1.23252
3760.93283 1.23158
3758.88439 1.23379
3756.83595 1.23534
3754.78751 1.23418
3752.73907 1.23440
3750.69063 1.24048
3748.64219 1.24389
3746.59376 1.24121
3744.54532 1.24129
3742.49688 1.24352
3740.44844 1.24206
3738.40000 1.23991
3736.35156 1.24213
3734.30313 1.24852
3732.25469 1.24935
3730.20625 1.24585
3728.15781 1.24327
3726.10937 1.24401
3724.06093 1.24658
3722.01250 1.24739
3719.96406 1.24625
3717.91562 1.24454
3715.86718 1.24292
3713.81874 1.24265
3711.77030 1.24726
3709.72187 1.25190
3707.67343 1.24995
3705.62499 1.24724
3703.57655 1.24729
3701.52811 1.25001
3699.47967 1.25094
3697.43124 1.24993
3695.38280 1.24953
3693.33436 1.25001
3691.28592 1.25236
3689.23748 1.25641
3687.18904 1.25678
3685.14061 1.25462
3683.09217 1.25332
3681.04373 1.25451
3678.99529 1.25789
3676.94685 1.26241
3674.89841 1.26583
3672.84998 1.26451
3670.80154 1.26337
3668.75310 1.26416
3666.70466 1.26348
3664.65622 1.26216
3662.60778 1.26175
3660.55935 1.26241
3658.51091 1.26412
3656.46247 1.26710
3654.41403 1.26894
3652.36559 1.26955
3650.31715 1.27365
3648.26872 1.27947
3646.22028 1.27765
3644.17184 1.27527
3642.12340 1.27500
3640.07496 1.27543
3638.02652 1.27566
3635.97809 1.27651
3633.92965 1.27850
3631.88121 1.28081
3629.83277 1.28412
3627.78433 1.28770
3625.73589 1.28699
3623.68746 1.28537
3621.63902 1.28585
3619.59058 1.28941
3617.54214 1.29263
3615.49370 1.29311
3613.44526 1.29295
3611.39682 1.29285
3609.34839 1.29337
3607.29995 1.29391
3605.25151 1.29375
3603.20307 1.29490
3601.15463 1.29786
3599.10619 1.30025
3597.05776 1.30165
3595.00932 1.30325
3592.96088 1.30334
3590.91244 1.30193
3588.86400 1.30173
3586.81556 1.30206
3584.76713 1.29968
3582.71869 1.29704
3580.67025 1.29611
3578.62181 1.29648
3576.57337 1.29736
3574.52493 1.29826
3572.47650 1.29882
3570.42806 1.30006
3568.37962 1.30385
3566.33118 1.30755
3564.28274 1.30574
3562.23430 1.30293
3560.18587 1.30163
3558.13743 1.30090
3556.08899 1.30113
3554.04055 1.30255
3551.99211 1.30322
3549.94367 1.30292
3547.89524 1.30391
3545.84680 1.30566
3543.79836 1.30538
3541.74992 1.30371
3539.70148 1.30292
3537.65304 1.30334
3535.60461 1.30369
3533.55617 1.30360
3531.50773 1.30413
3529.45929 1.30547
3527.41085 1.30680
3525.36241 1.30767
3523.31398 1.30801
3521.26554 1.30786
3519.21710 1.30789
3517.16866 1.30794
3515.12022 1.30764
3513.07178 1.30806
3511.02335 1.30972
3508.97491 1.31109
3506.92647 1.31169
3504.87803 1.31288
3502.82959 1.31355
3500.78115 1.31211
3498.73272 1.31074
3496.68428 1.31070
3494.63584 1.31100
3492.58740 1.31090
3490.53896 1.31112
3488.49052 1.31209
3486.44209 1.31301
3484.39365 1.31354
3482.34521 1.31389
3480.29677 1.31359
3478.24833 1.31306
3476.19989 1.31327
3474.15146 1.31382
3472.10302 1.31424
3470.05458 1.31450
3468.00614 1.31422
3465.95770 1.31334
3463.90926 1.31279
3461.86082 1.31297
3459.81239 1.31288
3457.76395 1.31262
3455.71551 1.31293
3453.66707 1.31320
3451.61863 1.31328
3449.57019 1.31409
3447.52176 1.31523
3445.47332 1.31512
3443.42488 1.31417
3441.37644 1.31388
3439.32800 1.31419
3437.27956 1.31455
3435.23113 1.31459
3433.18269 1.31434
3431.13425 1.31436
3429.08581 1.31456
3427.03737 1.31454
3424.98893 1.31513
3422.94050 1.31674
3420.89206 1.31744
3418.84362 1.31651
3416.79518 1.31589
3414.74674 1.31597
3412.69830 1.31566
3410.64987 1.31500
3408.60143 1.31480
3406.55299 1.31509
3404.50455 1.31554
3402.45611 1.31576
3400.40767 1.31564
3398.35924 1.31595
3396.31080 1.31683
3394.26236 1.31748
3392.21392 1.31720
3390.16548 1.31645
3388.11704 1.31649
3386.06861 1.31708
3384.02017 1.31705
3381.97173 1.31703
3379.92329 1.31769
3377.87485 1.31806
3375.82641 1.31760
3373.77798 1.31697
3371.72954 1.31679
3369.68110 1.31735
3367.63266 1.31834
3365.58422 1.31889
3363.53578 1.31872
3361.48735 1.31866
3359.43891 1.31905
3357.39047 1.31924
3355.34203 1.31898
3353.29359 1.31866
3351.24515 1.31866
3349.19672 1.31876
3347.14828 1.31874
3345.09984 1.31887
3343.05140 1.31886
3341.00296 1.31894
3338.95452 1.31987
3336.90609 1.32111
3334.85765 1.32188
3332.80921 1.32214
3330.76077 1.32185
3328.71233 1.32134
3326.66389 1.32114
3324.61545 1.32095
3322.56702 1.32076
3320.51858 1.32095
3318.47014 1.32099
3316.42170 1.32066
3314.37326 1.32069
3312.32482 1.32119
3310.27639 1.32151
3308.22795 1.32132
3306.17951 1.32100
3304.13107 1.32103
3302.08263 1.32131
3300.03419 1.32173
3297.98576 1.32229
3295.93732 1.32261
3293.88888 1.32263
3291.84044 1.32275
3289.79200 1.32298
3287.74356 1.32314
3285.69513 1.32374
3283.64669 1.32477
3281.59825 1.32502
3279.54981 1.32461
3277.50137 1.32450
3275.45293 1.32457
3273.40450 1.32439
3271.35606 1.32393
3269.30762 1.32376
3267.25918 1.32400
3265.21074 1.32435
3263.16230 1.32477
3261.11387 1.32524
3259.06543 1.32561
3257.01699 1.32581
3254.96855 1.32609
3252.92011 1.32645
3250.87167 1.32644
3248.82324 1.32642
3246.77480 1.32691
3244.72636 1.32735
3242.67792 1.32746
3240.62948 1.32775
3238.58104 1.32815
3236.53261 1.32828
3234.48417 1.32845
3232.43573 1.32881
3230.38729 1.32876
3228.33885 1.32844
3226.29041 1.32825
3224.24198 1.32777
3222.19354 1.32714
3220.14510 1.32705
3218.09666 1.32710
3216.04822 1.32680
3213.99978 1.32662
3211.95135 1.32686
3209.90291 1.32729
3207.85447 1.32746
3205.80603 1.32741
3203.75759 1.32761
3201.70915 1.32778
3199.66072 1.32726
3197.61228 1.32633
3195.56384 1.32578
3193.51540 1.32539
3191.46696 1.32462
3189.41852 1.32401
3187.37008 1.32390
3185.32165 1.32358
3183.27321 1.32280
3181.22477 1.32194
3179.17633 1.32131
3177.12789 1.32095
3175.07945 1.32093
3173.03102 1.32108
3170.98258 1.32109
3168.93414 1.32108
3166.88570 1.32116
3164.83726 1.32116
3162.78882 1.32096
3160.74039 1.32065
3158.69195 1.32039
3156.64351 1.32021
3154.59507 1.31991
3152.54663 1.31923
3150.49819 1.31845
3148.44976 1.31804
3146.40132 1.31812
3144.35288 1.31854
3142.30444 1.31870
3140.25600 1.31828
3138.20756 1.31780
3136.15913 1.31766
3134.11069 1.31786
3132.06225 1.31814
3130.01381 1.31819
3127.96537 1.31828
3125.91693 1.31853
3123.86850 1.31860
3121.82006 1.31819
3119.77162 1.31759
3117.72318 1.31725
3115.67474 1.31725
3113.62630 1.31768
3111.57787 1.31804
3109.52943 1.31777
3107.48099 1.31789
3105.43255 1.31849
3103.38411 1.31827
3101.33567 1.31735
3099.28724 1.31707
3097.23880 1.31767
3095.19036 1.31817
3093.14192 1.31789
3091.09348 1.31701
3089.04504 1.31627
3086.99661 1.31606
3084.94817 1.31622
3082.89973 1.31660
3080.85129 1.31687
3078.80285 1.31697
3076.75441 1.31761
3074.70598 1.31878
3072.65754 1.31939
3070.60910 1.31904
3068.56066 1.31874
3066.51222 1.31924
3064.46378 1.31990
3062.41535 1.32032
3060.36691 1.32090
3058.31847 1.32150
3056.27003 1.32225
3054.22159 1.32326
3052.17315 1.32466
3050.12471 1.32709
3048.07628 1.32985
3046.02784 1.33196
3043.97940 1.33402
3041.93096 1.33671
3039.88252 1.33971
3037.83408 1.34202
3035.78565 1.34333
3033.73721 1.34484
3031.68877 1.34698
3029.64033 1.34884
3027.59189 1.34968
3025.54345 1.34977
3023.49502 1.35071
3021.44658 1.35245
3019.39814 1.35366
3017.34970 1.35449
3015.30126 1.35532
3013.25282 1.35672
3011.20439 1.35935
3009.15595 1.36284
3007.10751 1.36655
3005.05907 1.36977
3003.01063 1.37199
3000.96219 1.37337
2998.91376 1.37453
2996.86532 1.37586
2994.81688 1.37718
2992.76844 1.37843
2990.72000 1.37991
2988.67156 1.38072
2986.62313 1.37982
2984.57469 1.37788
2982.52625 1.37602
2980.47781 1.37504
2978.42937 1.37482
2976.38093 1.37433
2974.33250 1.37378
2972.28406 1.37392
2970.23562 1.37422
2968.18718 1.37377
2966.13874 1.37309
2964.09030 1.37297
2962.04187 1.37292
2959.99343 1.37301
2957.94499 1.37326
2955.89655 1.37250
2953.84811 1.37116
2951.79967 1.37069
2949.75124 1.37060
2947.70280 1.37013
2945.65436 1.36990
2943.60592 1.37015
2941.55748 1.37047
2939.50904 1.37069
2937.46061 1.37089
2935.41217 1.37089
2933.36373 1.37031
2931.31529 1.36910
2929.26685 1.36794
2927.21841 1.36770
2925.16998 1.36852
2923.12154 1.36945
2921.07310 1.36921
2919.02466 1.36800
2916.97622 1.36679
2914.92778 1.36598
2912.87934 1.36569
2910.83091 1.36566
2908.78247 1.36542
2906.73403 1.36472
2904.68559 1.36362
2902.63715 1.36286
2900.58871 1.36264
2898.54028 1.36180
2896.49184 1.35972
2894.44340 1.35709
2892.39496 1.35451
2890.34652 1.35215
2888.29808 1.35000
2886.24965 1.34805
2884.20121 1.34646
2882.15277 1.34503
2880.10433 1.34371
2878.05589 1.34301
2876.00745 1.34285
2873.95902 1.34282
2871.91058 1.34324
2869.86214 1.34445
2867.81370 1.34600
2865.76526 1.34740
2863.71682 1.34857
2861.66839 1.34975
2859.61995 1.35135
2857.57151 1.35344
2855.52307 1.35564
2853.47463 1.35713
2851.42619 1.35716
2849.37776 1.35559
2847.32932 1.35262
2845.28088 1.34791
2843.23244 1.34126
2841.18400 1.33352
2839.13556 1.32587
2837.08713 1.31901
2835.03869 1.31329
2832.99025 1.30865
2830.94181 1.30449
2828.89337 1.30046
2826.84493 1.29708
2824.79650 1.29465
2822.74806 1.29267
2820.69962 1.29075
2818.65118 1.28920
2816.60274 1.28827
2814.55430 1.28759
2812.50587 1.28654
2810.45743 1.28525
2808.40899 1.28441
2806.36055 1.28394
2804.31211 1.28333
2802.26367 1.28280
2800.21524 1.28250
2798.16680 1.28205
2796.11836 1.28137
2794.06992 1.28064
2792.02148 1.28006
2789.97304 1.27968
2787.92461 1.27926
2785.87617 1.27894
2783.82773 1.27911
2781.77929 1.27951
2779.73085 1.27979
2777.68241 1.27986
2775.63397 1.27949
2773.58554 1.27882
2771.53710 1.27799
2769.48866 1.27718
2767.44022 1.27680
2765.39178 1.27672
2763.34334 1.27642
2761.29491 1.27602
2759.24647 1.27584
2757.19803 1.27577
2755.14959 1.27587
2753.10115 1.27589
2751.05271 1.27563
2749.00428 1.27556
2746.95584 1.27584
2744.90740 1.27591
2742.85896 1.27553
2740.81052 1.27506
2738.76208 1.27468
2736.71365 1.27445
2734.66521 1.27453
2732.61677 1.27482
2730.56833 1.27510
2728.51989 1.27516
2726.47145 1.27503
2724.42302 1.27488
2722.37458 1.27468
2720.32614 1.27442
2718.27770 1.27431
2716.22926 1.27451
2714.18082 1.27481
2712.13239 1.27500
2710.08395 1.27516
2708.03551 1.27543
2705.98707 1.27581
2703.93863 1.27626
2701.89019 1.27662
2699.84176 1.27681
2697.79332 1.27682
2695.74488 1.27689
2693.69644 1.27715
2691.64800 1.27757
2689.59956 1.27817
2687.55113 1.27882
2685.50269 1.27932
2683.45425 1.27980
2681.40581 1.28062
2679.35737 1.28177
2677.30893 1.28296
2675.26050 1.28445
2673.21206 1.28698
2671.16362 1.29059
2669.11518 1.29471
2667.06674 1.29938
2665.01830 1.30496
2662.96987 1.31120
2660.92143 1.31744
2658.87299 1.32340
2656.82455 1.32899
2654.77611 1.33372
2652.72767 1.33728
2650.67924 1.34022
2648.63080 1.34309
2646.58236 1.34553
2644.53392 1.34747
2642.48548 1.34950
2640.43704 1.35183
2638.38860 1.35409
2636.34017 1.35588
2634.29173 1.35692
2632.24329 1.35730
2630.19485 1.35750
2628.14641 1.35761
2626.09797 1.35727
2624.04954 1.35676
2622.00110 1.35677
2619.95266 1.35674
2617.90422 1.35601
2615.85578 1.35536
2613.80734 1.35535
2611.75891 1.35538
2609.71047 1.35483
2607.66203 1.35394
2605.61359 1.35357
2603.56515 1.35384
2601.51671 1.35408
2599.46828 1.35381
2597.41984 1.35354
2595.37140 1.35372
2593.32296 1.35415
2591.27452 1.35516
2589.22608 1.35669
2587.17765 1.35799
2585.12921 1.35896
2583.08077 1.35971
2581.03233 1.36023
2578.98389 1.36099
2576.93545 1.36240
2574.88702 1.36397
2572.83858 1.36546
2570.79014 1.36705
2568.74170 1.36837
2566.69326 1.36916
2564.64482 1.36955
2562.59639 1.36984
2560.54795 1.37040
2558.49951 1.37143
2556.45107 1.37280
2554.40263 1.37427
2552.35419 1.37549
2550.30576 1.37610
2548.25732 1.37596
2546.20888 1.37467
2544.16044 1.37243
2542.11200 1.37059
2540.06356 1.37044
2538.01513 1.37232
2535.96669 1.37568
2533.91825 1.37893
2531.86981 1.38082
2529.82137 1.38164
2527.77293 1.38148
2525.72450 1.38058
2523.67606 1.37974
2521.62762 1.37852
2519.57918 1.37604
2517.53074 1.37288
2515.48230 1.37022
2513.43387 1.36872
2511.38543 1.36871
2509.33699 1.36993
2507.28855 1.37169
2505.24011 1.37336
2503.19167 1.37446
2501.14324 1.37508
2499.09480 1.37510
2497.04636 1.37417
2494.99792 1.37258
2492.94948 1.37093
2490.90104 1.36937
2488.85260 1.36775
2486.80417 1.36560
2484.75573 1.36245
2482.70729 1.35833
2480.65885 1.35309
2478.61041 1.34615
2476.56197 1.33779
2474.51354 1.32930
2472.46510 1.32181
2470.41666 1.31546
2468.36822 1.30971
2466.31978 1.30448
2464.27134 1.30015
2462.22291 1.29629
2460.17447 1.29244
2458.12603 1.28888
2456.07759 1.28569
2454.02915 1.28308
2451.98071 1.28150
2449.93228 1.28064
2447.88384 1.28011
2445.83540 1.27990
2443.78696 1.27940
2441.73852 1.27812
2439.69008 1.27686
2437.64165 1.27605
2435.59321 1.27520
2433.54477 1.27418
2431.49633 1.27334
2429.44789 1.27266
2427.39945 1.27195
2425.35102 1.27138
2423.30258 1.27127
2421.25414 1.27143
2419.20570 1.27157
2417.15726 1.27183
2415.10882 1.27248
2413.06039 1.27323
2411.01195 1.27359
2408.96351 1.27372
2406.91507 1.27379
2404.86663 1.27372
2402.81819 1.27361
2400.76976 1.27344
2398.72132 1.27325
2396.67288 1.27327
2394.62444 1.27340
2392.57600 1.27363
2390.52756 1.27438
2388.47913 1.27593
2386.43069 1.27838
2384.38225 1.28185
2382.33381 1.28638
2380.28537 1.29170
2378.23693 1.29771
2376.18850 1.30419
2374.14006 1.31049
2372.09162 1.31719
2370.04318 1.32570
2367.99474 1.33529
2365.94630 1.34275
2363.89787 1.34708
2361.84943 1.35044
2359.80099 1.35320
2357.75255 1.35330
2355.70411 1.34961
2353.65567 1.34379
2351.60723 1.33646
2349.55880 1.33062
2347.51036 1.32885
2345.46192 1.33102
2343.41348 1.33416
2341.36504 1.33500
2339.31660 1.33526
2337.26817 1.33492
2335.21973 1.33202
2333.17129 1.33008
2331.12285 1.33039
2329.07441 1.32894
2327.02597 1.32581
2324.97754 1.32360
2322.92910 1.32206
2320.88066 1.31903
2318.83222 1.31383
2316.78378 1.30812
2314.73534 1.30381
2312.68691 1.30146
2310.63847 1.29918
2308.59003 1.29521
2306.54159 1.29079
2304.49315 1.28722
2302.44471 1.28403
2300.39628 1.28067
2298.34784 1.27757
2296.29940 1.27526
2294.25096 1.27343
2292.20252 1.27176
2290.15408 1.27071
2288.10565 1.27025
2286.05721 1.26962
2284.00877 1.26886
2281.96033 1.26846
2279.91189 1.26832
2277.86345 1.26833
2275.81502 1.26851
2273.76658 1.26859
2271.71814 1.26849
2269.66970 1.26882
2267.62126 1.26981
2265.57282 1.27086
2263.52439 1.27186
2261.47595 1.27298
2259.42751 1.27394
2257.37907 1.27473
2255.33063 1.27545
2253.28219 1.27593
2251.23376 1.27603
2249.18532 1.27607
2247.13688 1.27616
2245.08844 1.27583
2243.04000 1.27522
2240.99156 1.27486
2238.94313 1.27450
2236.89469 1.27414
2234.84625 1.27418
2232.79781 1.27444
2230.74937 1.27444
2228.70093 1.27426
2226.65250 1.27475
2224.60406 1.27599
2222.55562 1.27702
2220.50718 1.27784
2218.45874 1.27891
2216.41030 1.27987
2214.36186 1.28051
2212.31343 1.28117
2210.26499 1.28180
2208.21655 1.28246
2206.16811 1.28346
2204.11967 1.28495
2202.07123 1.28680
2200.02280 1.28847
2197.97436 1.28964
2195.92592 1.29058
2193.87748 1.29158
2191.82904 1.29273
2189.78060 1.29379
2187.73217 1.29468
2185.68373 1.29568
2183.63529 1.29697
2181.58685 1.29832
2179.53841 1.29929
2177.48997 1.29975
2175.44154 1.29999
2173.39310 1.30082
2171.34466 1.30273
2169.29622 1.30524
2167.24778 1.30785
2165.19934 1.31049
2163.15091 1.31306
2161.10247 1.31542
2159.05403 1.31763
2157.00559 1.31985
2154.95715 1.32162
2152.90871 1.32108
2150.86028 1.31776
2148.81184 1.31349
2146.76340 1.30988
2144.71496 1.30784
2142.66652 1.30756
2140.61808 1.30871
2138.56965 1.31051
2136.52121 1.31157
2134.47277 1.31113
2132.42433 1.31007
2130.37589 1.30933
2128.32745 1.30886
2126.27902 1.30839
2124.23058 1.30778
2122.18214 1.30705
2120.13370 1.30632
2118.08526 1.30535
2116.03682 1.30408
2113.98839 1.30264
2111.93995 1.30074
2109.89151 1.29828
2107.84307 1.29584
2105.79463 1.29372
2103.74619 1.29148
2101.69776 1.28921
2099.64932 1.28736
2097.60088 1.28586
2095.55244 1.28467
2093.50400 1.28397
2091.45556 1.28363
2089.40713 1.28321
2087.35869 1.28257
2085.31025 1.28240
2083.26181 1.28306
2081.21337 1.28381
2079.16493 1.28431
2077.11649 1.28459
2075.06806 1.28479
2073.01962 1.28500
2070.97118 1.28493
2068.92274 1.28477
2066.87430 1.28515
2064.82586 1.28586
2062.77743 1.28638
2060.72899 1.28717
2058.68055 1.28834
2056.63211 1.28933
2054.58367 1.29034
2052.53523 1.29158
2050.48680 1.29273
2048.43836 1.29353
2046.38992 1.29388
2044.34148 1.29392
2042.29304 1.29392
2040.24460 1.29385
2038.19617 1.29353
2036.14773 1.29313
2034.09929 1.29293
2032.05085 1.29334
2030.00241 1.29422
2027.95397 1.29504
2025.90554 1.29609
2023.85710 1.29773
2021.80866 1.29945
2019.76022 1.30096
2017.71178 1.30241
2015.66334 1.30317
2013.61491 1.30325
2011.56647 1.30348
2009.51803 1.30374
2007.46959 1.30371
2005.42115 1.30388
2003.37271 1.30477
2001.32428 1.30606
1999.27584 1.30706
1997.22740 1.30766
1995.17896 1.30866
1993.13052 1.31025
1991.08208 1.31174
1989.03365 1.31297
1986.98521 1.31434
1984.93677 1.31578
1982.88833 1.31712
1980.83989 1.31817
1978.79145 1.31892
1976.74302 1.32001
1974.69458 1.32169
1972.64614 1.32331
1970.59770 1.32470
1968.54926 1.32656
1966.50082 1.32814
1964.45239 1.32816
1962.40395 1.32740
1960.35551 1.32706
1958.30707 1.32728
1956.25863 1.32801
1954.21019 1.32913
1952.16176 1.33055
1950.11332 1.33233
1948.06488 1.33434
1946.01644 1.33651
1943.96800 1.33892
1941.91956 1.34111
1939.87112 1.34215
1937.82269 1.34272
1935.77425 1.34356
1933.72581 1.34445
1931.67737 1.34517
1929.62893 1.34602
1927.58049 1.34730
1925.53206 1.34905
1923.48362 1.35137
1921.43518 1.35308
1919.38674 1.35415
1917.33830 1.35538
1915.28986 1.35593
1913.24143 1.35608
1911.19299 1.35720
1909.14455 1.35953
1907.09611 1.36188
1905.04767 1.36367
1902.99923 1.36537
1900.95080 1.36726
1898.90236 1.36954
1896.85392 1.37239
1894.80548 1.37469
1892.75704 1.37560
1890.70860 1.37657
1888.66017 1.37805
1886.61173 1.37888
1884.56329 1.37972
1882.51485 1.38105
1880.46641 1.38267
1878.41797 1.38468
1876.36954 1.38684
1874.32110 1.38901
1872.27266 1.39159
1870.22422 1.39582
1868.17578 1.40078
1866.12734 1.40281
1864.07891 1.40366
1862.03047 1.40587
1859.98203 1.40939
1857.93359 1.41316
1855.88515 1.41621
1853.83671 1.41846
1851.78828 1.42065
1849.73984 1.42343
1847.69140 1.42687
1845.64296 1.43054
1843.59452 1.43417
1841.54608 1.43655
1839.49765 1.43915
1837.44921 1.44308
1835.40077 1.44717
1833.35233 1.45119
1831.30389 1.45679
1829.25545 1.46403
1827.20702 1.46998
1825.15858 1.47592
1823.11014 1.48166
1821.06170 1.48629
1819.01326 1.49172
1816.96482 1.49835
1814.91639 1.50549
1812.86795 1.51399
1810.81951 1.52471
1808.77107 1.53543
1806.72263 1.54593
1804.67419 1.55853
1802.62575 1.57428
1800.57732 1.59008
1798.52888 1.60073
1796.48044 1.60795
1794.43200 1.61620
1792.38356 1.62729
1790.33512 1.63231
1788.28669 1.62787
1786.23825 1.62229
1784.18981 1.62003
1782.14137 1.61890
1780.09293 1.61506
1778.04449 1.60989
1775.99606 1.60761
1773.94762 1.60979
1771.89918 1.61532
1769.85074 1.61946
1767.80230 1.62176
1765.75386 1.62364
1763.70543 1.62655
1761.65699 1.63249
1759.60855 1.63913
1757.56011 1.64584
1755.51167 1.65258
1753.46323 1.65937
1751.41480 1.66935
1749.36636 1.67980
1747.31792 1.68480
1745.26948 1.68830
1743.22104 1.69219
1741.17260 1.69536
1739.12417 1.69898
1737.07573 1.70388
1735.02729 1.71377
1732.97885 1.72314
1730.93041 1.72201
1728.88197 1.71960
1726.83354 1.71948
1724.78510 1.72312
1722.73666 1.72872
1720.68822 1.73531
1718.63978 1.74685
1716.59134 1.75805
1714.54291 1.75176
1712.49447 1.74424
1710.44603 1.74271
1708.39759 1.74614
1706.34915 1.75265
1704.30071 1.75684
1702.25228 1.75902
1700.20384 1.76326
1698.15540 1.76664
1696.10696 1.76315
1694.05852 1.75713
1692.01008 1.75445
1689.96165 1.75720
1687.91321 1.76274
1685.86477 1.77143
1683.81633 1.78256
1681.76789 1.78017
1679.71945 1.77442
1677.67102 1.77204
1675.62258 1.77460
1673.57414 1.77809
1671.52570 1.78104
1669.47726 1.78002
1667.42882 1.77381
1665.38038 1.76953
1663.33195 1.77013
1661.28351 1.77123
1659.23507 1.77032
1657.18663 1.77115
1655.13819 1.77441
1653.08975 1.77760
1651.04132 1.77226
1648.99288 1.77183
1646.94444 1.77069
1644.89600 1.76382
1642.84756 1.75753
1640.79912 1.75454
1638.75069 1.75452
1636.70225 1.75550
1634.65381 1.74632
1632.60537 1.73419
1630.55693 1.72772
1628.50849 1.72166
1626.46006 1.71495
1624.41162 1.70539
1622.36318 1.69327
1620.31474 1.68177
1618.26630 1.67220
1616.21786 1.65408
1614.16943 1.63284
1612.12099 1.61462
1610.07255 1.59308
1608.02411 1.56650
1605.97567 1.53663
1603.92723 1.50447
1601.87880 1.46662
1599.83036 1.42603
1597.78192 1.38146
1595.73348 1.32802
1593.68504 1.26388
1591.63660 1.19341
1589.58817 1.11745
1587.53973 1.04250
1585.49129 0.97983
1583.44285 0.93892
1581.39441 0.92502
1579.34597 0.93367
1577.29754 0.96838
1575.24910 1.03322
1573.20066 1.08025
1571.15222 1.10894
1569.10378 1.12162
1567.05534 1.09198
1565.00691 1.02622
1562.95847 0.95682
1560.91003 0.89364
1558.86159 0.75934
1556.81315 0.65243
1554.76471 0.61346
1552.71628 0.58139
1550.66784 0.55471
1548.61940 0.53298
1546.57096 0.51967
1544.52252 0.51205
1542.47408 0.50515
1540.42565 0.49232
1538.37721 0.47854
1536.32877 0.47290
1534.28033 0.46926
1532.23189 0.46379
1530.18345 0.45933
1528.13501 0.45735
1526.08658 0.45607
1524.03814 0.45438
1521.98970 0.45167
1519.94126 0.44709
1517.89282 0.44296
1515.84438 0.43836
1513.79595 0.43393
1511.74751 0.43213
1509.69907 0.43287
1507.65063 0.43288
1505.60219 0.42536
1503.55375 0.42024
1501.50532 0.41824
1499.45688 0.41777
1497.40844 0.41723
1495.36000 0.41448
1493.31156 0.41249
1491.26312 0.41362
1489.21469 0.41581
1487.16625 0.41338
1485.11781 0.40985
1483.06937 0.40828
1481.02093 0.40816
1478.97249 0.40858
1476.92406 0.41030
1474.87562 0.41379
1472.82718 0.41657
1470.77874 0.41570
1468.73030 0.41538
1466.68186 0.41947
1464.63343 0.42930
1462.58499 0.44045
1460.53655 0.45287
1458.48811 0.48333
1456.43967 0.55137
1454.39123 0.59791
1452.34280 0.62547
1450.29436 0.65388
1448.24592 0.68490
1446.19748 0.71366
1444.14904 0.73572
1442.10060 0.75514
1440.05217 0.77331
1438.00373 0.79257
1435.95529 0.81659
1433.90685 0.83331
1431.85841 0.84525
1429.80997 0.85884
1427.76154 0.87079
1425.71310 0.88068
1423.66466 0.89094
1421.61622 0.90045
1419.56778 0.91217
1417.51934 0.92534
1415.47091 0.93220
1413.42247 0.93868
1411.37403 0.94719
1409.32559 0.95591
1407.27715 0.96394
1405.22871 0.97286
1403.18028 0.98098
1401.13184 0.98822
1399.08340 0.99719
1397.03496 1.00601
1394.98652 1.01287
1392.93808 1.01713
1390.88965 1.02037
1388.84121 1.02522
1386.79277 1.03185
1384.74433 1.03666
1382.69589 1.04119
1380.64745 1.04712
1378.59901 1.05346
1376.55058 1.05987
1374.50214 1.06679
1372.45370 1.07188
1370.40526 1.07503
1368.35682 1.07909
1366.30838 1.08362
1364.25995 1.08928
1362.21151 1.09521
1360.16307 1.09857
1358.11463 1.10071
1356.06619 1.10394
1354.01775 1.10778
1351.96932 1.11138
1349.92088 1.11520
1347.87244 1.11906
1345.82400 1.12286
1343.77556 1.12701
1341.72712 1.13267
1339.67869 1.13877
1337.63025 1.14222
1335.58181 1.14332
1333.53337 1.14482
1331.48493 1.14743
1329.43649 1.15085
1327.38806 1.15412
1325.33962 1.15678
1323.29118 1.15968
1321.24274 1.16338
1319.19430 1.16733
1317.14586 1.17011
1315.09743 1.17276
1313.04899 1.17591
1311.00055 1.17871
1308.95211 1.18089
1306.90367 1.18314
1304.85523 1.18573
1302.80680 1.18844
1300.75836 1.19087
1298.70992 1.19290
1296.66148 1.19504
1294.61304 1.19750
1292.56460 1.20069
1290.51617 1.20431
1288.46773 1.20752
1286.41929 1.20962
1284.37085 1.21104
1282.32241 1.21227
1280.27397 1.21326
1278.22554 1.21395
1276.17710 1.21446
1274.12866 1.21529
1272.08022 1.21642
1270.03178 1.21748
1267.98334 1.21794
1265.93491 1.21771
1263.88647 1.21704
1261.83803 1.21683
1259.78959 1.21754
1257.74115 1.21928
1255.69271 1.22181
1253.64428 1.22451
1251.59584 1.22673
1249.54740 1.22790
1247.49896 1.22829
1245.45052 1.22849
1243.40208 1.22902
1241.35364 1.22979
1239.30521 1.23046
1237.25677 1.23051
1235.20833 1.23001
1233.15989 1.22956
1231.11145 1.22973
1229.06301 1.23067
1227.01458 1.23187
1224.96614 1.23287
1222.91770 1.23349
1220.86926 1.23356
1218.82082 1.23306
1216.77238 1.23258
1214.72395 1.23290
1212.67551 1.23406
1210.62707 1.23541
1208.57863 1.23672
1206.53019 1.23815
1204.48175 1.23994
1202.43332 1.24247
1200.38488 1.24585
1198.33644 1.24943
1196.28800 1.25238
1194.23956 1.25487
1192.19112 1.25722
1190.14269 1.25934
1188.09425 1.26140
1186.04581 1.26358
1183.99737 1.26569
1181.94893 1.26747
1179.90049 1.26888
1177.85206 1.26982
1175.80362 1.27011
1173.75518 1.26948
1171.70674 1.26782
1169.65830 1.26541
1167.60986 1.26255
1165.56143 1.25937
1163.51299 1.25582
1161.46455 1.25207
1159.41611 1.24876
1157.36767 1.24621
1155.31923 1.24406
1153.27080 1.24186
1151.22236 1.23937
1149.17392 1.23688
1147.12548 1.23479
1145.07704 1.23305
1143.02860 1.23122
1140.98017 1.22940
1138.93173 1.22794
1136.88329 1.22697
1134.83485 1.22606
1132.78641 1.22466
1130.73797 1.22283
1128.68954 1.22077
1126.64110 1.21861
1124.59266 1.21680
1122.54422 1.21610
1120.49578 1.21630
1118.44734 1.21692
1116.39891 1.21806
1114.35047 1.21990
1112.30203 1.22220
1110.25359 1.22501
1108.20515 1.22856
1106.15671 1.23244
1104.10827 1.23591
1102.05984 1.23885
1100.01140 1.24218
1097.96296 1.24640
1095.91452 1.25195
1093.86608 1.26011
1091.81764 1.27350
1089.76921 1.29691
1087.72077 1.32982
1085.67233 1.32320
1083.62389 1.25742
1081.57545 1.21904
1079.52701 1.23003
1077.47858 1.23839
1075.43014 1.23171
1073.38170 1.22607
1071.33326 1.22494
1069.28482 1.22569
1067.23638 1.22500
1065.18795 1.22280
1063.13951 1.22204
1061.09107 1.22442
1059.04263 1.22417
1056.99419 1.21803
1054.94575 1.21235
1052.89732 1.21070
1050.84888 1.21071
1048.80044 1.21179
1046.75200 1.21311
1044.70356 1.21330
1042.65512 1.21202
1040.60669 1.20957
1038.55825 1.20632
1036.50981 1.20293
1034.46137 1.20045
1032.41293 1.19901
1030.36449 1.19852
1028.31606 1.19886
1026.26762 1.20018
1024.21918 1.20178
1022.17074 1.20274
1020.12230 1.20248
1018.07386 1.20106
1016.02543 1.19884
1013.97699 1.19606
1011.92855 1.19336
1009.88011 1.19168
1007.83167 1.19213
1005.78323 1.19476
1003.73480 1.19900
1001.68636 1.20461
999.63792 1.21151
997.58948 1.21878
995.54104 1.22559
993.49260 1.23125
991.44417 1.23508
989.39573 1.23733
987.34729 1.23903
985.29885 1.24107
983.25041 1.24362
981.20197 1.24688
979.15354 1.25107
977.10510 1.25661
975.05666 1.26311
973.00822 1.26938
970.95978 1.27459
968.91134 1.27820
966.86290 1.27964
964.81447 1.27913
962.76603 1.27736
960.71759 1.27559
958.66915 1.27539
956.62071 1.27708
954.57227 1.28126
952.52384 1.28869
950.47540 1.29878
948.42696 1.30946
946.37852 1.31885
944.33008 1.32612
942.28164 1.33153
940.23321 1.33553
938.18477 1.33860
936.13633 1.34189
934.08789 1.34564
932.03945 1.34930
929.99101 1.35395
927.94258 1.36144
925.89414 1.37141
923.84570 1.38296
921.79726 1.39539
919.74882 1.40738
917.70038 1.41793
915.65195 1.42805
913.60351 1.44395
911.55507 1.47392
909.50663 1.50300
907.45819 1.49820
905.40975 1.46853
903.36132 1.44551
901.31288 1.43626
899.26444 1.43575
897.21600 1.43953
895.16756 1.44434
893.11912 1.44777
891.07069 1.44595
889.02225 1.43300
886.97381 1.40239
884.92537 1.34400
882.87693 1.23741
880.82849 1.06105
878.78006 0.85081
876.73162 0.68207
874.68318 0.58527
872.63474 0.54221
870.58630 0.52345
868.53786 0.51297
866.48943 0.50616
864.44099 0.50171
862.39255 0.49876
860.34411 0.49694
858.29567 0.49703
856.24723 0.50413
854.19880 0.53544
852.15036 0.61158
850.10192 0.72565
848.05348 0.83791
846.00504 0.91116
843.95660 0.93879
841.90817 0.95685
839.85973 0.99236
837.81129 1.03105
835.76285 1.06012
833.71441 1.08057
831.66597 1.09378
829.61753 1.10112
827.56910 1.10389
825.52066 1.10369
823.47222 1.10436
821.42378 1.10706
819.37534 1.11198
817.32690 1.12052
815.27847 1.12856
813.23003 1.13915
811.18159 1.15492
809.13315 1.16273
807.08471 1.16249
805.03627 1.16824
802.98784 1.17610
800.93940 1.17205
798.89096 1.15941
796.84252 1.15433
794.79408 1.16307
792.74564 1.17743
790.69721 1.18586
788.64877 1.18653
786.60033 1.18853
784.55189 1.19978
782.50345 1.21818
780.45501 1.23427
778.40658 1.23885
776.35814 1.22927
774.30970 1.21205
772.26126 1.19782
770.21282 1.19354
768.16438 1.20056
766.11595 1.21750
764.06751 1.24016
762.01907 1.26140
759.97063 1.27453
757.92219 1.27626
755.87375 1.26795
753.82532 1.25537
751.77688 1.24518
749.72844 1.24176
747.68000 1.24713
745.63156 1.26089
743.58312 1.28124
741.53469 1.30445
739.48625 1.32351
737.43781 1.32988
735.38937 1.32197
733.34093 1.30741
731.29249 1.29873
729.24406 1.30948
727.19562 1.34380
725.14718 1.38919
723.09874 1.43694
721.05030 1.49459
719.00186 1.54677
716.95343 1.48668
714.90499 1.30001
712.85655 1.17712
710.80811 1.18422
708.75967 1.24899
706.71123 1.29500
704.66280 1.32518
702.61436 1.34011
700.56592 1.32887
698.51748 1.31528
696.46904 1.31952
694.42060 1.33524
692.37216 1.35522
690.32373 1.35959
688.27529 1.33701
686.22685 1.30968
684.17841 1.29778
682.12997 1.30272
680.08153 1.31804
678.03310 1.33432
675.98466 1.34208
673.93622 1.34135
671.88778 1.34001
669.83934 1.34252
667.79090 1.33879
665.74247 1.33581
663.69403 1.34570
661.64559 1.36624
659.59715 1.39026
657.54871 1.40669
655.50027 1.41015
653.45184 1.40000
651.40340 1.37954
649.35496 1.35685
647.30652 1.33834
645.25808 1.32825
643.20964 1.32953
641.16121 1.33891
639.11277 1.35893
637.06433 1.39453
635.01589 1.43706
632.96745 1.46958
630.91901 1.48500
628.87058 1.48415
626.82214 1.46583
624.77370 1.43424
622.72526 1.39914
620.67682 1.37320
618.62838 1.36560
616.57995 1.37011
614.53151 1.37757
612.48307 1.39882
610.43463 1.43963
608.38619 1.49097
606.33775 1.54660
604.28932 1.60048
602.24088 1.62434
600.19244 1.58881
598.14400 1.52407
