3996.50324 1.33922
3994.45480 1.33971
3992.40636 1.34031
3990.35792 1.34164
3988.30948 1.34272
3986.26104 1.34270
3984.21261 1.34249
3982.16417 1.34268
3980.11573 1.34283
3978.06729 1.34313
3976.01885 1.34401
3973.97041 1.34491
3971.92198 1.34544
3969.87354 1.34548
3967.82510 1.34462
3965.77666 1.34362
3963.72822 1.34353
3961.67978 1.34396
3959.63135 1.34357
3957.58291 1.34279
3955.53447 1.34253
3953.48603 1.34180
3951.43759 1.34057
3949.38915 1.34108
3947.34072 1.34280
3945.29228 1.34292
3943.24384 1.34311
3941.19540 1.34361
3939.14696 1.34226
3937.09852 1.34053
3935.05009 1.33985
3933.00165 1.34081
3930.95321 1.34297
3928.90477 1.34273
3926.85633 1.34020
3924.80789 1.33953
3922.75946 1.33999
3920.71102 1.33863
3918.66258 1.33823
3916.61414 1.33961
3914.56570 1.33851
3912.51726 1.33517
3910.46883 1.33275
3908.42039 1.33128
3906.37195 1.33071
3904.32351 1.33396
3902.27507 1.33877
3900.22663 1.34045
3898.17820 1.33967
3896.12976 1.33542
3894.08132 1.33048
3892.03288 1.33131
3889.98444 1.33403
3887.93600 1.33109
3885.88756 1.33077
3883.83913 1.33359
3881.79069 1.33269
3879.74225 1.33360
3877.69381 1.33159
3875.64537 1.32660
3873.59693 1.32568
3871.54850 1.32759
3869.50006 1.33117
3867.45162 1.33086
3865.40318 1.32774
3863.35474 1.32992
3861.30630 1.33088
3859.25787 1.32638
3857.20943 1.31937
3855.16099 1.31371
3853.11255 1.32526
3851.06411 1.33654
3849.01567 1.33202
3846.96724 1.32553
3844.91880 1.32166
3842.87036 1.32142
3840.82192 1.32281
3838.77348 1.32617
3836.72504 1.33111
3834.67661 1.33123
3832.62817 1.32913
3830.57973 1.32793
3828.53129 1.32656
3826.48285 1.32568
3824.43441 1.32344
3822.38598 1.32215
3820.33754 1.32972
3818.28910 1.33195
3816.24066 1.33048
3814.19222 1.33147
3812.14378 1.32757
3810.09535 1.32116
3808.04691 1.31909
3805.99847 1.32344
3803.95003 1.32390
3801.90159 1.32601
3799.85315 1.33303
3797.80472 1.33263
3795.75628 1.33100
3793.70784 1.32888
3791.65940 1.32526
3789.61096 1.32329
3787.56252 1.32278
3785.51409 1.32382
3783.46565 1.32505
3781.41721 1.32455
3779.36877 1.32711
3777.32033 1.33004
3775.27189 1.32762
3773.22346 1.32359
3771.17502 1.32270
3769.12658 1.32678
3767.07814 1.32994
3765.02970 1.33052
3762.98126 1.32882
3760.93283 1.32675
3758.88439 1.32984
3756.83595 1.33218
3754.78751 1.32800
3752.73907 1.32466
3750.69063 1.33418
3748.64219 1.34170
3746.59376 1.33641
3744.54532 1.33688
3742.49688 1.34268
3740.44844 1.33986
3738.40000 1.33444
3736.35156 1.33696
3734.30313 1.34751
3732.25469 1.34947
3730.20625 1.34420
3728.15781 1.33930
3726.10937 1.33960
3724.06093 1.34375
3722.01250 1.34592
3719.96406 1.34586
3717.91562 1.34329
3715.86718 1.33853
3713.81874 1.33512
3711.77030 1.34057
3709.72187 1.35072
3707.67343 1.35131
3705.62499 1.34799
3703.57655 1.34677
3701.52811 1.34997
3699.47967 1.35229
3697.43124 1.35090
3695.38280 1.34854
3693.33436 1.34684
3691.28592 1.34883
3689.23748 1.35735
3687.18904 1.36128
3685.14061 1.35796
3683.09217 1.35418
3681.04373 1.35246
3678.99529 1.35141
3676.94685 1.35157
3674.89841 1.35819
3672.84998 1.36050
3670.80154 1.36091
3668.75310 1.36542
3666.70466 1.36399
3664.65622 1.35971
3662.60778 1.35756
3660.55935 1.35691
3658.51091 1.35698
3656.46247 1.36034
3654.41403 1.36262
3652.36559 1.35965
3650.31715 1.36169
3648.26872 1.37606
3646.22028 1.37853
3644.17184 1.37351
3642.12340 1.37013
3640.07496 1.36919
3638.02652 1.36941
3635.97809 1.37033
3633.92965 1.37110
3631.88121 1.37055
3629.83277 1.37332
3627.78433 1.38163
3625.73589 1.38124
3623.68746 1.37686
3621.63902 1.37501
3619.59058 1.37786
3617.54214 1.38121
3615.49370 1.38045
3613.44526 1.37961
3611.39682 1.37953
3609.34839 1.37993
3607.29995 1.38145
3605.25151 1.38145
3603.20307 1.38070
3601.15463 1.38188
3599.10619 1.38371
3597.05776 1.38416
3595.00932 1.38471
3592.96088 1.38422
3590.91244 1.38182
3588.86400 1.38179
3586.81556 1.38570
3584.76713 1.38574
3582.71869 1.38291
3580.67025 1.38137
3578.62181 1.38100
3576.57337 1.38045
3574.52493 1.37961
3572.47650 1.37919
3570.42806 1.37958
3568.37962 1.38279
3566.33118 1.38834
3564.28274 1.38796
3562.23430 1.38425
3560.18587 1.38228
3558.13743 1.38185
3556.08899 1.38169
3554.04055 1.38175
3551.99211 1.38135
3549.94367 1.38001
3547.89524 1.38019
3545.84680 1.38305
3543.79836 1.38415
3541.74992 1.38228
3539.70148 1.38062
3537.65304 1.38035
3535.60461 1.38087
3533.55617 1.38106
3531.50773 1.38090
3529.45929 1.38108
3527.41085 1.38204
3525.36241 1.38357
3523.31398 1.38421
3521.26554 1.38262
3519.21710 1.38101
3517.16866 1.38104
3515.12022 1.38091
3513.07178 1.38054
3511.02335 1.38162
3508.97491 1.38271
3506.92647 1.38199
3504.87803 1.38190
3502.82959 1.38371
3500.78115 1.38386
3498.73272 1.38221
3496.68428 1.38175
3494.63584 1.38158
3492.58740 1.38017
3490.53896 1.37944
3488.49052 1.38041
3486.44209 1.38137
3484.39365 1.38172
3482.34521 1.38219
3480.29677 1.38223
3478.24833 1.38155
3476.19989 1.38082
3474.15146 1.38024
3472.10302 1.38031
3470.05458 1.38110
3468.00614 1.38193
3465.95770 1.38210
3463.90926 1.38114
3461.86082 1.38020
3459.81239 1.38010
3457.76395 1.37989
3455.71551 1.37974
3453.66707 1.38046
3451.61863 1.38101
3449.57019 1.38103
3447.52176 1.38207
3445.47332 1.38319
3443.42488 1.38273
3441.37644 1.38186
3439.32800 1.38162
3437.27956 1.38190
3435.23113 1.38198
3433.18269 1.38161
3431.13425 1.38129
3429.08581 1.38096
3427.03737 1.38051
3424.98893 1.38031
3422.94050 1.38095
3420.89206 1.38221
3418.84362 1.38244
3416.79518 1.38136
3414.74674 1.38077
3412.69830 1.38101
3410.64987 1.38141
3408.60143 1.38211
3406.55299 1.38258
3404.50455 1.38209
3402.45611 1.38149
3400.40767 1.38160
3398.35924 1.38201
3396.31080 1.38206
3394.26236 1.38181
3392.21392 1.38201
3390.16548 1.38245
3388.11704 1.38262
3386.06861 1.38285
3384.02017 1.38286
3381.97173 1.38250
3379.92329 1.38233
3377.87485 1.38220
3375.82641 1.38182
3373.77798 1.38205
3371.72954 1.38293
3369.68110 1.38333
3367.63266 1.38298
3365.58422 1.38225
3363.53578 1.38159
3361.48735 1.38145
3359.43891 1.38144
3357.39047 1.38140
3355.34203 1.38165
3353.29359 1.38163
3351.24515 1.38150
3349.19672 1.38190
3347.14828 1.38217
3345.09984 1.38179
3343.05140 1.38156
3341.00296 1.38185
3338.95452 1.38240
3336.90609 1.38314
3334.85765 1.38347
3332.80921 1.38289
3330.76077 1.38241
3328.71233 1.38300
3326.66389 1.38395
3324.61545 1.38406
3322.56702 1.38333
3320.51858 1.38269
3318.47014 1.38288
3316.42170 1.38353
3314.37326 1.38368
3312.32482 1.38328
3310.27639 1.38352
3308.22795 1.38478
3306.17951 1.38567
3304.13107 1.38544
3302.08263 1.38488
3300.03419 1.38471
3297.98576 1.38468
3295.93732 1.38424
3293.88888 1.38401
3291.84044 1.38479
3289.79200 1.38554
3287.74356 1.38541
3285.69513 1.38497
3283.64669 1.38455
3281.59825 1.38444
3279.54981 1.38499
3277.50137 1.38546
3275.45293 1.38541
3273.40450 1.38555
3271.35606 1.38588
3269.30762 1.38562
3267.25918 1.38494
3265.21074 1.38488
3263.16230 1.38529
3261.11387 1.38530
3259.06543 1.38528
3257.01699 1.38573
3254.96855 1.38625
3252.92011 1.38646
3250.87167 1.38619
3248.82324 1.38572
3246.77480 1.38604
3244.72636 1.38717
3242.67792 1.38752
3240.62948 1.38718
3238.58104 1.38729
3236.53261 1.38731
3234.48417 1.38736
3232.43573 1.38753
3230.38729 1.38693
3228.33885 1.38649
3226.29041 1.38675
3224.24198 1.38663
3222.19354 1.38681
3220.14510 1.38799
3218.09666 1.38861
3216.04822 1.38839
3213.99978 1.38862
3211.95135 1.38921
3209.90291 1.38938
3207.85447 1.38918
3205.80603 1.38904
3203.75759 1.38909
3201.70915 1.38922
3199.66072 1.38935
3197.61228 1.38942
3195.56384 1.38898
3193.51540 1.38820
3191.46696 1.38809
3189.41852 1.38844
3187.37008 1.38842
3185.32165 1.38865
3183.27321 1.38954
3181.22477 1.39034
3179.17633 1.39050
3177.12789 1.38999
3175.07945 1.38947
3173.03102 1.38937
3170.98258 1.38989
3168.93414 1.39074
3166.88570 1.39093
3164.83726 1.39076
3162.78882 1.39093
3160.74039 1.39064
3158.69195 1.38982
3156.64351 1.38957
3154.59507 1.38968
3152.54663 1.38963
3150.49819 1.38990
3148.44976 1.39065
3146.40132 1.39117
3144.35288 1.39083
3142.30444 1.39012
3140.25600 1.38987
3138.20756 1.39034
3136.15913 1.39138
3134.11069 1.39211
3132.06225 1.39173
3130.01381 1.39115
3127.96537 1.39154
3125.91693 1.39187
3123.86850 1.39138
3121.82006 1.39092
3119.77162 1.39062
3117.72318 1.39048
3115.67474 1.39092
3113.62630 1.39162
3111.57787 1.39179
3109.52943 1.39148
3107.48099 1.39141
3105.43255 1.39167
3103.38411 1.39194
3101.33567 1.39211
3099.28724 1.39230
3097.23880 1.39283
3095.19036 1.39350
3093.14192 1.39342
3091.09348 1.39280
3089.04504 1.39260
3086.99661 1.39276
3084.94817 1.39280
3082.89973 1.39268
3080.85129 1.39259
3078.80285 1.39229
3076.75441 1.39215
3074.70598 1.39292
3072.65754 1.39390
3070.60910 1.39395
3068.56066 1.39327
3066.51222 1.39289
3064.46378 1.39330
3062.41535 1.39412
3060.36691 1.39451
3058.31847 1.39446
3056.27003 1.39462
3054.22159 1.39475
3052.17315 1.39440
3050.12471 1.39395
3048.07628 1.39369
3046.02784 1.39330
3043.97940 1.39296
3041.93096 1.39314
3039.88252 1.39406
3037.83408 1.39486
3035.78565 1.39456
3033.73721 1.39433
3031.68877 1.39531
3029.64033 1.39648
3027.59189 1.39648
3025.54345 1.39566
3023.49502 1.39538
3021.44658 1.39543
3019.39814 1.39513
3017.34970 1.39483
3015.30126 1.39437
3013.25282 1.39431
3011.20439 1.39542
3009.15595 1.39705
3007.10751 1.39834
3005.05907 1.39873
3003.01063 1.39843
3000.96219 1.39816
2998.91376 1.39796
2996.86532 1.39780
2994.81688 1.39767
2992.76844 1.39734
2990.72000 1.39736
2988.67156 1.39761
2986.62313 1.39728
2984.57469 1.39653
2982.52625 1.39560
2980.47781 1.39498
2978.42937 1.39504
2976.38093 1.39499
2974.33250 1.39465
2972.28406 1.39468
2970.23562 1.39503
2968.18718 1.39542
2966.13874 1.39577
2964.09030 1.39610
2962.04187 1.39633
2959.99343 1.39617
2957.94499 1.39571
2955.89655 1.39543
2953.84811 1.39536
2951.79967 1.39541
2949.75124 1.39527
2947.70280 1.39466
2945.65436 1.39426
2943.60592 1.39442
2941.55748 1.39505
2939.50904 1.39582
2937.46061 1.39593
2935.41217 1.39532
2933.36373 1.39448
2931.31529 1.39370
2929.26685 1.39341
2927.21841 1.39369
2925.16998 1.39374
2923.12154 1.39321
2921.07310 1.39229
2919.02466 1.39110
2916.97622 1.39011
2914.92778 1.38954
2912.87934 1.38940
2910.83091 1.38968
2908.78247 1.39029
2906.73403 1.39101
2904.68559 1.39157
2902.63715 1.39209
2900.58871 1.39260
2898.54028 1.39267
2896.49184 1.39227
2894.44340 1.39194
2892.39496 1.39197
2890.34652 1.39219
2888.29808 1.39223
2886.24965 1.39229
2884.20121 1.39265
2882.15277 1.39269
2880.10433 1.39235
2878.05589 1.39239
2876.00745 1.39242
2873.95902 1.39192
2871.91058 1.39190
2869.86214 1.39265
2867.81370 1.39312
2865.76526 1.39319
2863.71682 1.39329
2861.66839 1.39317
2859.61995 1.39274
2857.57151 1.39256
2855.52307 1.39278
2853.47463 1.39269
2851.42619 1.39196
2849.37776 1.39119
2847.32932 1.39091
2845.28088 1.39087
2843.23244 1.39066
2841.18400 1.39051
2839.13556 1.39067
2837.08713 1.39080
2835.03869 1.39047
2832.99025 1.38996
2830.94181 1.38980
2828.89337 1.39002
2826.84493 1.39033
2824.79650 1.39037
2822.74806 1.39008
2820.69962 1.38965
2818.65118 1.38920
2816.60274 1.38891
2814.55430 1.38888
2812.50587 1.38903
2810.45743 1.38902
2808.40899 1.38864
2806.36055 1.38854
2804.31211 1.38896
2802.26367 1.38927
2800.21524 1.38925
2798.16680 1.38908
2796.11836 1.38911
2794.06992 1.38953
2792.02148 1.38973
2789.97304 1.38923
2787.92461 1.38866
2785.87617 1.38865
2783.82773 1.38868
2781.77929 1.38840
2779.73085 1.38817
2777.68241 1.38810
2775.63397 1.38805
2773.58554 1.38848
2771.53710 1.38925
2769.48866 1.38931
2767.44022 1.38869
2765.39178 1.38822
2763.34334 1.38825
2761.29491 1.38836
2759.24647 1.38793
2757.19803 1.38756
2755.14959 1.38791
2753.10115 1.38840
2751.05271 1.38844
2749.00428 1.38827
2746.95584 1.38801
2744.90740 1.38759
2742.85896 1.38736
2740.81052 1.38734
2738.76208 1.38730
2736.71365 1.38782
2734.66521 1.38871
2732.61677 1.38877
2730.56833 1.38835
2728.51989 1.38839
2726.47145 1.38858
2724.42302 1.38861
2722.37458 1.38867
2720.32614 1.38882
2718.27770 1.38921
2716.22926 1.38992
2714.18082 1.39038
2712.13239 1.38987
2710.08395 1.38883
2708.03551 1.38853
2705.98707 1.38896
2703.93863 1.38952
2701.89019 1.39013
2699.84176 1.39043
2697.79332 1.39032
2695.74488 1.39034
2693.69644 1.39074
2691.64800 1.39113
2689.59956 1.39138
2687.55113 1.39160
2685.50269 1.39169
2683.45425 1.39204
2681.40581 1.39278
2679.35737 1.39336
2677.30893 1.39358
2675.26050 1.39379
2673.21206 1.39428
2671.16362 1.39500
2669.11518 1.39594
2667.06674 1.39717
2665.01830 1.39847
2662.96987 1.39959
2660.92143 1.40030
2658.87299 1.40078
2656.82455 1.40139
2654.77611 1.40197
2652.72767 1.40250
2650.67924 1.40281
2648.63080 1.40264
2646.58236 1.40257
2644.53392 1.40303
2642.48548 1.40367
2640.43704 1.40414
2638.38860 1.40440
2636.34017 1.40456
2634.29173 1.40481
2632.24329 1.40522
2630.19485 1.40535
2628.14641 1.40504
2626.09797 1.40485
2624.04954 1.40496
2622.00110 1.40503
2619.95266 1.40500
2617.90422 1.40509
2615.85578 1.40528
2613.80734 1.40521
2611.75891 1.40472
2609.71047 1.40402
2607.66203 1.40364
2605.61359 1.40384
2603.56515 1.40433
2601.51671 1.40487
2599.46828 1.40527
2597.41984 1.40527
2595.37140 1.40526
2593.32296 1.40592
2591.27452 1.40701
2589.22608 1.40759
2587.17765 1.40744
2585.12921 1.40719
2583.08077 1.40739
2581.03233 1.40791
2578.98389 1.40847
2576.93545 1.40907
2574.88702 1.40983
2572.83858 1.41042
2570.79014 1.41052
2568.74170 1.41066
2566.69326 1.41133
2564.64482 1.41239
2562.59639 1.41328
2560.54795 1.41381
2558.49951 1.41434
2556.45107 1.41518
2554.40263 1.41605
2552.35419 1.41616
2550.30576 1.41565
2548.25732 1.41495
2546.20888 1.41352
2544.16044 1.41169
2542.11200 1.41078
2540.06356 1.41120
2538.01513 1.41236
2535.96669 1.41380
2533.91825 1.41537
2531.86981 1.41643
2529.82137 1.41637
2527.77293 1.41531
2525.72450 1.41367
2523.67606 1.41190
2521.62762 1.41036
2519.57918 1.40859
2517.53074 1.40639
2515.48230 1.40483
2513.43387 1.40452
2511.38543 1.40502
2509.33699 1.40590
2507.28855 1.40680
2505.24011 1.40735
2503.19167 1.40768
2501.14324 1.40779
2499.09480 1.40752
2497.04636 1.40725
2494.99792 1.40717
2492.94948 1.40699
2490.90104 1.40673
2488.85260 1.40642
2486.80417 1.40582
2484.75573 1.40516
2482.70729 1.40465
2480.65885 1.40399
2478.61041 1.40333
2476.56197 1.40305
2474.51354 1.40278
2472.46510 1.40219
2470.41666 1.40144
2468.36822 1.40104
2466.31978 1.40099
2464.27134 1.40044
2462.22291 1.39937
2460.17447 1.39854
2458.12603 1.39827
2456.07759 1.39805
2454.02915 1.39799
2451.98071 1.39831
2449.93228 1.39852
2447.88384 1.39858
2445.83540 1.39866
2443.78696 1.39843
2441.73852 1.39788
2439.69008 1.39772
2437.64165 1.39803
2435.59321 1.39821
2433.54477 1.39786
2431.49633 1.39734
2429.44789 1.39758
2427.39945 1.39831
2425.35102 1.39848
2423.30258 1.39828
2421.25414 1.39821
2419.20570 1.39802
2417.15726 1.39806
2415.10882 1.39862
2413.06039 1.39917
2411.01195 1.39949
2408.96351 1.39961
2406.91507 1.39954
2404.86663 1.39958
2402.81819 1.39964
2400.76976 1.39957
2398.72132 1.39988
2396.67288 1.40043
2394.62444 1.40077
2392.57600 1.40112
2390.52756 1.40183
2388.47913 1.40305
2386.43069 1.40467
2384.38225 1.40679
2382.33381 1.40991
2380.28537 1.41419
2378.23693 1.41932
2376.18850 1.42474
2374.14006 1.42975
2372.09162 1.43476
2370.04318 1.44116
2367.99474 1.44880
2365.94630 1.45598
2363.89787 1.46063
2361.84943 1.46156
2359.80099 1.46165
2357.75255 1.46480
2355.70411 1.46647
2353.65567 1.46087
2351.60723 1.45152
2349.55880 1.44418
2347.51036 1.44146
2345.46192 1.44461
2343.41348 1.45123
2341.36504 1.45472
2339.31660 1.45447
2337.26817 1.45289
2335.21973 1.45025
2333.17129 1.44906
2331.12285 1.45083
2329.07441 1.45199
2327.02597 1.45068
2324.97754 1.44834
2322.92910 1.44560
2320.88066 1.44229
2318.83222 1.43925
2316.78378 1.43695
2314.73534 1.43502
2312.68691 1.43321
2310.63847 1.43123
2308.59003 1.42878
2306.54159 1.42603
2304.49315 1.42348
2302.44471 1.42114
2300.39628 1.41845
2298.34784 1.41588
2296.29940 1.41423
2294.25096 1.41303
2292.20252 1.41157
2290.15408 1.41008
2288.10565 1.40862
2286.05721 1.40719
2284.00877 1.40663
2281.96033 1.40716
2279.91189 1.40794
2277.86345 1.40868
2275.81502 1.40957
2273.76658 1.41014
2271.71814 1.41030
2269.66970 1.41095
2267.62126 1.41185
2265.57282 1.41205
2263.52439 1.41216
2261.47595 1.41288
2259.42751 1.41355
2257.37907 1.41346
2255.33063 1.41332
2253.28219 1.41404
2251.23376 1.41479
2249.18532 1.41473
2247.13688 1.41439
2245.08844 1.41436
2243.04000 1.41466
2240.99156 1.41487
2238.94313 1.41472
2236.89469 1.41489
2234.84625 1.41542
2232.79781 1.41560
2230.74937 1.41557
2228.70093 1.41608
2226.65250 1.41671
2224.60406 1.41669
2222.55562 1.41667
2220.50718 1.41718
2218.45874 1.41785
2216.41030 1.41857
2214.36186 1.41969
2212.31343 1.42111
2210.26499 1.42228
2208.21655 1.42293
2206.16811 1.42306
2204.11967 1.42335
2202.07123 1.42413
2200.02280 1.42500
2197.97436 1.42563
2195.92592 1.42619
2193.87748 1.42696
2191.82904 1.42776
2189.78060 1.42829
2187.73217 1.42879
2185.68373 1.42965
2183.63529 1.43069
2181.58685 1.43142
2179.53841 1.43153
2177.48997 1.43146
2175.44154 1.43184
2173.39310 1.43245
2171.34466 1.43269
2169.29622 1.43289
2167.24778 1.43385
2165.19934 1.43529
2163.15091 1.43654
2161.10247 1.43749
2159.05403 1.43781
2157.00559 1.43766
2154.95715 1.43824
2152.90871 1.43937
2150.86028 1.43964
2148.81184 1.43910
2146.76340 1.43851
2144.71496 1.43800
2142.66652 1.43780
2140.61808 1.43822
2138.56965 1.43911
2136.52121 1.43994
2134.47277 1.43994
2132.42433 1.43910
2130.37589 1.43862
2128.32745 1.43877
2126.27902 1.43914
2124.23058 1.43999
2122.18214 1.44071
2120.13370 1.44087
2118.08526 1.44112
2116.03682 1.44130
2113.98839 1.44073
2111.93995 1.43981
2109.89151 1.43919
2107.84307 1.43835
2105.79463 1.43717
2103.74619 1.43614
2101.69776 1.43520
2099.64932 1.43410
2097.60088 1.43292
2095.55244 1.43228
2093.50400 1.43231
2091.45556 1.43242
2089.40713 1.43254
2087.35869 1.43279
2085.31025 1.43290
2083.26181 1.43282
2081.21337 1.43285
2079.16493 1.43349
2077.11649 1.43462
2075.06806 1.43560
2073.01962 1.43625
2070.97118 1.43645
2068.92274 1.43659
2066.87430 1.43734
2064.82586 1.43829
2062.77743 1.43881
2060.72899 1.43928
2058.68055 1.43998
2056.63211 1.44065
2054.58367 1.44116
2052.53523 1.44147
2050.48680 1.44178
2048.43836 1.44224
2046.38992 1.44277
2044.34148 1.44335
2042.29304 1.44417
2040.24460 1.44488
2038.19617 1.44518
2036.14773 1.44559
2034.09929 1.44613
2032.05085 1.44646
2030.00241 1.44708
2027.95397 1.44814
2025.90554 1.44899
2023.85710 1.44955
2021.80866 1.45040
2019.76022 1.45160
2017.71178 1.45279
2015.66334 1.45332
2013.61491 1.45323
2011.56647 1.45338
2009.51803 1.45405
2007.46959 1.45510
2005.42115 1.45617
2003.37271 1.45701
2001.32428 1.45807
1999.27584 1.45911
1997.22740 1.45960
1995.17896 1.46015
1993.13052 1.46188
1991.08208 1.46392
1989.03365 1.46479
1986.98521 1.46547
1984.93677 1.46639
1982.88833 1.46747
1980.83989 1.46878
1978.79145 1.46991
1976.74302 1.47052
1974.69458 1.47083
1972.64614 1.47138
1970.59770 1.47234
1968.54926 1.47385
1966.50082 1.47555
1964.45239 1.47647
1962.40395 1.47667
1960.35551 1.47712
1958.30707 1.47808
1956.25863 1.47926
1954.21019 1.48060
1952.16176 1.48171
1950.11332 1.48223
1948.06488 1.48286
1946.01644 1.48413
1943.96800 1.48640
1941.91956 1.48925
1939.87112 1.49019
1937.82269 1.48989
1935.77425 1.49003
1933.72581 1.49088
1931.67737 1.49202
1929.62893 1.49294
1927.58049 1.49357
1925.53206 1.49448
1923.48362 1.49689
1921.43518 1.49945
1919.38674 1.50073
1917.33830 1.50186
1915.28986 1.50216
1913.24143 1.50214
1911.19299 1.50390
1909.14455 1.50682
1907.09611 1.50851
1905.04767 1.50869
1902.99923 1.50885
1900.95080 1.50988
1898.90236 1.51149
1896.85392 1.51342
1894.80548 1.51554
1892.75704 1.51721
1890.70860 1.51868
1888.66017 1.52060
1886.61173 1.52177
1884.56329 1.52271
1882.51485 1.52401
1880.46641 1.52531
1878.41797 1.52681
1876.36954 1.52833
1874.32110 1.52951
1872.27266 1.53055
1870.22422 1.53344
1868.17578 1.53824
1866.12734 1.54035
1864.07891 1.54033
1862.03047 1.54138
1859.98203 1.54325
1857.93359 1.54471
1855.88515 1.54581
1853.83671 1.54724
1851.78828 1.54930
1849.73984 1.55175
1847.69140 1.55460
1845.64296 1.55813
1843.59452 1.56227
1841.54608 1.56365
1839.49765 1.56384
1837.44921 1.56572
1835.40077 1.56812
1833.35233 1.56986
1831.30389 1.57263
1829.25545 1.57687
1827.20702 1.57975
1825.15858 1.58215
1823.11014 1.58431
1821.06170 1.58556
1819.01326 1.58761
1816.96482 1.59107
1814.91639 1.59426
1812.86795 1.59734
1810.81951 1.60189
1808.77107 1.60650
1806.72263 1.61004
1804.67419 1.61465
1802.62575 1.62177
1800.57732 1.62802
1798.52888 1.62935
1796.48044 1.62829
1794.43200 1.62796
1792.38356 1.62737
1790.33512 1.62032
1788.28669 1.60934
1786.23825 1.60171
1784.18981 1.59965
1782.14137 1.59938
1780.09293 1.59715
1778.04449 1.59369
1775.99606 1.59242
1773.94762 1.59630
1771.89918 1.60682
1769.85074 1.61525
1767.80230 1.61841
1765.75386 1.62030
1763.70543 1.62257
1761.65699 1.62689
1759.60855 1.63128
1757.56011 1.63521
1755.51167 1.63876
1753.46323 1.64157
1751.41480 1.64799
1749.36636 1.65746
1747.31792 1.66078
1745.26948 1.66031
1743.22104 1.66105
1741.17260 1.66337
1739.12417 1.66618
1737.07573 1.66859
1735.02729 1.67608
1732.97885 1.68584
1730.93041 1.68443
1728.88197 1.68054
1726.83354 1.67927
1724.78510 1.68125
1722.73666 1.68465
1720.68822 1.68856
1718.63978 1.69742
1716.59134 1.70902
1714.54291 1.70645
1712.49447 1.70191
1710.44603 1.70189
1708.39759 1.70508
1706.34915 1.71020
1704.30071 1.71307
1702.25228 1.71407
1700.20384 1.71885
1698.15540 1.72331
1696.10696 1.72150
1694.05852 1.71937
1692.01008 1.71820
1689.96165 1.72066
1687.91321 1.72524
1685.86477 1.73043
1683.81633 1.73841
1681.76789 1.73966
1679.71945 1.73692
1677.67102 1.73545
1675.62258 1.73746
1673.57414 1.73882
1671.52570 1.74031
1669.47726 1.74367
1667.42882 1.74325
1665.38038 1.74012
1663.33195 1.73970
1661.28351 1.73978
1659.23507 1.73792
1657.18663 1.73690
1655.13819 1.73729
1653.08975 1.74151
1651.04132 1.74144
1648.99288 1.74165
1646.94444 1.74161
1644.89600 1.73507
1642.84756 1.72656
1640.79912 1.72199
1638.75069 1.72053
1636.70225 1.71922
1634.65381 1.71236
1632.60537 1.70296
1630.55693 1.69513
1628.50849 1.68636
1626.46006 1.67770
1624.41162 1.66678
1622.36318 1.65251
1620.31474 1.63776
1618.26630 1.62419
1616.21786 1.60298
1614.16943 1.57951
1612.12099 1.55836
1610.07255 1.53384
1608.02411 1.50363
1605.97567 1.46917
1603.92723 1.43163
1601.87880 1.38746
1599.83036 1.33894
1597.78192 1.28571
1595.73348 1.22300
1593.68504 1.14995
1591.63660 1.07255
1589.58817 0.99299
1587.53973 0.91762
1585.49129 0.85492
1583.44285 0.81052
1581.39441 0.78725
1579.34597 0.78171
1577.29754 0.79224
1575.24910 0.81554
1573.20066 0.82932
1571.15222 0.83581
1569.10378 0.83789
1567.05534 0.82561
1565.00691 0.79741
1562.95847 0.76342
1560.91003 0.72802
1558.86159 0.64745
1556.81315 0.57625
1554.76471 0.54633
1552.71628 0.52056
1550.66784 0.49906
1548.61940 0.48143
1546.57096 0.47017
1544.52252 0.46371
1542.47408 0.45857
1540.42565 0.45097
1538.37721 0.44239
1536.32877 0.43742
1534.28033 0.43463
1532.23189 0.43160
1530.18345 0.42810
1528.13501 0.42616
1526.08658 0.42564
1524.03814 0.42475
1521.98970 0.42348
1519.94126 0.42127
1517.89282 0.41883
1515.84438 0.41610
1513.79595 0.41271
1511.74751 0.41096
1509.69907 0.41146
1507.65063 0.41319
1505.60219 0.41045
1503.55375 0.40606
1501.50532 0.40340
1499.45688 0.40262
1497.40844 0.40286
1495.36000 0.40104
1493.31156 0.39858
1491.26312 0.39884
1489.21469 0.40133
1487.16625 0.39964
1485.11781 0.39588
1483.06937 0.39373
1481.02093 0.39307
1478.97249 0.39275
1476.92406 0.39336
1474.87562 0.39589
1472.82718 0.39897
1470.77874 0.39867
1468.73030 0.39784
1466.68186 0.40222
1464.63343 0.41686
1462.58499 0.43688
1460.53655 0.45841
1458.48811 0.49888
1456.43967 0.57332
1454.39123 0.61544
1452.34280 0.63649
1450.29436 0.65904
1448.24592 0.68591
1446.19748 0.71266
1444.14904 0.73417
1442.10060 0.75366
1440.05217 0.77172
1438.00373 0.79031
1435.95529 0.81414
1433.90685 0.83074
1431.85841 0.84214
1429.80997 0.85557
1427.76154 0.86739
1425.71310 0.87657
1423.66466 0.88593
1421.61622 0.89435
1419.56778 0.90497
1417.51934 0.91828
1415.47091 0.92563
1413.42247 0.93196
1411.37403 0.94011
1409.32559 0.94869
1407.27715 0.95679
1405.22871 0.96614
1403.18028 0.97440
1401.13184 0.98070
1399.08340 0.98858
1397.03496 0.99698
1394.98652 1.00423
1392.93808 1.00931
1390.88965 1.01297
1388.84121 1.01834
1386.79277 1.02596
1384.74433 1.03116
1382.69589 1.03532
1380.64745 1.04062
1378.59901 1.04647
1376.55058 1.05263
1374.50214 1.05964
1372.45370 1.06517
1370.40526 1.06859
1368.35682 1.07254
1366.30838 1.07653
1364.25995 1.08152
1362.21151 1.08727
1360.16307 1.09081
1358.11463 1.09313
1356.06619 1.09648
1354.01775 1.10018
1351.96932 1.10352
1349.92088 1.10711
1347.87244 1.11074
1345.82400 1.11406
1343.77556 1.11726
1341.72712 1.12190
1339.67869 1.12763
1337.63025 1.13120
1335.58181 1.13230
1333.53337 1.13398
1331.48493 1.13660
1329.43649 1.13934
1327.38806 1.14202
1325.33962 1.14484
1323.29118 1.14796
1321.24274 1.15127
1319.19430 1.15497
1317.14586 1.15805
1315.09743 1.16062
1313.04899 1.16302
1311.00055 1.16509
1308.95211 1.16706
1306.90367 1.16926
1304.85523 1.17130
1302.80680 1.17331
1300.75836 1.17566
1298.70992 1.17821
1296.66148 1.18086
1294.61304 1.18323
1292.56460 1.18557
1290.51617 1.18802
1288.46773 1.19055
1286.41929 1.19249
1284.37085 1.19390
1282.32241 1.19541
1280.27397 1.19709
1278.22554 1.19878
1276.17710 1.20046
1274.12866 1.20255
1272.08022 1.20488
1270.03178 1.20676
1267.98334 1.20808
1265.93491 1.20969
1263.88647 1.21166
1261.83803 1.21377
1259.78959 1.21581
1257.74115 1.21765
1255.69271 1.21954
1253.64428 1.22154
1251.59584 1.22354
1249.54740 1.22544
1247.49896 1.22716
1245.45052 1.22861
1243.40208 1.23017
1241.35364 1.23182
1239.30521 1.23347
1237.25677 1.23505
1235.20833 1.23649
1233.15989 1.23798
1231.11145 1.23958
1229.06301 1.24118
1227.01458 1.24285
1224.96614 1.24455
1222.91770 1.24609
1220.86926 1.24767
1218.82082 1.24927
1216.77238 1.25090
1214.72395 1.25263
1212.67551 1.25422
1210.62707 1.25530
1208.57863 1.25623
1206.53019 1.25758
1204.48175 1.25936
1202.43332 1.26126
1200.38488 1.26284
1198.33644 1.26423
1196.28800 1.26550
1194.23956 1.26661
1192.19112 1.26775
1190.14269 1.26904
1188.09425 1.27019
1186.04581 1.27099
1183.99737 1.27162
1181.94893 1.27253
1179.90049 1.27367
1177.85206 1.27473
1175.80362 1.27571
1173.75518 1.27647
1171.70674 1.27720
1169.65830 1.27823
1167.60986 1.27929
1165.56143 1.28031
1163.51299 1.28174
1161.46455 1.28346
1159.41611 1.28480
1157.36767 1.28555
1155.31923 1.28629
1153.27080 1.28744
1151.22236 1.28894
1149.17392 1.29061
1147.12548 1.29220
1145.07704 1.29358
1143.02860 1.29468
1140.98017 1.29579
1138.93173 1.29713
1136.88329 1.29841
1134.83485 1.29939
1132.78641 1.30030
1130.73797 1.30156
1128.68954 1.30310
1126.64110 1.30466
1124.59266 1.30590
1122.54422 1.30696
1120.49578 1.30801
1118.44734 1.30909
1116.39891 1.31041
1114.35047 1.31225
1112.30203 1.31436
1110.25359 1.31636
1108.20515 1.31816
1106.15671 1.31982
1104.10827 1.32193
1102.05984 1.32443
1100.01140 1.32730
1097.96296 1.33076
1095.91452 1.33512
1093.86608 1.34083
1091.81764 1.34904
1089.76921 1.36230
1087.72077 1.37473
1085.67233 1.33451
1083.62389 1.24535
1081.57545 1.20765
1079.52701 1.23913
1077.47858 1.27675
1075.43014 1.29301
1073.38170 1.30078
1071.33326 1.30598
1069.28482 1.30969
1067.23638 1.31196
1065.18795 1.31363
1063.13951 1.31570
1061.09107 1.31791
1059.04263 1.31845
1056.99419 1.31797
1054.94575 1.31792
1052.89732 1.31861
1050.84888 1.31898
1048.80044 1.31878
1046.75200 1.31837
1044.70356 1.31830
1042.65512 1.31825
1040.60669 1.31802
1038.55825 1.31765
1036.50981 1.31693
1034.46137 1.31619
1032.41293 1.31491
1030.36449 1.31293
1028.31606 1.31083
1026.26762 1.30920
1024.21918 1.30728
1022.17074 1.30504
1020.12230 1.30287
1018.07386 1.30127
1016.02543 1.30076
1013.97699 1.30105
1011.92855 1.30187
1009.88011 1.30317
1007.83167 1.30525
1005.78323 1.30792
1003.73480 1.31141
1001.68636 1.31607
999.63792 1.32125
997.58948 1.32612
995.54104 1.33136
993.49260 1.33697
991.44417 1.34243
989.39573 1.34789
987.34729 1.35315
985.29885 1.35825
983.25041 1.36350
981.20197 1.36918
979.15354 1.37468
977.10510 1.37942
975.05666 1.38371
973.00822 1.38830
970.95978 1.39285
968.91134 1.39701
966.86290 1.40136
964.81447 1.40600
962.76603 1.41059
960.71759 1.41497
958.66915 1.41914
956.62071 1.42258
954.57227 1.42572
952.52384 1.42945
950.47540 1.43389
948.42696 1.43852
946.37852 1.44304
944.33008 1.44714
942.28164 1.45061
940.23321 1.45413
938.18477 1.45853
936.13633 1.46345
934.08789 1.46779
932.03945 1.47244
929.99101 1.47817
927.94258 1.48355
925.89414 1.48817
923.84570 1.49316
921.79726 1.49866
919.74882 1.50474
917.70038 1.51126
915.65195 1.51799
913.60351 1.52540
911.55507 1.53212
909.50663 1.53498
907.45819 1.53558
905.40975 1.53860
903.36132 1.54432
901.31288 1.55033
899.26444 1.55483
897.21600 1.55692
895.16756 1.55573
893.11912 1.55007
891.07069 1.53755
889.02225 1.51387
886.97381 1.47114
884.92537 1.39537
882.87693 1.26126
880.82849 1.05257
878.78006 0.82415
876.73162 0.65217
874.68318 0.55768
872.63474 0.51750
870.58630 0.50112
868.53786 0.49262
866.48943 0.48760
864.44099 0.48473
862.39255 0.48352
860.34411 0.48407
858.29567 0.48720
856.24723 0.49872
854.19880 0.53719
852.15036 0.62233
850.10192 0.74369
848.05348 0.85962
846.00504 0.93381
843.95660 0.96032
841.90817 0.97722
839.85973 1.01248
837.81129 1.05150
835.76285 1.08219
833.71441 1.10706
831.66597 1.12779
829.61753 1.14559
827.56910 1.16160
825.52066 1.17599
823.47222 1.18924
821.42378 1.20173
819.37534 1.21351
817.32690 1.22435
815.27847 1.23376
813.23003 1.24256
811.18159 1.25099
809.13315 1.25852
807.08471 1.26572
805.03627 1.27280
802.98784 1.27890
800.93940 1.28439
798.89096 1.28986
796.84252 1.29511
794.79408 1.30022
792.74564 1.30578
790.69721 1.31186
788.64877 1.31802
786.60033 1.32391
784.55189 1.32893
782.50345 1.33269
780.45501 1.33606
778.40658 1.33986
776.35814 1.34387
774.30970 1.34828
772.26126 1.35312
770.21282 1.35760
768.16438 1.36118
766.11595 1.36458
764.06751 1.36788
762.01907 1.37106
759.97063 1.37536
757.92219 1.38083
755.87375 1.38556
753.82532 1.38918
751.77688 1.39319
749.72844 1.39781
747.68000 1.40179
745.63156 1.40455
743.58312 1.40775
741.53469 1.41184
739.48625 1.41655
737.43781 1.42232
735.38937 1.42991
733.34093 1.43844
731.29249 1.44694
729.24406 1.45582
727.19562 1.46709
725.14718 1.48175
723.09874 1.50040
721.05030 1.52781
719.00186 1.55685
716.95343 1.47751
714.90499 1.26509
712.85655 1.13206
710.80811 1.15245
708.75967 1.24997
706.71123 1.32394
704.66280 1.36457
702.61436 1.38183
700.56592 1.37615
698.51748 1.36986
696.46904 1.37850
694.42060 1.39169
692.37216 1.40163
690.32373 1.40840
688.27529 1.41428
686.22685 1.42150
684.17841 1.42722
682.12997 1.42922
680.08153 1.43153
678.03310 1.43410
675.98466 1.43522
673.93622 1.44092
671.88778 1.44981
669.83934 1.45558
667.79090 1.45556
665.74247 1.45632
663.69403 1.45864
661.64559 1.46232
659.59715 1.46367
657.54871 1.46338
655.50027 1.46787
653.45184 1.47442
651.40340 1.47850
649.35496 1.47974
647.30652 1.48160
645.25808 1.48444
643.20964 1.48319
641.16121 1.47471
639.11277 1.47088
637.06433 1.47619
635.01589 1.48390
632.96745 1.49123
630.91901 1.49365
628.87058 1.49419
626.82214 1.49641
624.77370 1.49972
622.72526 1.50876
620.67682 1.52007
618.62838 1.52298
616.57995 1.52189
614.53151 1.52413
612.48307 1.52704
610.43463 1.52225
608.38619 1.51488
606.33775 1.52306
604.28932 1.54847
602.24088 1.56936
600.19244 1.57401
598.14400 1.57113
