3996.50324 1.44485
3994.45480 1.44703
3992.40636 1.44989
3990.35792 1.45199
3988.30948 1.45267
3986.26104 1.45251
3984.21261 1.45255
3982.16417 1.45374
3980.11573 1.45540
3978.06729 1.45603
3976.01885 1.45583
3973.97041 1.45567
3971.92198 1.45590
3969.87354 1.45663
3967.82510 1.45681
3965.77666 1.45601
3963.72822 1.45515
3961.67978 1.45449
3959.63135 1.45334
3957.58291 1.45134
3955.53447 1.44891
3953.48603 1.44667
3951.43759 1.44524
3949.38915 1.44523
3947.34072 1.44548
3945.29228 1.44357
3943.24384 1.44225
3941.19540 1.44329
3939.14696 1.44235
3937.09852 1.43950
3935.05009 1.43740
3933.00165 1.43760
3930.95321 1.43956
3928.90477 1.43883
3926.85633 1.43591
3924.80789 1.43558
3922.75946 1.43607
3920.71102 1.43349
3918.66258 1.43181
3916.61414 1.43267
3914.56570 1.43147
3912.51726 1.42799
3910.46883 1.42504
3908.42039 1.42254
3906.37195 1.42014
3904.32351 1.42176
3902.27507 1.42760
3900.22663 1.43136
3898.17820 1.43140
3896.12976 1.42633
3894.08132 1.41907
3892.03288 1.41805
3889.98444 1.42120
3887.93600 1.41733
3885.88756 1.41410
3883.83913 1.41583
3881.79069 1.41362
3879.74225 1.41168
3877.69381 1.40806
3875.64537 1.40140
3873.59693 1.39978
3871.54850 1.40195
3869.50006 1.40561
3867.45162 1.40631
3865.40318 1.40309
3863.35474 1.40471
3861.30630 1.40586
3859.25787 1.40064
3857.20943 1.39220
3855.16099 1.38551
3853.11255 1.39983
3851.06411 1.41624
3849.01567 1.41114
3846.96724 1.40096
3844.91880 1.39429
3842.87036 1.39316
3840.82192 1.39369
3838.77348 1.39718
3836.72504 1.40511
3834.67661 1.40661
3832.62817 1.40327
3830.57973 1.40070
3828.53129 1.39869
3826.48285 1.39757
3824.43441 1.39466
3822.38598 1.39146
3820.33754 1.39988
3818.28910 1.40467
3816.24066 1.40396
3814.19222 1.40653
3812.14378 1.40263
3810.09535 1.39493
3808.04691 1.39259
3805.99847 1.39776
3803.95003 1.39721
3801.90159 1.39695
3799.85315 1.40538
3797.80472 1.40694
3795.75628 1.40591
3793.70784 1.40393
3791.65940 1.39983
3789.61096 1.39787
3787.56252 1.39757
3785.51409 1.39857
3783.46565 1.39989
3781.41721 1.39859
3779.36877 1.40075
3777.32033 1.40582
3775.27189 1.40454
3773.22346 1.39955
3771.17502 1.39814
3769.12658 1.40332
3767.07814 1.40677
3765.02970 1.40699
3762.98126 1.40566
3760.93283 1.40301
3758.88439 1.40570
3756.83595 1.40937
3754.78751 1.40485
3752.73907 1.39857
3750.69063 1.40809
3748.64219 1.42205
3746.59376 1.41960
3744.54532 1.41887
3742.49688 1.42472
3740.44844 1.42327
3738.40000 1.41833
3736.35156 1.42003
3734.30313 1.43111
3732.25469 1.43648
3730.20625 1.43425
3728.15781 1.43059
3726.10937 1.43017
3724.06093 1.43431
3722.01250 1.43869
3719.96406 1.44140
3717.91562 1.44278
3715.86718 1.44231
3713.81874 1.44122
3711.77030 1.44899
3709.72187 1.46586
3707.67343 1.47367
3705.62499 1.47626
3703.57655 1.48030
3701.52811 1.48933
3699.47967 1.49725
3697.43124 1.50064
3695.38280 1.50454
3693.33436 1.50972
3691.28592 1.51614
3689.23748 1.52705
3687.18904 1.53429
3685.14061 1.53307
3683.09217 1.52929
3681.04373 1.52543
3678.99529 1.52122
3676.94685 1.51904
3674.89841 1.52097
3672.84998 1.51898
3670.80154 1.51663
3668.75310 1.51891
3666.70466 1.51843
3664.65622 1.51693
3662.60778 1.51855
3660.55935 1.52131
3658.51091 1.52370
3656.46247 1.52890
3654.41403 1.53367
3652.36559 1.53373
3650.31715 1.53833
3648.26872 1.55363
3646.22028 1.55690
3644.17184 1.55367
3642.12340 1.55273
3640.07496 1.55461
3638.02652 1.55755
3635.97809 1.56106
3633.92965 1.56557
3631.88121 1.56995
3629.83277 1.57666
3627.78433 1.58596
3625.73589 1.58715
3623.68746 1.58591
3621.63902 1.58704
3619.59058 1.59196
3617.54214 1.59703
3615.49370 1.59907
3613.44526 1.60188
3611.39682 1.60513
3609.34839 1.60831
3607.29995 1.61164
3605.25151 1.61322
3603.20307 1.61509
3601.15463 1.61880
3599.10619 1.62196
3597.05776 1.62375
3595.00932 1.62581
3592.96088 1.62703
3590.91244 1.62639
3588.86400 1.62677
3586.81556 1.62916
3584.76713 1.62886
3582.71869 1.62673
3580.67025 1.62526
3578.62181 1.62528
3576.57337 1.62724
3574.52493 1.62949
3572.47650 1.63081
3570.42806 1.63301
3568.37962 1.63808
3566.33118 1.64336
3564.28274 1.64251
3562.23430 1.63920
3560.18587 1.63692
3558.13743 1.63576
3556.08899 1.63567
3554.04055 1.63698
3551.99211 1.63855
3549.94367 1.63896
3547.89524 1.64009
3545.84680 1.64243
3543.79836 1.64301
3541.74992 1.64183
3539.70148 1.64149
3537.65304 1.64314
3535.60461 1.64467
3533.55617 1.64452
3531.50773 1.64450
3529.45929 1.64618
3527.41085 1.64892
3525.36241 1.65029
3523.31398 1.64977
3521.26554 1.64953
3519.21710 1.65017
3517.16866 1.65104
3515.12022 1.65179
3513.07178 1.65205
3511.02335 1.65219
3508.97491 1.65271
3506.92647 1.65353
3504.87803 1.65470
3502.82959 1.65521
3500.78115 1.65426
3498.73272 1.65347
3496.68428 1.65372
3494.63584 1.65463
3492.58740 1.65530
3490.53896 1.65583
3488.49052 1.65705
3486.44209 1.65799
3484.39365 1.65798
3482.34521 1.65818
3480.29677 1.65845
3478.24833 1.65751
3476.19989 1.65651
3474.15146 1.65749
3472.10302 1.65918
3470.05458 1.65936
3468.00614 1.65906
3465.95770 1.65943
3463.90926 1.65949
3461.86082 1.65946
3459.81239 1.66021
3457.76395 1.66078
3455.71551 1.66048
3453.66707 1.66072
3451.61863 1.66204
3449.57019 1.66288
3447.52176 1.66257
3445.47332 1.66169
3443.42488 1.66095
3441.37644 1.66035
3439.32800 1.65966
3437.27956 1.65888
3435.23113 1.65861
3433.18269 1.65980
3431.13425 1.66212
3429.08581 1.66439
3427.03737 1.66487
3424.98893 1.66385
3422.94050 1.66413
3420.89206 1.66586
3418.84362 1.66645
3416.79518 1.66525
3414.74674 1.66397
3412.69830 1.66333
3410.64987 1.66232
3408.60143 1.66076
3406.55299 1.65997
3404.50455 1.66099
3402.45611 1.66272
3400.40767 1.66341
3398.35924 1.66322
3396.31080 1.66322
3394.26236 1.66329
3392.21392 1.66302
3390.16548 1.66336
3388.11704 1.66401
3386.06861 1.66367
3384.02017 1.66326
3381.97173 1.66430
3379.92329 1.66581
3377.87485 1.66645
3375.82641 1.66675
3373.77798 1.66698
3371.72954 1.66725
3369.68110 1.66767
3367.63266 1.66757
3365.58422 1.66690
3363.53578 1.66607
3361.48735 1.66610
3359.43891 1.66750
3357.39047 1.66909
3355.34203 1.66947
3353.29359 1.66852
3351.24515 1.66727
3349.19672 1.66649
3347.14828 1.66670
3345.09984 1.66759
3343.05140 1.66855
3341.00296 1.67034
3338.95452 1.67255
3336.90609 1.67224
3334.85765 1.66927
3332.80921 1.66741
3330.76077 1.66780
3328.71233 1.66835
3326.66389 1.66825
3324.61545 1.66813
3322.56702 1.66833
3320.51858 1.66844
3318.47014 1.66805
3316.42170 1.66746
3314.37326 1.66692
3312.32482 1.66725
3310.27639 1.66891
3308.22795 1.67005
3306.17951 1.66977
3304.13107 1.66975
3302.08263 1.67046
3300.03419 1.67109
3297.98576 1.67142
3295.93732 1.67125
3293.88888 1.67084
3291.84044 1.67065
3289.79200 1.67052
3287.74356 1.67047
3285.69513 1.67052
3283.64669 1.67005
3281.59825 1.66990
3279.54981 1.67069
3277.50137 1.67065
3275.45293 1.66980
3273.40450 1.66989
3271.35606 1.67113
3269.30762 1.67211
3267.25918 1.67176
3265.21074 1.67083
3263.16230 1.67099
3261.11387 1.67218
3259.06543 1.67243
3257.01699 1.67166
3254.96855 1.67130
3252.92011 1.67162
3250.87167 1.67194
3248.82324 1.67169
3246.77480 1.67143
3244.72636 1.67160
3242.67792 1.67210
3240.62948 1.67257
3238.58104 1.67246
3236.53261 1.67238
3234.48417 1.67270
3232.43573 1.67287
3230.38729 1.67358
3228.33885 1.67434
3226.29041 1.67358
3224.24198 1.67292
3222.19354 1.67420
3220.14510 1.67598
3218.09666 1.67578
3216.04822 1.67389
3213.99978 1.67315
3211.95135 1.67389
3209.90291 1.67421
3207.85447 1.67335
3205.80603 1.67250
3203.75759 1.67264
3201.70915 1.67322
3199.66072 1.67347
3197.61228 1.67294
3195.56384 1.67234
3193.51540 1.67280
3191.46696 1.67347
3189.41852 1.67269
3187.37008 1.67078
3185.32165 1.66927
3183.27321 1.66895
3181.22477 1.66957
3179.17633 1.67041
3177.12789 1.67104
3175.07945 1.67102
3173.03102 1.67059
3170.98258 1.67027
3168.93414 1.67028
3166.88570 1.67077
3164.83726 1.67056
3162.78882 1.66969
3160.74039 1.66993
3158.69195 1.67029
3156.64351 1.66956
3154.59507 1.66891
3152.54663 1.66874
3150.49819 1.66845
3148.44976 1.66846
3146.40132 1.66893
3144.35288 1.66884
3142.30444 1.66818
3140.25600 1.66741
3138.20756 1.66722
3136.15913 1.66818
3134.11069 1.66896
3132.06225 1.66854
3130.01381 1.66774
3127.96537 1.66723
3125.91693 1.66735
3123.86850 1.66772
3121.82006 1.66728
3119.77162 1.66669
3117.72318 1.66611
3115.67474 1.66505
3113.62630 1.66481
3111.57787 1.66517
3109.52943 1.66538
3107.48099 1.66630
3105.43255 1.66744
3103.38411 1.66730
3101.33567 1.66607
3099.28724 1.66506
3097.23880 1.66493
3095.19036 1.66574
3093.14192 1.66628
3091.09348 1.66504
3089.04504 1.66339
3086.99661 1.66325
3084.94817 1.66400
3082.89973 1.66412
3080.85129 1.66332
3078.80285 1.66296
3076.75441 1.66332
3074.70598 1.66334
3072.65754 1.66300
3070.60910 1.66232
3068.56066 1.66115
3066.51222 1.66016
3064.46378 1.66024
3062.41535 1.66161
3060.36691 1.66236
3058.31847 1.66145
3056.27003 1.66081
3054.22159 1.66093
3052.17315 1.66134
3050.12471 1.66208
3048.07628 1.66193
3046.02784 1.66072
3043.97940 1.65943
3041.93096 1.65864
3039.88252 1.65947
3037.83408 1.66110
3035.78565 1.66125
3033.73721 1.66116
3031.68877 1.66208
3029.64033 1.66189
3027.59189 1.66069
3025.54345 1.66020
3023.49502 1.66012
3021.44658 1.66019
3019.39814 1.66052
3017.34970 1.66072
3015.30126 1.66021
3013.25282 1.65919
3011.20439 1.65869
3009.15595 1.65952
3007.10751 1.66179
3005.05907 1.66347
3003.01063 1.66256
3000.96219 1.66113
2998.91376 1.66151
2996.86532 1.66250
2994.81688 1.66300
2992.76844 1.66342
2990.72000 1.66382
2988.67156 1.66443
2986.62313 1.66462
2984.57469 1.66353
2982.52625 1.66201
2980.47781 1.66116
2978.42937 1.66091
2976.38093 1.66012
2974.33250 1.65887
2972.28406 1.65850
2970.23562 1.65914
2968.18718 1.65986
2966.13874 1.66093
2964.09030 1.66172
2962.04187 1.66061
2959.99343 1.65909
2957.94499 1.65858
2955.89655 1.65825
2953.84811 1.65776
2951.79967 1.65772
2949.75124 1.65809
2947.70280 1.65763
2945.65436 1.65652
2943.60592 1.65641
2941.55748 1.65792
2939.50904 1.65959
2937.46061 1.65971
2935.41217 1.65914
2933.36373 1.65955
2931.31529 1.65967
2929.26685 1.65849
2927.21841 1.65807
2925.16998 1.65920
2923.12154 1.66032
2921.07310 1.66027
2919.02466 1.65952
2916.97622 1.65856
2914.92778 1.65597
2912.87934 1.65140
2910.83091 1.64742
2908.78247 1.64512
2906.73403 1.64352
2904.68559 1.64257
2902.63715 1.64200
2900.58871 1.64086
2898.54028 1.63904
2896.49184 1.63697
2894.44340 1.63497
2892.39496 1.63277
2890.34652 1.63048
2888.29808 1.62893
2886.24965 1.62751
2884.20121 1.62550
2882.15277 1.62393
2880.10433 1.62310
2878.05589 1.62264
2876.00745 1.62190
2873.95902 1.62066
2871.91058 1.61983
2869.86214 1.61955
2867.81370 1.61984
2865.76526 1.62056
2863.71682 1.62087
2861.66839 1.62098
2859.61995 1.62166
2857.57151 1.62293
2855.52307 1.62437
2853.47463 1.62494
2851.42619 1.62402
2849.37776 1.62213
2847.32932 1.61943
2845.28088 1.61571
2843.23244 1.61182
2841.18400 1.60821
2839.13556 1.60477
2837.08713 1.60197
2835.03869 1.59976
2832.99025 1.59762
2830.94181 1.59506
2828.89337 1.59242
2826.84493 1.59053
2824.79650 1.58881
2822.74806 1.58638
2820.69962 1.58376
2818.65118 1.58171
2816.60274 1.58021
2814.55430 1.57891
2812.50587 1.57706
2810.45743 1.57446
2808.40899 1.57244
2806.36055 1.57179
2804.31211 1.57109
2802.26367 1.56958
2800.21524 1.56808
2798.16680 1.56643
2796.11836 1.56441
2794.06992 1.56264
2792.02148 1.56111
2789.97304 1.55977
2787.92461 1.55901
2785.87617 1.55849
2783.82773 1.55779
2781.77929 1.55708
2779.73085 1.55650
2777.68241 1.55587
2775.63397 1.55511
2773.58554 1.55446
2771.53710 1.55394
2769.48866 1.55313
2767.44022 1.55162
2765.39178 1.54990
2763.34334 1.54856
2761.29491 1.54777
2759.24647 1.54718
2757.19803 1.54626
2755.14959 1.54517
2753.10115 1.54417
2751.05271 1.54338
2749.00428 1.54270
2746.95584 1.54199
2744.90740 1.54148
2742.85896 1.54101
2740.81052 1.54055
2738.76208 1.54027
2736.71365 1.53965
2734.66521 1.53909
2732.61677 1.53923
2730.56833 1.53933
2728.51989 1.53897
2726.47145 1.53831
2724.42302 1.53793
2722.37458 1.53848
2720.32614 1.53932
2718.27770 1.53925
2716.22926 1.53814
2714.18082 1.53707
2712.13239 1.53662
2710.08395 1.53632
2708.03551 1.53604
2705.98707 1.53622
2703.93863 1.53686
2701.89019 1.53728
2699.84176 1.53724
2697.79332 1.53740
2695.74488 1.53782
2693.69644 1.53817
2691.64800 1.53872
2689.59956 1.53935
2687.55113 1.54017
2685.50269 1.54133
2683.45425 1.54259
2681.40581 1.54386
2679.35737 1.54510
2677.30893 1.54657
2675.26050 1.54901
2673.21206 1.55249
2671.16362 1.55610
2669.11518 1.55960
2667.06674 1.56325
2665.01830 1.56701
2662.96987 1.57070
2660.92143 1.57440
2658.87299 1.57802
2656.82455 1.58076
2654.77611 1.58221
2652.72767 1.58306
2650.67924 1.58435
2648.63080 1.58621
2646.58236 1.58808
2644.53392 1.58955
2642.48548 1.59066
2640.43704 1.59204
2638.38860 1.59364
2636.34017 1.59492
2634.29173 1.59571
2632.24329 1.59577
2630.19485 1.59499
2628.14641 1.59446
2626.09797 1.59489
2624.04954 1.59535
2622.00110 1.59512
2619.95266 1.59456
2617.90422 1.59415
2615.85578 1.59389
2613.80734 1.59316
2611.75891 1.59205
2609.71047 1.59125
2607.66203 1.59052
2605.61359 1.59008
2603.56515 1.59018
2601.51671 1.58985
2599.46828 1.58915
2597.41984 1.58889
2595.37140 1.58905
2593.32296 1.58935
2591.27452 1.58933
2589.22608 1.58922
2587.17765 1.59003
2585.12921 1.59123
2583.08077 1.59198
2581.03233 1.59311
2578.98389 1.59517
2576.93545 1.59738
2574.88702 1.59904
2572.83858 1.60047
2570.79014 1.60189
2568.74170 1.60323
2566.69326 1.60477
2564.64482 1.60677
2562.59639 1.60854
2560.54795 1.60934
2558.49951 1.61061
2556.45107 1.61341
2554.40263 1.61652
2552.35419 1.61938
2550.30576 1.62150
2548.25732 1.62114
2546.20888 1.61814
2544.16044 1.61429
2542.11200 1.61177
2540.06356 1.61243
2538.01513 1.61626
2535.96669 1.62206
2533.91825 1.62855
2531.86981 1.63394
2529.82137 1.63703
2527.77293 1.63800
2525.72450 1.63787
2523.67606 1.63692
2521.62762 1.63472
2519.57918 1.63077
2517.53074 1.62514
2515.48230 1.61998
2513.43387 1.61774
2511.38543 1.61868
2509.33699 1.62158
2507.28855 1.62560
2505.24011 1.62961
2503.19167 1.63228
2501.14324 1.63369
2499.09480 1.63409
2497.04636 1.63274
2494.99792 1.62971
2492.94948 1.62583
2490.90104 1.62145
2488.85260 1.61688
2486.80417 1.61245
2484.75573 1.60803
2482.70729 1.60310
2480.65885 1.59714
2478.61041 1.59018
2476.56197 1.58277
2474.51354 1.57550
2472.46510 1.56924
2470.41666 1.56435
2468.36822 1.55993
2466.31978 1.55556
2464.27134 1.55134
2462.22291 1.54691
2460.17447 1.54222
2458.12603 1.53805
2456.07759 1.53480
2454.02915 1.53195
2451.98071 1.52922
2449.93228 1.52699
2447.88384 1.52567
2445.83540 1.52427
2443.78696 1.52229
2441.73852 1.52078
2439.69008 1.51978
2437.64165 1.51860
2435.59321 1.51758
2433.54477 1.51661
2431.49633 1.51480
2429.44789 1.51263
2427.39945 1.51129
2425.35102 1.51034
2423.30258 1.50919
2421.25414 1.50820
2419.20570 1.50734
2417.15726 1.50660
2415.10882 1.50626
2413.06039 1.50633
2411.01195 1.50676
2408.96351 1.50722
2406.91507 1.50739
2404.86663 1.50751
2402.81819 1.50746
2400.76976 1.50746
2398.72132 1.50804
2396.67288 1.50900
2394.62444 1.51001
2392.57600 1.51109
2390.52756 1.51236
2388.47913 1.51385
2386.43069 1.51594
2384.38225 1.51931
2382.33381 1.52371
2380.28537 1.52814
2378.23693 1.53268
2376.18850 1.53807
2374.14006 1.54387
2372.09162 1.54906
2370.04318 1.55186
2367.99474 1.55169
2365.94630 1.55362
2363.89787 1.56013
2361.84943 1.56403
2359.80099 1.56659
2357.75255 1.57099
2355.70411 1.57242
2353.65567 1.57300
2351.60723 1.57222
2349.55880 1.56700
2347.51036 1.55960
2345.46192 1.55554
2343.41348 1.55759
2341.36504 1.55893
2339.31660 1.55775
2337.26817 1.55548
2335.21973 1.55392
2333.17129 1.55528
2331.12285 1.55645
2329.07441 1.55592
2327.02597 1.55451
2324.97754 1.55157
2322.92910 1.54845
2320.88066 1.54580
2318.83222 1.54119
2316.78378 1.53405
2314.73534 1.52795
2312.68691 1.52499
2310.63847 1.52281
2308.59003 1.51977
2306.54159 1.51626
2304.49315 1.51207
2302.44471 1.50713
2300.39628 1.50133
2298.34784 1.49487
2296.29940 1.48905
2294.25096 1.48448
2292.20252 1.48088
2290.15408 1.47839
2288.10565 1.47712
2286.05721 1.47657
2284.00877 1.47624
2281.96033 1.47593
2279.91189 1.47575
2277.86345 1.47611
2275.81502 1.47702
2273.76658 1.47833
2271.71814 1.48024
2269.66970 1.48261
2267.62126 1.48510
2265.57282 1.48738
2263.52439 1.48916
2261.47595 1.49071
2259.42751 1.49273
2257.37907 1.49481
2255.33063 1.49586
2253.28219 1.49608
2251.23376 1.49610
2249.18532 1.49629
2247.13688 1.49676
2245.08844 1.49726
2243.04000 1.49710
2240.99156 1.49658
2238.94313 1.49692
2236.89469 1.49782
2234.84625 1.49790
2232.79781 1.49732
2230.74937 1.49745
2228.70093 1.49821
2226.65250 1.49847
2224.60406 1.49857
2222.55562 1.49960
2220.50718 1.50103
2218.45874 1.50194
2216.41030 1.50286
2214.36186 1.50431
2212.31343 1.50639
2210.26499 1.50907
2208.21655 1.51182
2206.16811 1.51413
2204.11967 1.51652
2202.07123 1.51933
2200.02280 1.52169
2197.97436 1.52314
2195.92592 1.52419
2193.87748 1.52561
2191.82904 1.52780
2189.78060 1.53021
2187.73217 1.53229
2185.68373 1.53483
2183.63529 1.53840
2181.58685 1.54164
2179.53841 1.54301
2177.48997 1.54277
2175.44154 1.54214
2173.39310 1.54197
2171.34466 1.54281
2169.29622 1.54485
2167.24778 1.54769
2165.19934 1.55056
2163.15091 1.55310
2161.10247 1.55573
2159.05403 1.55846
2157.00559 1.56077
2154.95715 1.56291
2152.90871 1.56461
2150.86028 1.56420
2148.81184 1.56088
2146.76340 1.55648
2144.71496 1.55341
2142.66652 1.55218
2140.61808 1.55198
2138.56965 1.55200
2136.52121 1.55171
2134.47277 1.55092
2132.42433 1.55009
2130.37589 1.54962
2128.32745 1.54938
2126.27902 1.54913
2124.23058 1.54851
2122.18214 1.54766
2120.13370 1.54687
2118.08526 1.54576
2116.03682 1.54401
2113.98839 1.54142
2111.93995 1.53754
2109.89151 1.53252
2107.84307 1.52716
2105.79463 1.52155
2103.74619 1.51465
2101.69776 1.50664
2099.64932 1.49907
2097.60088 1.49278
2095.55244 1.48804
2093.50400 1.48480
2091.45556 1.48256
2089.40713 1.48061
2087.35869 1.47867
2085.31025 1.47713
2083.26181 1.47619
2081.21337 1.47586
2079.16493 1.47604
2077.11649 1.47660
2075.06806 1.47738
2073.01962 1.47808
2070.97118 1.47856
2068.92274 1.47918
2066.87430 1.48039
2064.82586 1.48169
2062.77743 1.48232
2060.72899 1.48254
2058.68055 1.48267
2056.63211 1.48255
2054.58367 1.48287
2052.53523 1.48402
2050.48680 1.48463
2048.43836 1.48436
2046.38992 1.48422
2044.34148 1.48480
2042.29304 1.48619
2040.24460 1.48760
2038.19617 1.48846
2036.14773 1.48939
2034.09929 1.49081
2032.05085 1.49245
2030.00241 1.49422
2027.95397 1.49577
2025.90554 1.49661
2023.85710 1.49752
2021.80866 1.49895
2019.76022 1.50062
2017.71178 1.50279
2015.66334 1.50458
2013.61491 1.50553
2011.56647 1.50700
2009.51803 1.50923
2007.46959 1.51111
2005.42115 1.51222
2003.37271 1.51289
2001.32428 1.51411
1999.27584 1.51643
1997.22740 1.51881
1995.17896 1.52045
1993.13052 1.52241
1991.08208 1.52587
1989.03365 1.53010
1986.98521 1.53412
1984.93677 1.53713
1982.88833 1.53923
1980.83989 1.54093
1978.79145 1.54231
1976.74302 1.54328
1974.69458 1.54380
1972.64614 1.54451
1970.59770 1.54585
1968.54926 1.54810
1966.50082 1.55082
1964.45239 1.55257
1962.40395 1.55347
1960.35551 1.55488
1958.30707 1.55723
1956.25863 1.55990
1954.21019 1.56214
1952.16176 1.56369
1950.11332 1.56471
1948.06488 1.56594
1946.01644 1.56783
1943.96800 1.57031
1941.91956 1.57392
1939.87112 1.57718
1937.82269 1.57925
1935.77425 1.58132
1933.72581 1.58359
1931.67737 1.58497
1929.62893 1.58524
1927.58049 1.58572
1925.53206 1.58742
1923.48362 1.59086
1921.43518 1.59443
1919.38674 1.59710
1917.33830 1.60043
1915.28986 1.60352
1913.24143 1.60560
1911.19299 1.60795
1909.14455 1.61108
1907.09611 1.61429
1905.04767 1.61685
1902.99923 1.61902
1900.95080 1.62127
1898.90236 1.62360
1896.85392 1.62656
1894.80548 1.63032
1892.75704 1.63369
1890.70860 1.63701
1888.66017 1.64038
1886.61173 1.64232
1884.56329 1.64436
1882.51485 1.64812
1880.46641 1.65286
1878.41797 1.65729
1876.36954 1.66072
1874.32110 1.66409
1872.27266 1.66804
1870.22422 1.67335
1868.17578 1.67986
1866.12734 1.68481
1864.07891 1.68855
1862.03047 1.69290
1859.98203 1.69801
1857.93359 1.70329
1855.88515 1.70897
1853.83671 1.71497
1851.78828 1.72056
1849.73984 1.72613
1847.69140 1.73226
1845.64296 1.73942
1843.59452 1.74821
1841.54608 1.75448
1839.49765 1.75924
1837.44921 1.76574
1835.40077 1.77239
1833.35233 1.77759
1831.30389 1.78376
1829.25545 1.79291
1827.20702 1.80083
1825.15858 1.80797
1823.11014 1.81625
1821.06170 1.82335
1819.01326 1.83016
1816.96482 1.83827
1814.91639 1.84558
1812.86795 1.85173
1810.81951 1.85932
1808.77107 1.86719
1806.72263 1.87367
1804.67419 1.88049
1802.62575 1.88965
1800.57732 1.89927
1798.52888 1.90339
1796.48044 1.90151
1794.43200 1.89922
1792.38356 1.90000
1790.33512 1.89649
1788.28669 1.88723
1786.23825 1.87936
1784.18981 1.87528
1782.14137 1.87250
1780.09293 1.86868
1778.04449 1.86487
1775.99606 1.86335
1773.94762 1.86575
1771.89918 1.87331
1769.85074 1.88011
1767.80230 1.88375
1765.75386 1.88665
1763.70543 1.88894
1761.65699 1.89250
1759.60855 1.89818
1757.56011 1.90444
1755.51167 1.90902
1753.46323 1.91326
1751.41480 1.92210
1749.36636 1.93266
1747.31792 1.93539
1745.26948 1.93465
1743.22104 1.93677
1741.17260 1.94219
1739.12417 1.94685
1737.07573 1.94841
1735.02729 1.95422
1732.97885 1.96275
1730.93041 1.96052
1728.88197 1.95497
1726.83354 1.95284
1724.78510 1.95561
1722.73666 1.96079
1720.68822 1.96768
1718.63978 1.97968
1716.59134 1.99156
1714.54291 1.98834
1712.49447 1.98279
1710.44603 1.98124
1708.39759 1.98426
1706.34915 1.99058
1704.30071 1.99460
1702.25228 1.99546
1700.20384 1.99644
1698.15540 1.99746
1696.10696 1.99578
1694.05852 1.99347
1692.01008 1.99352
1689.96165 1.99731
1687.91321 2.00162
1685.86477 2.00626
1683.81633 2.01283
1681.76789 2.01452
1679.71945 2.01339
1677.67102 2.01330
1675.62258 2.01747
1673.57414 2.02061
1671.52570 2.02082
1669.47726 2.02032
1667.42882 2.01973
1665.38038 2.01877
1663.33195 2.01816
1661.28351 2.01546
1659.23507 2.01205
1657.18663 2.01044
1655.13819 2.00970
1653.08975 2.01100
1651.04132 2.01246
1648.99288 2.01677
1646.94444 2.01806
1644.89600 2.01093
1642.84756 2.00346
1640.79912 1.99908
1638.75069 1.99567
1636.70225 1.99229
1634.65381 1.98476
1632.60537 1.97544
1630.55693 1.96793
1628.50849 1.95867
1626.46006 1.94958
1624.41162 1.93854
1622.36318 1.92203
1620.31474 1.90545
1618.26630 1.89265
1616.21786 1.87365
1614.16943 1.85251
1612.12099 1.83256
1610.07255 1.80856
1608.02411 1.77979
1605.97567 1.74738
1603.92723 1.71146
1601.87880 1.66898
1599.83036 1.62316
1597.78192 1.57300
1595.73348 1.51390
1593.68504 1.44572
1591.63660 1.37425
1589.58817 1.30017
1587.53973 1.22799
1585.49129 1.16576
1583.44285 1.11967
1581.39441 1.09340
1579.34597 1.08484
1577.29754 1.09370
1575.24910 1.12031
1573.20066 1.14244
1571.15222 1.16090
1569.10378 1.17878
1567.05534 1.17182
1565.00691 1.13487
1562.95847 1.08890
1560.91003 1.04280
1558.86159 0.93943
1556.81315 0.85200
1554.76471 0.81763
1552.71628 0.78855
1550.66784 0.76406
1548.61940 0.74400
1546.57096 0.73157
1544.52252 0.72421
1542.47408 0.71768
1540.42565 0.70777
1538.37721 0.69775
1536.32877 0.69327
1534.28033 0.69110
1532.23189 0.68848
1530.18345 0.68616
1528.13501 0.68609
1526.08658 0.68783
1524.03814 0.68946
1521.98970 0.69128
1519.94126 0.69212
1517.89282 0.69207
1515.84438 0.69162
1513.79595 0.69010
1511.74751 0.68982
1509.69907 0.69142
1507.65063 0.69355
1505.60219 0.69102
1503.55375 0.68793
1501.50532 0.68683
1499.45688 0.68749
1497.40844 0.68881
1495.36000 0.68772
1493.31156 0.68608
1491.26312 0.68678
1489.21469 0.68826
1487.16625 0.68496
1485.11781 0.68026
1483.06937 0.67723
1481.02093 0.67552
1478.97249 0.67452
1476.92406 0.67486
1474.87562 0.67672
1472.82718 0.67744
1470.77874 0.67448
1468.73030 0.67223
1466.68186 0.67389
1464.63343 0.68050
1462.58499 0.68898
1460.53655 0.69988
1458.48811 0.72877
1456.43967 0.79320
1454.39123 0.83588
1452.34280 0.86079
1450.29436 0.88739
1448.24592 0.91783
1446.19748 0.94717
1444.14904 0.97014
1442.10060 0.99072
1440.05217 1.01007
1438.00373 1.03025
1435.95529 1.05504
1433.90685 1.07236
1431.85841 1.08487
1429.80997 1.09967
1427.76154 1.11300
1425.71310 1.12381
1423.66466 1.13494
1421.61622 1.14520
1419.56778 1.15764
1417.51934 1.17183
1415.47091 1.17920
1413.42247 1.18579
1411.37403 1.19459
1409.32559 1.20371
1407.27715 1.21214
1405.22871 1.22177
1403.18028 1.23085
1401.13184 1.23884
1399.08340 1.24831
1397.03496 1.25710
1394.98652 1.26369
1392.93808 1.26805
1390.88965 1.27137
1388.84121 1.27627
1386.79277 1.28304
1384.74433 1.28764
1382.69589 1.29138
1380.64745 1.29618
1378.59901 1.30140
1376.55058 1.30656
1374.50214 1.31163
1372.45370 1.31532
1370.40526 1.31840
1368.35682 1.32263
1366.30838 1.32717
1364.25995 1.33311
1362.21151 1.33969
1360.16307 1.34320
1358.11463 1.34467
1356.06619 1.34677
1354.01775 1.34888
1351.96932 1.35045
1349.92088 1.35262
1347.87244 1.35559
1345.82400 1.35925
1343.77556 1.36366
1341.72712 1.36979
1339.67869 1.37679
1337.63025 1.38095
1335.58181 1.38242
1333.53337 1.38496
1331.48493 1.38929
1329.43649 1.39443
1327.38806 1.39944
1325.33962 1.40377
1323.29118 1.40737
1321.24274 1.41070
1319.19430 1.41435
1317.14586 1.41718
1315.09743 1.41930
1313.04899 1.42133
1311.00055 1.42330
1308.95211 1.42544
1306.90367 1.42777
1304.85523 1.42962
1302.80680 1.43129
1300.75836 1.43309
1298.70992 1.43471
1296.66148 1.43644
1294.61304 1.43848
1292.56460 1.44101
1290.51617 1.44395
1288.46773 1.44690
1286.41929 1.44918
1284.37085 1.45084
1282.32241 1.45217
1280.27397 1.45366
1278.22554 1.45521
1276.17710 1.45669
1274.12866 1.45840
1272.08022 1.46020
1270.03178 1.46184
1267.98334 1.46304
1265.93491 1.46427
1263.88647 1.46611
1261.83803 1.46870
1259.78959 1.47118
1257.74115 1.47330
1255.69271 1.47551
1253.64428 1.47780
1251.59584 1.48011
1249.54740 1.48213
1247.49896 1.48338
1245.45052 1.48371
1243.40208 1.48428
1241.35364 1.48592
1239.30521 1.48814
1237.25677 1.48983
1235.20833 1.49052
1233.15989 1.49088
1231.11145 1.49210
1229.06301 1.49425
1227.01458 1.49662
1224.96614 1.49913
1222.91770 1.50166
1220.86926 1.50384
1218.82082 1.50552
1216.77238 1.50714
1214.72395 1.50868
1212.67551 1.50959
1210.62707 1.50993
1208.57863 1.51048
1206.53019 1.51135
1204.48175 1.51190
1202.43332 1.51236
1200.38488 1.51349
1198.33644 1.51512
1196.28800 1.51654
1194.23956 1.51782
1192.19112 1.51948
1190.14269 1.52186
1188.09425 1.52455
1186.04581 1.52658
1183.99737 1.52774
1181.94893 1.52891
1179.90049 1.53067
1177.85206 1.53279
1175.80362 1.53476
1173.75518 1.53624
1171.70674 1.53723
1169.65830 1.53776
1167.60986 1.53824
1165.56143 1.53915
1163.51299 1.54000
1161.46455 1.54023
1159.41611 1.54059
1157.36767 1.54153
1155.31923 1.54237
1153.27080 1.54333
1151.22236 1.54458
1149.17392 1.54551
1147.12548 1.54609
1145.07704 1.54620
1143.02860 1.54550
1140.98017 1.54469
1138.93173 1.54453
1136.88329 1.54484
1134.83485 1.54458
1132.78641 1.54380
1130.73797 1.54391
1128.68954 1.54430
1126.64110 1.54390
1124.59266 1.54344
1122.54422 1.54347
1120.49578 1.54360
1118.44734 1.54429
1116.39891 1.54596
1114.35047 1.54826
1112.30203 1.55034
1110.25359 1.55240
1108.20515 1.55566
1106.15671 1.55984
1104.10827 1.56450
1102.05984 1.56951
1100.01140 1.57450
1097.96296 1.57976
1095.91452 1.58554
1093.86608 1.59191
1091.81764 1.60117
1089.76921 1.61623
1087.72077 1.63029
1085.67233 1.59508
1083.62389 1.51206
1081.57545 1.47507
1079.52701 1.50354
1077.47858 1.53800
1075.43014 1.55121
1073.38170 1.55594
1071.33326 1.55809
1069.28482 1.55839
1067.23638 1.55708
1065.18795 1.55602
1063.13951 1.55791
1061.09107 1.56288
1059.04263 1.56476
1056.99419 1.56083
1054.94575 1.55681
1052.89732 1.55632
1050.84888 1.55720
1048.80044 1.55844
1046.75200 1.56044
1044.70356 1.56277
1042.65512 1.56486
1040.60669 1.56798
1038.55825 1.57179
1036.50981 1.57485
1034.46137 1.57814
1032.41293 1.58170
1030.36449 1.58480
1028.31606 1.58737
1026.26762 1.58922
1024.21918 1.59072
1022.17074 1.59318
1020.12230 1.59585
1018.07386 1.59782
1016.02543 1.59929
1013.97699 1.60048
1011.92855 1.60190
1009.88011 1.60365
1007.83167 1.60561
1005.78323 1.60751
1003.73480 1.60945
1001.68636 1.61125
999.63792 1.61322
997.58948 1.61562
995.54104 1.61812
993.49260 1.62066
991.44417 1.62342
989.39573 1.62587
987.34729 1.62752
985.29885 1.62857
983.25041 1.62932
981.20197 1.63075
979.15354 1.63349
977.10510 1.63657
975.05666 1.63856
973.00822 1.64001
970.95978 1.64159
968.91134 1.64282
966.86290 1.64366
964.81447 1.64504
962.76603 1.64714
960.71759 1.64856
958.66915 1.64884
956.62071 1.64871
954.57227 1.64952
952.52384 1.65210
950.47540 1.65553
948.42696 1.65869
946.37852 1.66169
944.33008 1.66395
942.28164 1.66578
940.23321 1.66821
938.18477 1.67066
936.13633 1.67259
934.08789 1.67487
932.03945 1.67832
929.99101 1.68223
927.94258 1.68612
925.89414 1.68974
923.84570 1.69290
921.79726 1.69722
919.74882 1.70401
917.70038 1.71235
915.65195 1.72167
913.60351 1.73247
911.55507 1.74255
909.50663 1.74745
907.45819 1.74873
905.40975 1.75081
903.36132 1.75171
901.31288 1.74917
899.26444 1.74538
897.21600 1.74135
895.16756 1.73561
893.11912 1.72645
891.07069 1.71020
889.02225 1.68388
886.97381 1.64262
884.92537 1.57284
882.87693 1.44960
880.82849 1.25100
878.78006 1.01979
876.73162 0.83386
874.68318 0.72351
872.63474 0.67212
870.58630 0.65023
868.53786 0.63976
866.48943 0.63507
864.44099 0.63464
862.39255 0.63746
860.34411 0.64335
858.29567 0.65411
856.24723 0.67657
854.19880 0.72729
852.15036 0.82084
850.10192 0.94331
848.05348 1.05576
846.00504 1.12644
843.95660 1.15090
841.90817 1.16678
839.85973 1.20021
837.81129 1.23673
835.76285 1.26527
833.71441 1.28844
831.66597 1.30860
829.61753 1.32668
827.56910 1.34277
825.52066 1.35697
823.47222 1.36941
821.42378 1.38064
819.37534 1.39100
817.32690 1.40019
815.27847 1.40865
813.23003 1.41699
811.18159 1.42545
809.13315 1.43400
807.08471 1.44144
805.03627 1.44697
802.98784 1.45122
800.93940 1.45664
798.89096 1.46419
796.84252 1.47210
794.79408 1.47925
792.74564 1.48510
790.69721 1.48832
788.64877 1.48899
786.60033 1.49010
784.55189 1.49261
782.50345 1.49399
780.45501 1.49447
778.40658 1.49603
776.35814 1.49846
774.30970 1.50082
772.26126 1.50218
770.21282 1.50324
768.16438 1.50531
766.11595 1.50813
764.06751 1.51117
762.01907 1.51487
759.97063 1.51880
757.92219 1.52218
755.87375 1.52470
753.82532 1.52688
751.77688 1.53037
749.72844 1.53517
747.68000 1.53970
745.63156 1.54412
743.58312 1.54895
741.53469 1.55314
739.48625 1.55842
737.43781 1.56597
735.38937 1.57351
733.34093 1.58014
731.29249 1.58718
729.24406 1.59530
727.19562 1.60626
725.14718 1.62054
723.09874 1.64005
721.05030 1.66904
719.00186 1.69450
716.95343 1.62391
714.90499 1.44289
712.85655 1.33047
710.80811 1.35378
708.75967 1.43939
706.71123 1.49842
704.66280 1.53290
702.61436 1.54728
700.56592 1.52475
698.51748 1.49722
696.46904 1.49859
694.42060 1.51605
692.37216 1.52993
690.32373 1.53601
688.27529 1.53861
686.22685 1.54107
684.17841 1.54593
682.12997 1.55369
680.08153 1.55614
678.03310 1.55008
675.98466 1.54378
673.93622 1.54209
671.88778 1.54714
669.83934 1.55948
667.79090 1.56349
665.74247 1.55764
663.69403 1.55537
661.64559 1.55639
659.59715 1.56315
657.54871 1.57224
655.50027 1.57457
653.45184 1.57390
651.40340 1.57892
649.35496 1.58690
647.30652 1.59120
645.25808 1.58776
643.20964 1.58399
641.16121 1.58952
639.11277 1.60186
637.06433 1.60842
635.01589 1.60713
632.96745 1.59971
630.91901 1.58874
628.87058 1.58237
626.82214 1.58565
624.77370 1.59959
622.72526 1.60608
620.67682 1.59398
618.62838 1.58194
616.57995 1.58718
614.53151 1.60090
612.48307 1.61193
610.43463 1.61461
608.38619 1.58930
606.33775 1.55117
604.28932 1.54039
602.24088 1.55437
600.19244 1.57088
598.14400 1.58791
