3996.50324 1.35752
3994.45480 1.36092
3992.40636 1.36377
3990.35792 1.36572
3988.30948 1.36768
3986.26104 1.36966
3984.21261 1.37128
3982.16417 1.37253
3980.11573 1.37319
3978.06729 1.37313
3976.01885 1.37324
3973.97041 1.37398
3971.92198 1.37498
3969.87354 1.37594
3967.82510 1.37655
3965.77666 1.37640
3963.72822 1.37486
3961.67978 1.37186
3959.63135 1.36736
3957.58291 1.36208
3955.53447 1.35713
3953.48603 1.35267
3951.43759 1.34917
3949.38915 1.34748
3947.34072 1.34606
3945.29228 1.34346
3943.24384 1.34184
3941.19540 1.34132
3939.14696 1.34007
3937.09852 1.33861
3935.05009 1.33735
3933.00165 1.33717
3930.95321 1.33756
3928.90477 1.33590
3926.85633 1.33362
3924.80789 1.33291
3922.75946 1.33178
3920.71102 1.32895
3918.66258 1.32671
3916.61414 1.32584
3914.56570 1.32424
3912.51726 1.32163
3910.46883 1.31937
3908.42039 1.31768
3906.37195 1.31718
3904.32351 1.31885
3902.27507 1.32010
3900.22663 1.31991
3898.17820 1.31833
3896.12976 1.31389
3894.08132 1.30892
3892.03288 1.30648
3889.98444 1.30392
3887.93600 1.29871
3885.88756 1.29557
3883.83913 1.29409
3881.79069 1.29060
3879.74225 1.28759
3877.69381 1.28304
3875.64537 1.27803
3873.59693 1.27593
3871.54850 1.27510
3869.50006 1.27481
3867.45162 1.27276
3865.40318 1.27003
3863.35474 1.27080
3861.30630 1.27066
3859.25787 1.26724
3857.20943 1.26279
3855.16099 1.26018
3853.11255 1.26896
3851.06411 1.27622
3849.01567 1.27244
3846.96724 1.26732
3844.91880 1.26462
3842.87036 1.26431
3840.82192 1.26434
3838.77348 1.26657
3836.72504 1.27075
3834.67661 1.27068
3832.62817 1.26870
3830.57973 1.26742
3828.53129 1.26624
3826.48285 1.26585
3824.43441 1.26430
3822.38598 1.26325
3820.33754 1.26840
3818.28910 1.27001
3816.24066 1.26988
3814.19222 1.27065
3812.14378 1.26784
3810.09535 1.26428
3808.04691 1.26408
3805.99847 1.26715
3803.95003 1.26706
3801.90159 1.26922
3799.85315 1.27412
3797.80472 1.27385
3795.75628 1.27325
3793.70784 1.27181
3791.65940 1.26943
3789.61096 1.26824
3787.56252 1.26768
3785.51409 1.26848
3783.46565 1.26974
3781.41721 1.26990
3779.36877 1.27242
3777.32033 1.27469
3775.27189 1.27306
3773.22346 1.27091
3771.17502 1.27151
3769.12658 1.27490
3767.07814 1.27626
3765.02970 1.27607
3762.98126 1.27518
3760.93283 1.27473
3758.88439 1.27848
3756.83595 1.28130
3754.78751 1.27916
3752.73907 1.27810
3750.69063 1.28709
3748.64219 1.29319
3746.59376 1.28957
3744.54532 1.29152
3742.49688 1.29657
3740.44844 1.29506
3738.40000 1.29313
3736.35156 1.29720
3734.30313 1.30543
3732.25469 1.30760
3730.20625 1.30461
3728.15781 1.30208
3726.10937 1.30376
3724.06093 1.30817
3722.01250 1.31132
3719.96406 1.31219
3717.91562 1.31128
3715.86718 1.30980
3713.81874 1.30944
3711.77030 1.31511
3709.72187 1.32391
3707.67343 1.32603
3705.62499 1.32541
3703.57655 1.32614
3701.52811 1.33031
3699.47967 1.33408
3697.43124 1.33600
3695.38280 1.33830
3693.33436 1.34024
3691.28592 1.34421
3689.23748 1.35484
3687.18904 1.36184
3685.14061 1.36193
3683.09217 1.36155
3681.04373 1.36259
3678.99529 1.36408
3676.94685 1.36792
3674.89841 1.37820
3672.84998 1.38128
3670.80154 1.38320
3668.75310 1.39327
3666.70466 1.39754
3664.65622 1.39839
3662.60778 1.40173
3660.55935 1.40655
3658.51091 1.41241
3656.46247 1.42312
3654.41403 1.43272
3652.36559 1.43503
3650.31715 1.44243
3648.26872 1.46472
3646.22028 1.47638
3644.17184 1.47922
3642.12340 1.48284
3640.07496 1.48927
3638.02652 1.49773
3635.97809 1.50704
3633.92965 1.51657
3631.88121 1.52430
3629.83277 1.53552
3627.78433 1.55772
3625.73589 1.57001
3623.68746 1.57520
3621.63902 1.58237
3619.59058 1.59582
3617.54214 1.61155
3615.49370 1.62252
3613.44526 1.63252
3611.39682 1.64064
3609.34839 1.64834
3607.29995 1.66018
3605.25151 1.67235
3603.20307 1.68446
3601.15463 1.69960
3599.10619 1.71460
3597.05776 1.72657
3595.00932 1.73593
3592.96088 1.74173
3590.91244 1.74395
3588.86400 1.74554
3586.81556 1.74782
3584.76713 1.74886
3582.71869 1.75042
3580.67025 1.75475
3578.62181 1.76079
3576.57337 1.76704
3574.52493 1.77447
3572.47650 1.78242
3570.42806 1.78964
3568.37962 1.79747
3566.33118 1.80616
3564.28274 1.80979
3562.23430 1.81091
3560.18587 1.81394
3558.13743 1.81922
3556.08899 1.82481
3554.04055 1.82958
3551.99211 1.83372
3549.94367 1.83656
3547.89524 1.83938
3545.84680 1.84393
3543.79836 1.84962
3541.74992 1.85331
3539.70148 1.85425
3537.65304 1.85521
3535.60461 1.85901
3533.55617 1.86380
3531.50773 1.86800
3529.45929 1.87316
3527.41085 1.87821
3525.36241 1.88156
3523.31398 1.88350
3521.26554 1.88534
3519.21710 1.88873
3517.16866 1.89389
3515.12022 1.89876
3513.07178 1.90236
3511.02335 1.90438
3508.97491 1.90507
3506.92647 1.90628
3504.87803 1.90713
3502.82959 1.90662
3500.78115 1.90768
3498.73272 1.91203
3496.68428 1.91723
3494.63584 1.92122
3492.58740 1.92307
3490.53896 1.92312
3488.49052 1.92384
3486.44209 1.92645
3484.39365 1.92862
3482.34521 1.92926
3480.29677 1.93029
3478.24833 1.93258
3476.19989 1.93517
3474.15146 1.93585
3472.10302 1.93432
3470.05458 1.93310
3468.00614 1.93371
3465.95770 1.93539
3463.90926 1.93680
3461.86082 1.93806
3459.81239 1.94031
3457.76395 1.94170
3455.71551 1.93977
3453.66707 1.93698
3451.61863 1.93683
3449.57019 1.93861
3447.52176 1.93957
3445.47332 1.93933
3443.42488 1.94099
3441.37644 1.94604
3439.32800 1.94908
3437.27956 1.94728
3435.23113 1.94551
3433.18269 1.94640
3431.13425 1.94739
3429.08581 1.94722
3427.03737 1.94776
3424.98893 1.94925
3422.94050 1.94928
3420.89206 1.94678
3418.84362 1.94433
3416.79518 1.94369
3414.74674 1.94483
3412.69830 1.94611
3410.64987 1.94497
3408.60143 1.94402
3406.55299 1.94834
3404.50455 1.95468
3402.45611 1.95582
3400.40767 1.95371
3398.35924 1.95348
3396.31080 1.95441
3394.26236 1.95431
3392.21392 1.95341
3390.16548 1.95223
3388.11704 1.95280
3386.06861 1.95638
3384.02017 1.96046
3381.97173 1.96223
3379.92329 1.95989
3377.87485 1.95479
3375.82641 1.95130
3373.77798 1.95168
3371.72954 1.95374
3369.68110 1.95543
3367.63266 1.95785
3365.58422 1.95910
3363.53578 1.95610
3361.48735 1.95294
3359.43891 1.95386
3357.39047 1.95635
3355.34203 1.95767
3353.29359 1.95926
3351.24515 1.96206
3349.19672 1.96362
3347.14828 1.96293
3345.09984 1.96102
3343.05140 1.95947
3341.00296 1.95955
3338.95452 1.95952
3336.90609 1.95809
3334.85765 1.95701
3332.80921 1.95694
3330.76077 1.95711
3328.71233 1.95819
3326.66389 1.96002
3324.61545 1.95980
3322.56702 1.95681
3320.51858 1.95477
3318.47014 1.95610
3316.42170 1.95908
3314.37326 1.96076
3312.32482 1.96001
3310.27639 1.95882
3308.22795 1.95873
3306.17951 1.95983
3304.13107 1.95988
3302.08263 1.95698
3300.03419 1.95623
3297.98576 1.96013
3295.93732 1.96270
3293.88888 1.96292
3291.84044 1.96328
3289.79200 1.96171
3287.74356 1.95918
3285.69513 1.95893
3283.64669 1.96012
3281.59825 1.96111
3279.54981 1.96143
3277.50137 1.96113
3275.45293 1.96085
3273.40450 1.96179
3271.35606 1.96442
3269.30762 1.96580
3267.25918 1.96398
3265.21074 1.96231
3263.16230 1.96266
3261.11387 1.96312
3259.06543 1.96224
3257.01699 1.96131
3254.96855 1.96293
3252.92011 1.96553
3250.87167 1.96542
3248.82324 1.96286
3246.77480 1.96093
3244.72636 1.96116
3242.67792 1.96172
3240.62948 1.96151
3238.58104 1.96198
3236.53261 1.96392
3234.48417 1.96548
3232.43573 1.96460
3230.38729 1.96231
3228.33885 1.96091
3226.29041 1.96116
3224.24198 1.96215
3222.19354 1.96124
3220.14510 1.95829
3218.09666 1.95812
3216.04822 1.96041
3213.99978 1.95988
3211.95135 1.95776
3209.90291 1.95693
3207.85447 1.95626
3205.80603 1.95525
3203.75759 1.95451
3201.70915 1.95389
3199.66072 1.95345
3197.61228 1.95259
3195.56384 1.95106
3193.51540 1.95075
3191.46696 1.95018
3189.41852 1.94763
3187.37008 1.94614
3185.32165 1.94749
3183.27321 1.94805
3181.22477 1.94490
3179.17633 1.94178
3177.12789 1.94123
3175.07945 1.94042
3173.03102 1.93770
3170.98258 1.93589
3168.93414 1.93661
3166.88570 1.93714
3164.83726 1.93578
3162.78882 1.93283
3160.74039 1.93034
3158.69195 1.92931
3156.64351 1.92808
3154.59507 1.92704
3152.54663 1.92637
3150.49819 1.92469
3148.44976 1.92260
3146.40132 1.92147
3144.35288 1.92069
3142.30444 1.91901
3140.25600 1.91799
3138.20756 1.91854
3136.15913 1.91842
3134.11069 1.91656
3132.06225 1.91318
3130.01381 1.91008
3127.96537 1.90976
3125.91693 1.91129
3123.86850 1.91130
3121.82006 1.90984
3119.77162 1.90893
3117.72318 1.90664
3115.67474 1.90198
3113.62630 1.89861
3111.57787 1.89856
3109.52943 1.89945
3107.48099 1.89880
3105.43255 1.89765
3103.38411 1.89666
3101.33567 1.89503
3099.28724 1.89385
3097.23880 1.89331
3095.19036 1.89154
3093.14192 1.88891
3091.09348 1.88720
3089.04504 1.88502
3086.99661 1.88204
3084.94817 1.88161
3082.89973 1.88309
3080.85129 1.88310
3078.80285 1.88160
3076.75441 1.87998
3074.70598 1.87832
3072.65754 1.87585
3070.60910 1.87263
3068.56066 1.86999
3066.51222 1.86837
3064.46378 1.86659
3062.41535 1.86493
3060.36691 1.86442
3058.31847 1.86425
3056.27003 1.86361
3054.22159 1.86320
3052.17315 1.86430
3050.12471 1.86657
3048.07628 1.86786
3046.02784 1.86757
3043.97940 1.86795
3041.93096 1.86989
3039.88252 1.87092
3037.83408 1.86949
3035.78565 1.86691
3033.73721 1.86473
3031.68877 1.86414
3029.64033 1.86455
3027.59189 1.86459
3025.54345 1.86521
3023.49502 1.86629
3021.44658 1.86564
3019.39814 1.86329
3017.34970 1.86218
3015.30126 1.86372
3013.25282 1.86586
3011.20439 1.86676
3009.15595 1.86699
3007.10751 1.86857
3005.05907 1.87101
3003.01063 1.87233
3000.96219 1.87375
2998.91376 1.87585
2996.86532 1.87717
2994.81688 1.87711
2992.76844 1.87671
2990.72000 1.87847
2988.67156 1.88102
2986.62313 1.88036
2984.57469 1.87752
2982.52625 1.87450
2980.47781 1.87101
2978.42937 1.86753
2976.38093 1.86474
2974.33250 1.86297
2972.28406 1.86132
2970.23562 1.85923
2968.18718 1.85789
2966.13874 1.85707
2964.09030 1.85541
2962.04187 1.85323
2959.99343 1.85223
2957.94499 1.85273
2955.89655 1.85263
2953.84811 1.85122
2951.79967 1.84943
2949.75124 1.84806
2947.70280 1.84884
2945.65436 1.85093
2943.60592 1.85053
2941.55748 1.84811
2939.50904 1.84754
2937.46061 1.84993
2935.41217 1.85341
2933.36373 1.85522
2931.31529 1.85524
2929.26685 1.85573
2927.21841 1.85682
2925.16998 1.85858
2923.12154 1.86119
2921.07310 1.86293
2919.02466 1.86285
2916.97622 1.86017
2914.92778 1.85256
2912.87934 1.84082
2910.83091 1.82879
2908.78247 1.81791
2906.73403 1.80923
2904.68559 1.80412
2902.63715 1.80140
2900.58871 1.79892
2898.54028 1.79522
2896.49184 1.78956
2894.44340 1.78186
2892.39496 1.77315
2890.34652 1.76471
2888.29808 1.75733
2886.24965 1.75100
2884.20121 1.74549
2882.15277 1.74147
2880.10433 1.73867
2878.05589 1.73578
2876.00745 1.73266
2873.95902 1.73004
2871.91058 1.72861
2869.86214 1.72854
2867.81370 1.72919
2865.76526 1.73022
2863.71682 1.73163
2861.66839 1.73279
2859.61995 1.73426
2857.57151 1.73731
2855.52307 1.74127
2853.47463 1.74398
2851.42619 1.74320
2849.37776 1.73841
2847.32932 1.73023
2845.28088 1.71955
2843.23244 1.70846
2841.18400 1.69891
2839.13556 1.69017
2837.08713 1.68108
2835.03869 1.67330
2832.99025 1.66746
2830.94181 1.66162
2828.89337 1.65496
2826.84493 1.64825
2824.79650 1.64213
2822.74806 1.63616
2820.69962 1.63041
2818.65118 1.62526
2816.60274 1.62047
2814.55430 1.61662
2812.50587 1.61368
2810.45743 1.61041
2808.40899 1.60631
2806.36055 1.60229
2804.31211 1.59948
2802.26367 1.59716
2800.21524 1.59330
2798.16680 1.58828
2796.11836 1.58427
2794.06992 1.58150
2792.02148 1.57896
2789.97304 1.57646
2787.92461 1.57394
2785.87617 1.57177
2783.82773 1.57048
2781.77929 1.56974
2779.73085 1.56953
2777.68241 1.56996
2775.63397 1.56953
2773.58554 1.56710
2771.53710 1.56348
2769.48866 1.55953
2767.44022 1.55605
2765.39178 1.55386
2763.34334 1.55232
2761.29491 1.55005
2759.24647 1.54731
2757.19803 1.54547
2755.14959 1.54413
2753.10115 1.54254
2751.05271 1.54092
2749.00428 1.53941
2746.95584 1.53822
2744.90740 1.53754
2742.85896 1.53708
2740.81052 1.53630
2738.76208 1.53526
2736.71365 1.53464
2734.66521 1.53452
2732.61677 1.53410
2730.56833 1.53305
2728.51989 1.53231
2726.47145 1.53219
2724.42302 1.53197
2722.37458 1.53163
2720.32614 1.53152
2718.27770 1.53118
2716.22926 1.53039
2714.18082 1.52988
2712.13239 1.52974
2710.08395 1.52935
2708.03551 1.52890
2705.98707 1.52904
2703.93863 1.52955
2701.89019 1.53013
2699.84176 1.53093
2697.79332 1.53199
2695.74488 1.53341
2693.69644 1.53515
2691.64800 1.53731
2689.59956 1.53957
2687.55113 1.54144
2685.50269 1.54378
2683.45425 1.54736
2681.40581 1.55127
2679.35737 1.55474
2677.30893 1.55899
2675.26050 1.56490
2673.21206 1.57167
2671.16362 1.57907
2669.11518 1.58723
2667.06674 1.59564
2665.01830 1.60437
2662.96987 1.61312
2660.92143 1.62065
2658.87299 1.62656
2656.82455 1.63169
2654.77611 1.63577
2652.72767 1.63819
2650.67924 1.64052
2648.63080 1.64367
2646.58236 1.64713
2644.53392 1.65078
2642.48548 1.65393
2640.43704 1.65638
2638.38860 1.65897
2636.34017 1.66179
2634.29173 1.66385
2632.24329 1.66489
2630.19485 1.66604
2628.14641 1.66704
2626.09797 1.66635
2624.04954 1.66465
2622.00110 1.66342
2619.95266 1.66281
2617.90422 1.66160
2615.85578 1.65878
2613.80734 1.65545
2611.75891 1.65263
2609.71047 1.65015
2607.66203 1.64774
2605.61359 1.64526
2603.56515 1.64328
2601.51671 1.64287
2599.46828 1.64385
2597.41984 1.64491
2595.37140 1.64536
2593.32296 1.64536
2591.27452 1.64521
2589.22608 1.64566
2587.17765 1.64695
2585.12921 1.64775
2583.08077 1.64828
2581.03233 1.64998
2578.98389 1.65222
2576.93545 1.65455
2574.88702 1.65801
2572.83858 1.66251
2570.79014 1.66738
2568.74170 1.67296
2566.69326 1.67848
2564.64482 1.68278
2562.59639 1.68611
2560.54795 1.68908
2558.49951 1.69225
2556.45107 1.69601
2554.40263 1.70109
2552.35419 1.70754
2550.30576 1.71230
2548.25732 1.71193
2546.20888 1.70609
2544.16044 1.69791
2542.11200 1.69292
2540.06356 1.69498
2538.01513 1.70455
2535.96669 1.71911
2533.91825 1.73513
2531.86981 1.74988
2529.82137 1.76060
2527.77293 1.76594
2525.72450 1.76654
2523.67606 1.76332
2521.62762 1.75685
2519.57918 1.74742
2517.53074 1.73704
2515.48230 1.72867
2513.43387 1.72444
2511.38543 1.72612
2509.33699 1.73369
2507.28855 1.74494
2505.24011 1.75679
2503.19167 1.76653
2501.14324 1.77245
2499.09480 1.77365
2497.04636 1.77010
2494.99792 1.76269
2492.94948 1.75326
2490.90104 1.74256
2488.85260 1.73024
2486.80417 1.71686
2484.75573 1.70287
2482.70729 1.68802
2480.65885 1.67196
2478.61041 1.65378
2476.56197 1.63389
2474.51354 1.61644
2472.46510 1.60414
2470.41666 1.59438
2468.36822 1.58477
2466.31978 1.57617
2464.27134 1.56843
2462.22291 1.55957
2460.17447 1.54987
2458.12603 1.54082
2456.07759 1.53266
2454.02915 1.52557
2451.98071 1.52003
2449.93228 1.51585
2447.88384 1.51231
2445.83540 1.50946
2443.78696 1.50746
2441.73852 1.50613
2439.69008 1.50525
2437.64165 1.50431
2435.59321 1.50320
2433.54477 1.50204
2431.49633 1.50047
2429.44789 1.49815
2427.39945 1.49535
2425.35102 1.49252
2423.30258 1.48978
2421.25414 1.48781
2419.20570 1.48685
2417.15726 1.48570
2415.10882 1.48506
2413.06039 1.48594
2411.01195 1.48714
2408.96351 1.48844
2406.91507 1.49009
2404.86663 1.49120
2402.81819 1.49177
2400.76976 1.49249
2398.72132 1.49335
2396.67288 1.49433
2394.62444 1.49538
2392.57600 1.49610
2390.52756 1.49690
2388.47913 1.49896
2386.43069 1.50245
2384.38225 1.50598
2382.33381 1.50873
2380.28537 1.51144
2378.23693 1.51490
2376.18850 1.51930
2374.14006 1.52409
2372.09162 1.52671
2370.04318 1.52434
2367.99474 1.52070
2365.94630 1.52037
2363.89787 1.52118
2361.84943 1.52470
2359.80099 1.53254
2357.75255 1.53884
2355.70411 1.54310
2353.65567 1.54912
2351.60723 1.55321
2349.55880 1.55098
2347.51036 1.54491
2345.46192 1.53869
2343.41348 1.53413
2341.36504 1.53109
2339.31660 1.52971
2337.26817 1.52927
2335.21973 1.52854
2333.17129 1.52635
2331.12285 1.52376
2329.07441 1.52346
2327.02597 1.52448
2324.97754 1.52458
2322.92910 1.52279
2320.88066 1.51890
2318.83222 1.51356
2316.78378 1.50717
2314.73534 1.50098
2312.68691 1.49647
2310.63847 1.49351
2308.59003 1.49085
2306.54159 1.48707
2304.49315 1.48172
2302.44471 1.47462
2300.39628 1.46495
2298.34784 1.45430
2296.29940 1.44601
2294.25096 1.44036
2292.20252 1.43638
2290.15408 1.43435
2288.10565 1.43369
2286.05721 1.43351
2284.00877 1.43388
2281.96033 1.43475
2279.91189 1.43577
2277.86345 1.43672
2275.81502 1.43771
2273.76658 1.43927
2271.71814 1.44192
2269.66970 1.44507
2267.62126 1.44795
2265.57282 1.45130
2263.52439 1.45578
2261.47595 1.46020
2259.42751 1.46328
2257.37907 1.46557
2255.33063 1.46808
2253.28219 1.47035
2251.23376 1.47126
2249.18532 1.47126
2247.13688 1.47146
2245.08844 1.47179
2243.04000 1.47162
2240.99156 1.47095
2238.94313 1.47051
2236.89469 1.47032
2234.84625 1.46998
2232.79781 1.47010
2230.74937 1.47112
2228.70093 1.47273
2226.65250 1.47468
2224.60406 1.47676
2222.55562 1.47914
2220.50718 1.48192
2218.45874 1.48459
2216.41030 1.48720
2214.36186 1.49022
2212.31343 1.49364
2210.26499 1.49771
2208.21655 1.50305
2206.16811 1.50943
2204.11967 1.51601
2202.07123 1.52204
2200.02280 1.52699
2197.97436 1.53113
2195.92592 1.53561
2193.87748 1.54077
2191.82904 1.54551
2189.78060 1.54944
2187.73217 1.55345
2185.68373 1.55817
2183.63529 1.56310
2181.58685 1.56734
2179.53841 1.57019
2177.48997 1.57111
2175.44154 1.57069
2173.39310 1.57077
2171.34466 1.57302
2169.29622 1.57769
2167.24778 1.58339
2165.19934 1.58893
2163.15091 1.59463
2161.10247 1.60053
2159.05403 1.60559
2157.00559 1.60961
2154.95715 1.61325
2152.90871 1.61475
2150.86028 1.61081
2148.81184 1.60236
2146.76340 1.59351
2144.71496 1.58739
2142.66652 1.58548
2140.61808 1.58702
2138.56965 1.58955
2136.52121 1.59063
2134.47277 1.58894
2132.42433 1.58571
2130.37589 1.58331
2128.32745 1.58184
2126.27902 1.58046
2124.23058 1.57913
2122.18214 1.57782
2120.13370 1.57602
2118.08526 1.57309
2116.03682 1.56877
2113.98839 1.56259
2111.93995 1.55444
2109.89151 1.54532
2107.84307 1.53609
2105.79463 1.52599
2103.74619 1.51397
2101.69776 1.50110
2099.64932 1.48943
2097.60088 1.48008
2095.55244 1.47300
2093.50400 1.46751
2091.45556 1.46262
2089.40713 1.45774
2087.35869 1.45326
2085.31025 1.44990
2083.26181 1.44828
2081.21337 1.44837
2079.16493 1.44926
2077.11649 1.45076
2075.06806 1.45345
2073.01962 1.45713
2070.97118 1.46057
2068.92274 1.46286
2066.87430 1.46407
2064.82586 1.46459
2062.77743 1.46509
2060.72899 1.46562
2058.68055 1.46511
2056.63211 1.46379
2054.58367 1.46320
2052.53523 1.46334
2050.48680 1.46360
2048.43836 1.46467
2046.38992 1.46677
2044.34148 1.46876
2042.29304 1.47021
2040.24460 1.47184
2038.19617 1.47354
2036.14773 1.47452
2034.09929 1.47477
2032.05085 1.47499
2030.00241 1.47516
2027.95397 1.47481
2025.90554 1.47468
2023.85710 1.47582
2021.80866 1.47757
2019.76022 1.47904
2017.71178 1.48093
2015.66334 1.48349
2013.61491 1.48643
2011.56647 1.48953
2009.51803 1.49176
2007.46959 1.49315
2005.42115 1.49502
2003.37271 1.49721
2001.32428 1.49833
1999.27584 1.49861
1997.22740 1.49892
1995.17896 1.49976
1993.13052 1.50285
1991.08208 1.50852
1989.03365 1.51421
1986.98521 1.51982
1984.93677 1.52628
1982.88833 1.53227
1980.83989 1.53640
1978.79145 1.53890
1976.74302 1.54039
1974.69458 1.54094
1972.64614 1.54125
1970.59770 1.54163
1968.54926 1.54246
1966.50082 1.54396
1964.45239 1.54515
1962.40395 1.54649
1960.35551 1.54912
1958.30707 1.55267
1956.25863 1.55631
1954.21019 1.55958
1952.16176 1.56263
1950.11332 1.56602
1948.06488 1.56991
1946.01644 1.57415
1943.96800 1.57854
1941.91956 1.58281
1939.87112 1.58597
1937.82269 1.58927
1935.77425 1.59349
1933.72581 1.59677
1931.67737 1.59791
1929.62893 1.59806
1927.58049 1.59963
1925.53206 1.60315
1923.48362 1.60847
1921.43518 1.61401
1919.38674 1.61895
1917.33830 1.62480
1915.28986 1.62988
1913.24143 1.63410
1911.19299 1.63905
1909.14455 1.64479
1907.09611 1.65010
1905.04767 1.65447
1902.99923 1.65903
1900.95080 1.66439
1898.90236 1.66984
1896.85392 1.67497
1894.80548 1.67960
1892.75704 1.68350
1890.70860 1.68864
1888.66017 1.69590
1886.61173 1.70213
1884.56329 1.70712
1882.51485 1.71292
1880.46641 1.71996
1878.41797 1.72756
1876.36954 1.73464
1874.32110 1.74159
1872.27266 1.74881
1870.22422 1.75831
1868.17578 1.77185
1866.12734 1.78223
1864.07891 1.78835
1862.03047 1.79494
1859.98203 1.80299
1857.93359 1.81227
1855.88515 1.82311
1853.83671 1.83460
1851.78828 1.84577
1849.73984 1.85686
1847.69140 1.86847
1845.64296 1.88156
1843.59452 1.89671
1841.54608 1.90888
1839.49765 1.91922
1837.44921 1.93279
1835.40077 1.94843
1833.35233 1.96249
1831.30389 1.97761
1829.25545 1.99807
1827.20702 2.01721
1825.15858 2.03599
1823.11014 2.05753
1821.06170 2.07835
1819.01326 2.09980
1816.96482 2.12199
1814.91639 2.14462
1812.86795 2.16968
1810.81951 2.19807
1808.77107 2.22564
1806.72263 2.25136
1804.67419 2.27592
1802.62575 2.30127
1800.57732 2.32917
1798.52888 2.35148
1796.48044 2.36462
1794.43200 2.37203
1792.38356 2.38150
1790.33512 2.39640
1788.28669 2.40333
1786.23825 2.40255
1784.18981 2.40323
1782.14137 2.40502
1780.09293 2.40083
1778.04449 2.39552
1775.99606 2.39783
1773.94762 2.40759
1771.89918 2.41740
1769.85074 2.41470
1767.80230 2.40881
1765.75386 2.40859
1763.70543 2.41342
1761.65699 2.42523
1759.60855 2.43719
1757.56011 2.44446
1755.51167 2.44938
1753.46323 2.45322
1751.41480 2.46348
1749.36636 2.48095
1747.31792 2.48976
1745.26948 2.49738
1743.22104 2.51051
1741.17260 2.51850
1739.12417 2.52188
1737.07573 2.52487
1735.02729 2.53342
1732.97885 2.55458
1730.93041 2.56297
1728.88197 2.56192
1726.83354 2.56381
1724.78510 2.56995
1722.73666 2.57994
1720.68822 2.58967
1718.63978 2.60583
1716.59134 2.63942
1714.54291 2.64224
1712.49447 2.62265
1710.44603 2.61066
1708.39759 2.60850
1706.34915 2.61321
1704.30071 2.61871
1702.25228 2.61435
1700.20384 2.60807
1698.15540 2.62309
1696.10696 2.64578
1694.05852 2.65561
1692.01008 2.66070
1689.96165 2.66719
1687.91321 2.66282
1685.86477 2.65777
1683.81633 2.67636
1681.76789 2.68603
1679.71945 2.68365
1677.67102 2.68650
1675.62258 2.69886
1673.57414 2.71403
1671.52570 2.71763
1669.47726 2.70964
1667.42882 2.70161
1665.38038 2.69611
1663.33195 2.69935
1661.28351 2.71107
1659.23507 2.71487
1657.18663 2.70812
1655.13819 2.69184
1653.08975 2.68791
1651.04132 2.70760
1648.99288 2.71059
1646.94444 2.70278
1644.89600 2.69258
1642.84756 2.67817
1640.79912 2.66328
1638.75069 2.65359
1636.70225 2.65886
1634.65381 2.65653
1632.60537 2.63464
1630.55693 2.61769
1628.50849 2.60287
1626.46006 2.58758
1624.41162 2.57060
1622.36318 2.54505
1620.31474 2.51513
1618.26630 2.48960
1616.21786 2.46055
1614.16943 2.42918
1612.12099 2.39628
1610.07255 2.35990
1608.02411 2.32045
1605.97567 2.27567
1603.92723 2.22308
1601.87880 2.16390
1599.83036 2.10451
1597.78192 2.04128
1595.73348 1.96817
1593.68504 1.88970
1591.63660 1.81418
1589.58817 1.74356
1587.53973 1.68261
1585.49129 1.63447
1583.44285 1.59933
1581.39441 1.57742
1579.34597 1.56681
1577.29754 1.56740
1575.24910 1.58288
1573.20066 1.60070
1571.15222 1.62597
1569.10378 1.67417
1567.05534 1.70663
1565.00691 1.69835
1562.95847 1.67082
1560.91003 1.63694
1558.86159 1.56061
1556.81315 1.49422
1554.76471 1.46742
1552.71628 1.44502
1550.66784 1.42664
1548.61940 1.41186
1546.57096 1.40218
1544.52252 1.39619
1542.47408 1.39166
1540.42565 1.38577
1538.37721 1.37788
1536.32877 1.37201
1534.28033 1.36877
1532.23189 1.36698
1530.18345 1.36478
1528.13501 1.36364
1526.08658 1.36413
1524.03814 1.36443
1521.98970 1.36570
1519.94126 1.36689
1517.89282 1.36683
1515.84438 1.36675
1513.79595 1.36510
1511.74751 1.36369
1509.69907 1.36405
1507.65063 1.36732
1505.60219 1.36746
1503.55375 1.36321
1501.50532 1.36040
1499.45688 1.36047
1497.40844 1.36329
1495.36000 1.36459
1493.31156 1.36357
1491.26312 1.36501
1489.21469 1.37190
1487.16625 1.37625
1485.11781 1.37655
1483.06937 1.37766
1481.02093 1.38067
1478.97249 1.38394
1476.92406 1.38723
1474.87562 1.39152
1472.82718 1.39582
1470.77874 1.39550
1468.73030 1.39241
1466.68186 1.39214
1464.63343 1.39804
1462.58499 1.40480
1460.53655 1.41011
1458.48811 1.42966
1456.43967 1.48294
1454.39123 1.51805
1452.34280 1.53596
1450.29436 1.55477
1448.24592 1.57732
1446.19748 1.60007
1444.14904 1.61823
1442.10060 1.63509
1440.05217 1.65156
1438.00373 1.66955
1435.95529 1.69315
1433.90685 1.70940
1431.85841 1.72066
1429.80997 1.73518
1427.76154 1.74725
1425.71310 1.75501
1423.66466 1.76344
1421.61622 1.77184
1419.56778 1.78198
1417.51934 1.79452
1415.47091 1.80124
1413.42247 1.80595
1411.37403 1.81202
1409.32559 1.81864
1407.27715 1.82528
1405.22871 1.83367
1403.18028 1.84129
1401.13184 1.84722
1399.08340 1.85511
1397.03496 1.86297
1394.98652 1.86836
1392.93808 1.87254
1390.88965 1.87631
1388.84121 1.88114
1386.79277 1.88774
1384.74433 1.89262
1382.69589 1.89701
1380.64745 1.90292
1378.59901 1.90825
1376.55058 1.91291
1374.50214 1.91971
1372.45370 1.92608
1370.40526 1.92992
1368.35682 1.93372
1366.30838 1.93714
1364.25995 1.94214
1362.21151 1.94943
1360.16307 1.95411
1358.11463 1.95648
1356.06619 1.95966
1354.01775 1.96362
1351.96932 1.96762
1349.92088 1.97195
1347.87244 1.97657
1345.82400 1.98028
1343.77556 1.98365
1341.72712 1.98878
1339.67869 1.99389
1337.63025 1.99647
1335.58181 1.99884
1333.53337 2.00263
1331.48493 2.00557
1329.43649 2.00766
1327.38806 2.01156
1325.33962 2.01688
1323.29118 2.02136
1321.24274 2.02487
1319.19430 2.02828
1317.14586 2.03088
1315.09743 2.03305
1313.04899 2.03552
1311.00055 2.03846
1308.95211 2.04170
1306.90367 2.04506
1304.85523 2.04803
1302.80680 2.05034
1300.75836 2.05182
1298.70992 2.05227
1296.66148 2.05293
1294.61304 2.05516
1292.56460 2.05857
1290.51617 2.06235
1288.46773 2.06751
1286.41929 2.07281
1284.37085 2.07634
1282.32241 2.07768
1280.27397 2.07644
1278.22554 2.07488
1276.17710 2.07500
1274.12866 2.07516
1272.08022 2.07394
1270.03178 2.07217
1267.98334 2.06964
1265.93491 2.06520
1263.88647 2.05964
1261.83803 2.05586
1259.78959 2.05555
1257.74115 2.05715
1255.69271 2.05887
1253.64428 2.06130
1251.59584 2.06424
1249.54740 2.06593
1247.49896 2.06606
1245.45052 2.06539
1243.40208 2.06432
1241.35364 2.06311
1239.30521 2.06200
1237.25677 2.06074
1235.20833 2.05919
1233.15989 2.05778
1231.11145 2.05649
1229.06301 2.05495
1227.01458 2.05374
1224.96614 2.05388
1222.91770 2.05525
1220.86926 2.05654
1218.82082 2.05642
1216.77238 2.05497
1214.72395 2.05368
1212.67551 2.05343
1210.62707 2.05328
1208.57863 2.05296
1206.53019 2.05399
1204.48175 2.05776
1202.43332 2.06365
1200.38488 2.06952
1198.33644 2.07444
1196.28800 2.07890
1194.23956 2.08190
1192.19112 2.08316
1190.14269 2.08526
1188.09425 2.08886
1186.04581 2.09279
1183.99737 2.09704
1181.94893 2.10110
1179.90049 2.10266
1177.85206 2.10150
1175.80362 2.10116
1173.75518 2.10193
1171.70674 2.10000
1169.65830 2.09477
1167.60986 2.08718
1165.56143 2.07753
1163.51299 2.06783
1161.46455 2.05989
1159.41611 2.05389
1157.36767 2.04788
1155.31923 2.04010
1153.27080 2.03286
1151.22236 2.02816
1149.17392 2.02338
1147.12548 2.01690
1145.07704 2.01046
1143.02860 2.00475
1140.98017 1.99912
1138.93173 1.99332
1136.88329 1.98623
1134.83485 1.97630
1132.78641 1.96438
1130.73797 1.95252
1128.68954 1.94090
1126.64110 1.92738
1124.59266 1.91146
1122.54422 1.89515
1120.49578 1.88074
1118.44734 1.86941
1116.39891 1.86107
1114.35047 1.85583
1112.30203 1.85272
1110.25359 1.85136
1108.20515 1.85340
1106.15671 1.85937
1104.10827 1.86826
1102.05984 1.87993
1100.01140 1.89522
1097.96296 1.91619
1095.91452 1.94543
1093.86608 1.98199
1091.81764 2.02478
1089.76921 2.07914
1087.72077 2.15084
1085.67233 2.20138
1083.62389 2.18061
1081.57545 2.13924
1079.52701 2.10721
1077.47858 2.05686
1075.43014 1.99049
1073.38170 1.92429
1071.33326 1.87042
1069.28482 1.82304
1067.23638 1.77052
1065.18795 1.73077
1063.13951 1.73670
1061.09107 1.78863
1059.04263 1.80294
1056.99419 1.73437
1054.94575 1.66937
1052.89732 1.64280
1050.84888 1.63295
1048.80044 1.62679
1046.75200 1.62276
1044.70356 1.62113
1042.65512 1.62132
1040.60669 1.62280
1038.55825 1.62517
1036.50981 1.62767
1034.46137 1.63005
1032.41293 1.63245
1030.36449 1.63453
1028.31606 1.63650
1026.26762 1.63967
1024.21918 1.64500
1022.17074 1.65146
1020.12230 1.65770
1018.07386 1.66444
1016.02543 1.67253
1013.97699 1.68218
1011.92855 1.69270
1009.88011 1.70392
1007.83167 1.71670
1005.78323 1.73069
1003.73480 1.74548
1001.68636 1.76187
999.63792 1.77964
997.58948 1.79792
995.54104 1.81704
993.49260 1.83685
991.44417 1.85645
989.39573 1.87493
987.34729 1.89117
985.29885 1.90385
983.25041 1.91210
981.20197 1.91664
979.15354 1.91896
977.10510 1.91971
975.05666 1.91795
973.00822 1.91274
970.95978 1.90749
968.91134 1.90685
966.86290 1.91073
964.81447 1.91631
962.76603 1.92081
960.71759 1.92302
958.66915 1.92433
956.62071 1.92754
954.57227 1.93395
952.52384 1.94304
950.47540 1.95406
948.42696 1.96503
946.37852 1.97207
944.33008 1.97457
942.28164 1.97546
940.23321 1.97635
938.18477 1.97817
936.13633 1.98174
934.08789 1.98741
932.03945 1.99329
929.99101 1.99844
927.94258 2.00421
925.89414 2.00960
923.84570 2.01406
921.79726 2.01983
919.74882 2.02804
917.70038 2.03953
915.65195 2.06186
913.60351 2.10949
911.55507 2.19109
909.50663 2.26694
907.45819 2.26107
905.40975 2.19786
903.36132 2.14698
901.31288 2.12067
899.26444 2.10501
897.21600 2.09028
895.16756 2.07619
893.11912 2.06708
891.07069 2.06132
889.02225 2.05382
886.97381 2.04358
884.92537 2.02778
882.87693 1.99282
880.82849 1.91348
878.78006 1.77385
876.73162 1.61441
874.68318 1.49502
872.63474 1.43066
870.58630 1.40215
868.53786 1.38949
866.48943 1.38321
864.44099 1.37967
862.39255 1.37827
860.34411 1.37884
858.29567 1.38098
856.24723 1.38985
854.19880 1.42292
852.15036 1.49766
850.10192 1.60336
848.05348 1.70172
846.00504 1.76121
843.95660 1.78062
841.90817 1.79187
839.85973 1.81451
837.81129 1.83581
835.76285 1.84802
833.71441 1.85440
831.66597 1.85439
829.61753 1.84879
827.56910 1.84218
825.52066 1.83625
823.47222 1.82984
821.42378 1.82205
819.37534 1.81487
817.32690 1.81162
815.27847 1.81295
813.23003 1.81418
811.18159 1.81104
809.13315 1.80639
807.08471 1.80322
805.03627 1.80178
802.98784 1.80203
800.93940 1.80296
798.89096 1.80093
796.84252 1.79552
794.79408 1.79199
792.74564 1.79074
790.69721 1.78974
788.64877 1.78978
786.60033 1.78920
784.55189 1.78599
782.50345 1.78244
780.45501 1.78190
778.40658 1.78483
776.35814 1.78827
774.30970 1.78955
772.26126 1.79073
770.21282 1.79317
768.16438 1.79439
766.11595 1.79603
764.06751 1.80172
762.01907 1.80780
759.97063 1.81064
757.92219 1.81590
755.87375 1.82259
753.82532 1.82280
751.77688 1.82068
749.72844 1.82425
747.68000 1.83483
745.63156 1.84757
743.58312 1.85511
741.53469 1.85681
739.48625 1.86102
737.43781 1.87287
735.38937 1.88978
733.34093 1.90920
731.29249 1.92954
729.24406 1.95054
727.19562 1.97855
725.14718 2.02208
723.09874 2.09186
721.05030 2.20917
719.00186 2.33490
716.95343 2.27674
714.90499 2.07384
712.85655 1.94735
710.80811 1.93803
708.75967 1.97403
706.71123 1.99307
704.66280 2.00994
702.61436 2.03356
700.56592 2.03211
698.51748 2.00091
696.46904 1.96673
694.42060 1.93560
692.37216 1.91234
690.32373 1.90257
688.27529 1.89558
686.22685 1.88818
684.17841 1.88633
682.12997 1.88258
680.08153 1.87485
678.03310 1.87278
675.98466 1.87641
673.93622 1.87851
671.88778 1.87891
669.83934 1.88790
667.79090 1.89914
665.74247 1.89167
663.69403 1.89065
661.64559 1.89718
659.59715 1.89346
657.54871 1.88752
655.50027 1.89196
653.45184 1.89042
651.40340 1.87492
649.35496 1.86690
647.30652 1.87860
645.25808 1.89173
643.20964 1.89309
641.16121 1.90021
639.11277 1.92527
637.06433 1.94157
635.01589 1.92791
632.96745 1.91941
630.91901 1.93657
628.87058 1.95213
626.82214 1.95372
624.77370 1.95652
622.72526 1.95677
620.67682 1.94010
618.62838 1.92673
616.57995 1.93703
614.53151 1.95027
612.48307 1.96266
610.43463 1.97728
608.38619 1.98216
606.33775 1.97350
604.28932 1.92355
602.24088 1.85894
600.19244 1.85268
598.14400 1.90598
