3996.50324 1.08179
3994.45480 1.08243
3992.40636 1.08296
3990.35792 1.08386
3988.30948 1.08464
3986.26104 1.08478
3984.21261 1.08477
3982.16417 1.08495
3980.11573 1.08515
3978.06729 1.08518
3976.01885 1.08524
3973.97041 1.08572
3971.92198 1.08638
3969.87354 1.08690
3967.82510 1.08700
3965.77666 1.08661
3963.72822 1.08644
3961.67978 1.08645
3959.63135 1.08553
3957.58291 1.08390
3955.53447 1.08212
3953.48603 1.08054
3951.43759 1.08008
3949.38915 1.08120
3947.34072 1.08188
3945.29228 1.08084
3943.24384 1.08034
3941.19540 1.08027
3939.14696 1.07918
3937.09852 1.07809
3935.05009 1.07755
3933.00165 1.07828
3930.95321 1.08010
3928.90477 1.07989
3926.85633 1.07834
3924.80789 1.07841
3922.75946 1.07852
3920.71102 1.07728
3918.66258 1.07742
3916.61414 1.07861
3914.56570 1.07728
3912.51726 1.07466
3910.46883 1.07334
3908.42039 1.07260
3906.37195 1.07263
3904.32351 1.07560
3902.27507 1.07849
3900.22663 1.07845
3898.17820 1.07714
3896.12976 1.07411
3894.08132 1.07141
3892.03288 1.07271
3889.98444 1.07406
3887.93600 1.07142
3885.88756 1.07069
3883.83913 1.07201
3881.79069 1.07149
3879.74225 1.07105
3877.69381 1.06800
3875.64537 1.06453
3873.59693 1.06437
3871.54850 1.06624
3869.50006 1.06929
3867.45162 1.06865
3865.40318 1.06654
3863.35474 1.06787
3861.30630 1.06762
3859.25787 1.06458
3857.20943 1.06141
3855.16099 1.06094
3853.11255 1.07083
3851.06411 1.07533
3849.01567 1.06943
3846.96724 1.06380
3844.91880 1.06173
3842.87036 1.06279
3840.82192 1.06479
3838.77348 1.06826
3836.72504 1.07083
3834.67661 1.06896
3832.62817 1.06663
3830.57973 1.06551
3828.53129 1.06468
3826.48285 1.06459
3824.43441 1.06303
3822.38598 1.06216
3820.33754 1.06748
3818.28910 1.06922
3816.24066 1.06880
3814.19222 1.06844
3812.14378 1.06495
3810.09535 1.06127
3808.04691 1.06091
3805.99847 1.06339
3803.95003 1.06320
3801.90159 1.06509
3799.85315 1.06859
3797.80472 1.06736
3795.75628 1.06604
3793.70784 1.06427
3791.65940 1.06211
3789.61096 1.06130
3787.56252 1.06122
3785.51409 1.06209
3783.46565 1.06290
3781.41721 1.06253
3779.36877 1.06408
3777.32033 1.06550
3775.27189 1.06363
3773.22346 1.06145
3771.17502 1.06213
3769.12658 1.06516
3767.07814 1.06627
3765.02970 1.06641
3762.98126 1.06526
3760.93283 1.06380
3758.88439 1.06600
3756.83595 1.06776
3754.78751 1.06558
3752.73907 1.06454
3750.69063 1.07125
3748.64219 1.07527
3746.59376 1.07248
3744.54532 1.07364
3742.49688 1.07588
3740.44844 1.07267
3738.40000 1.06914
3736.35156 1.07153
3734.30313 1.07905
3732.25469 1.08066
3730.20625 1.07705
3728.15781 1.07418
3726.10937 1.07536
3724.06093 1.07861
3722.01250 1.08011
3719.96406 1.07990
3717.91562 1.07836
3715.86718 1.07610
3713.81874 1.07526
3711.77030 1.08134
3709.72187 1.09022
3707.67343 1.09185
3705.62499 1.09099
3703.57655 1.09163
3701.52811 1.09558
3699.47967 1.09885
3697.43124 1.10017
3695.38280 1.10179
3693.33436 1.10335
3691.28592 1.10662
3689.23748 1.11487
3687.18904 1.11873
3685.14061 1.11573
3683.09217 1.11140
3681.04373 1.10720
3678.99529 1.10301
3676.94685 1.10149
3674.89841 1.10411
3672.84998 1.10122
3670.80154 1.09824
3668.75310 1.09992
3666.70466 1.09814
3664.65622 1.09467
3662.60778 1.09332
3660.55935 1.09332
3658.51091 1.09371
3656.46247 1.09637
3654.41403 1.09778
3652.36559 1.09598
3650.31715 1.09926
3648.26872 1.10989
3646.22028 1.11018
3644.17184 1.10570
3642.12340 1.10276
3640.07496 1.10199
3638.02652 1.10195
3635.97809 1.10244
3633.92965 1.10364
3631.88121 1.10402
3629.83277 1.10732
3627.78433 1.11596
3625.73589 1.11622
3623.68746 1.11284
3621.63902 1.11207
3619.59058 1.11595
3617.54214 1.12015
3615.49370 1.12046
3613.44526 1.12109
3611.39682 1.12193
3609.34839 1.12297
3607.29995 1.12610
3605.25151 1.12771
3603.20307 1.12816
3601.15463 1.13094
3599.10619 1.13467
3597.05776 1.13729
3595.00932 1.14013
3592.96088 1.14058
3590.91244 1.13739
3588.86400 1.13631
3586.81556 1.13949
3584.76713 1.13877
3582.71869 1.13564
3580.67025 1.13452
3578.62181 1.13495
3576.57337 1.13546
3574.52493 1.13595
3572.47650 1.13614
3570.42806 1.13604
3568.37962 1.13876
3566.33118 1.14521
3564.28274 1.14653
3562.23430 1.14455
3560.18587 1.14394
3558.13743 1.14363
3556.08899 1.14291
3554.04055 1.14338
3551.99211 1.14503
3549.94367 1.14545
3547.89524 1.14565
3545.84680 1.14737
3543.79836 1.14788
3541.74992 1.14635
3539.70148 1.14529
3537.65304 1.14635
3535.60461 1.14847
3533.55617 1.14920
3531.50773 1.14957
3529.45929 1.15133
3527.41085 1.15367
3525.36241 1.15573
3523.31398 1.15745
3521.26554 1.15791
3519.21710 1.15733
3517.16866 1.15696
3515.12022 1.15709
3513.07178 1.15749
3511.02335 1.15864
3508.97491 1.16030
3506.92647 1.16109
3504.87803 1.16208
3502.82959 1.16411
3500.78115 1.16464
3498.73272 1.16387
3496.68428 1.16412
3494.63584 1.16532
3492.58740 1.16624
3490.53896 1.16712
3488.49052 1.16865
3486.44209 1.16965
3484.39365 1.16939
3482.34521 1.16982
3480.29677 1.17139
3478.24833 1.17225
3476.19989 1.17286
3474.15146 1.17380
3472.10302 1.17408
3470.05458 1.17386
3468.00614 1.17392
3465.95770 1.17422
3463.90926 1.17439
3461.86082 1.17437
3459.81239 1.17422
3457.76395 1.17423
3455.71551 1.17433
3453.66707 1.17419
3451.61863 1.17382
3449.57019 1.17363
3447.52176 1.17445
3445.47332 1.17542
3443.42488 1.17576
3441.37644 1.17628
3439.32800 1.17670
3437.27956 1.17686
3435.23113 1.17678
3433.18269 1.17674
3431.13425 1.17731
3429.08581 1.17794
3427.03737 1.17823
3424.98893 1.17829
3422.94050 1.17826
3420.89206 1.17847
3418.84362 1.17872
3416.79518 1.17873
3414.74674 1.17883
3412.69830 1.17929
3410.64987 1.17985
3408.60143 1.17990
3406.55299 1.17956
3404.50455 1.17955
3402.45611 1.18003
3400.40767 1.18081
3398.35924 1.18185
3396.31080 1.18271
3394.26236 1.18282
3392.21392 1.18263
3390.16548 1.18252
3388.11704 1.18254
3386.06861 1.18285
3384.02017 1.18336
3381.97173 1.18389
3379.92329 1.18421
3377.87485 1.18440
3375.82641 1.18457
3373.77798 1.18474
3371.72954 1.18515
3369.68110 1.18559
3367.63266 1.18577
3365.58422 1.18608
3363.53578 1.18664
3361.48735 1.18696
3359.43891 1.18693
3357.39047 1.18688
3355.34203 1.18706
3353.29359 1.18731
3351.24515 1.18757
3349.19672 1.18784
3347.14828 1.18794
3345.09984 1.18812
3343.05140 1.18861
3341.00296 1.18895
3338.95452 1.18890
3336.90609 1.18877
3334.85765 1.18864
3332.80921 1.18853
3330.76077 1.18847
3328.71233 1.18872
3326.66389 1.18926
3324.61545 1.18937
3322.56702 1.18919
3320.51858 1.18935
3318.47014 1.18934
3316.42170 1.18900
3314.37326 1.18914
3312.32482 1.18975
3310.27639 1.19030
3308.22795 1.19056
3306.17951 1.19030
3304.13107 1.18985
3302.08263 1.18989
3300.03419 1.19040
3297.98576 1.19096
3295.93732 1.19123
3293.88888 1.19144
3291.84044 1.19190
3289.79200 1.19212
3287.74356 1.19197
3285.69513 1.19193
3283.64669 1.19200
3281.59825 1.19231
3279.54981 1.19296
3277.50137 1.19345
3275.45293 1.19330
3273.40450 1.19324
3271.35606 1.19388
3269.30762 1.19426
3267.25918 1.19427
3265.21074 1.19486
3263.16230 1.19557
3261.11387 1.19551
3259.06543 1.19512
3257.01699 1.19497
3254.96855 1.19511
3252.92011 1.19533
3250.87167 1.19535
3248.82324 1.19534
3246.77480 1.19565
3244.72636 1.19591
3242.67792 1.19586
3240.62948 1.19593
3238.58104 1.19640
3236.53261 1.19709
3234.48417 1.19773
3232.43573 1.19817
3230.38729 1.19829
3228.33885 1.19837
3226.29041 1.19842
3224.24198 1.19815
3222.19354 1.19780
3220.14510 1.19749
3218.09666 1.19671
3216.04822 1.19566
3213.99978 1.19511
3211.95135 1.19480
3209.90291 1.19467
3207.85447 1.19478
3205.80603 1.19456
3203.75759 1.19424
3201.70915 1.19432
3199.66072 1.19449
3197.61228 1.19435
3195.56384 1.19359
3193.51540 1.19248
3191.46696 1.19160
3189.41852 1.19095
3187.37008 1.19035
3185.32165 1.18962
3183.27321 1.18838
3181.22477 1.18676
3179.17633 1.18546
3177.12789 1.18485
3175.07945 1.18458
3173.03102 1.18434
3170.98258 1.18381
3168.93414 1.18302
3166.88570 1.18248
3164.83726 1.18217
3162.78882 1.18170
3160.74039 1.18110
3158.69195 1.18064
3156.64351 1.18022
3154.59507 1.17947
3152.54663 1.17841
3150.49819 1.17769
3148.44976 1.17759
3146.40132 1.17753
3144.35288 1.17700
3142.30444 1.17617
3140.25600 1.17578
3138.20756 1.17621
3136.15913 1.17689
3134.11069 1.17721
3132.06225 1.17722
3130.01381 1.17698
3127.96537 1.17646
3125.91693 1.17587
3123.86850 1.17571
3121.82006 1.17597
3119.77162 1.17599
3117.72318 1.17566
3115.67474 1.17533
3113.62630 1.17536
3111.57787 1.17552
3109.52943 1.17543
3107.48099 1.17526
3105.43255 1.17522
3103.38411 1.17505
3101.33567 1.17465
3099.28724 1.17454
3097.23880 1.17509
3095.19036 1.17575
3093.14192 1.17539
3091.09348 1.17425
3089.04504 1.17374
3086.99661 1.17381
3084.94817 1.17360
3082.89973 1.17347
3080.85129 1.17388
3078.80285 1.17442
3076.75441 1.17487
3074.70598 1.17560
3072.65754 1.17647
3070.60910 1.17675
3068.56066 1.17661
3066.51222 1.17696
3064.46378 1.17786
3062.41535 1.17902
3060.36691 1.18040
3058.31847 1.18161
3056.27003 1.18259
3054.22159 1.18384
3052.17315 1.18572
3050.12471 1.18869
3048.07628 1.19221
3046.02784 1.19502
3043.97940 1.19714
3041.93096 1.19926
3039.88252 1.20161
3037.83408 1.20352
3035.78565 1.20447
3033.73721 1.20558
3031.68877 1.20754
3029.64033 1.20932
3027.59189 1.21012
3025.54345 1.21012
3023.49502 1.21015
3021.44658 1.21064
3019.39814 1.21128
3017.34970 1.21219
3015.30126 1.21335
3013.25282 1.21459
3011.20439 1.21614
3009.15595 1.21779
3007.10751 1.21906
3005.05907 1.22023
3003.01063 1.22129
3000.96219 1.22173
2998.91376 1.22178
2996.86532 1.22225
2994.81688 1.22288
2992.76844 1.22293
2990.72000 1.22329
2988.67156 1.22438
2986.62313 1.22480
2984.57469 1.22397
2982.52625 1.22259
2980.47781 1.22157
2978.42937 1.22122
2976.38093 1.22109
2974.33250 1.22121
2972.28406 1.22216
2970.23562 1.22333
2968.18718 1.22364
2966.13874 1.22329
2964.09030 1.22281
2962.04187 1.22240
2959.99343 1.22249
2957.94499 1.22288
2955.89655 1.22275
2953.84811 1.22220
2951.79967 1.22212
2949.75124 1.22241
2947.70280 1.22236
2945.65436 1.22221
2943.60592 1.22259
2941.55748 1.22365
2939.50904 1.22486
2937.46061 1.22586
2935.41217 1.22647
2933.36373 1.22658
2931.31529 1.22666
2929.26685 1.22718
2927.21841 1.22784
2925.16998 1.22815
2923.12154 1.22822
2921.07310 1.22784
2919.02466 1.22683
2916.97622 1.22550
2914.92778 1.22363
2912.87934 1.22107
2910.83091 1.21873
2908.78247 1.21727
2906.73403 1.21617
2904.68559 1.21511
2902.63715 1.21436
2900.58871 1.21391
2898.54028 1.21308
2896.49184 1.21180
2894.44340 1.21073
2892.39496 1.20969
2890.34652 1.20813
2888.29808 1.20623
2886.24965 1.20440
2884.20121 1.20264
2882.15277 1.20118
2880.10433 1.20021
2878.05589 1.19948
2876.00745 1.19905
2873.95902 1.19912
2871.91058 1.19945
2869.86214 1.19989
2867.81370 1.20049
2865.76526 1.20132
2863.71682 1.20236
2861.66839 1.20348
2859.61995 1.20450
2857.57151 1.20542
2855.52307 1.20659
2853.47463 1.20746
2851.42619 1.20696
2849.37776 1.20537
2847.32932 1.20326
2845.28088 1.20039
2843.23244 1.19621
2841.18400 1.19041
2839.13556 1.18371
2837.08713 1.17709
2835.03869 1.17041
2832.99025 1.16389
2830.94181 1.15825
2828.89337 1.15318
2826.84493 1.14858
2824.79650 1.14472
2822.74806 1.14145
2820.69962 1.13868
2818.65118 1.13637
2816.60274 1.13443
2814.55430 1.13291
2812.50587 1.13167
2810.45743 1.13046
2808.40899 1.12934
2806.36055 1.12822
2804.31211 1.12696
2802.26367 1.12578
2800.21524 1.12477
2798.16680 1.12370
2796.11836 1.12279
2794.06992 1.12232
2792.02148 1.12206
2789.97304 1.12188
2787.92461 1.12171
2785.87617 1.12152
2783.82773 1.12149
2781.77929 1.12169
2779.73085 1.12212
2777.68241 1.12269
2775.63397 1.12294
2773.58554 1.12252
2771.53710 1.12169
2769.48866 1.12104
2767.44022 1.12055
2765.39178 1.11986
2763.34334 1.11908
2761.29491 1.11848
2759.24647 1.11825
2757.19803 1.11840
2755.14959 1.11854
2753.10115 1.11841
2751.05271 1.11830
2749.00428 1.11836
2746.95584 1.11842
2744.90740 1.11844
2742.85896 1.11853
2740.81052 1.11863
2738.76208 1.11862
2736.71365 1.11860
2734.66521 1.11878
2732.61677 1.11909
2730.56833 1.11945
2728.51989 1.11990
2726.47145 1.12020
2724.42302 1.12037
2722.37458 1.12057
2720.32614 1.12051
2718.27770 1.12017
2716.22926 1.12011
2714.18082 1.12047
2712.13239 1.12080
2710.08395 1.12109
2708.03551 1.12150
2705.98707 1.12176
2703.93863 1.12194
2701.89019 1.12243
2699.84176 1.12314
2697.79332 1.12389
2695.74488 1.12459
2693.69644 1.12515
2691.64800 1.12574
2689.59956 1.12663
2687.55113 1.12746
2685.50269 1.12818
2683.45425 1.12924
2681.40581 1.13063
2679.35737 1.13235
2677.30893 1.13461
2675.26050 1.13728
2673.21206 1.14042
2671.16362 1.14459
2669.11518 1.15015
2667.06674 1.15704
2665.01830 1.16476
2662.96987 1.17259
2660.92143 1.17986
2658.87299 1.18614
2656.82455 1.19119
2654.77611 1.19493
2652.72767 1.19756
2650.67924 1.19962
2648.63080 1.20139
2646.58236 1.20286
2644.53392 1.20415
2642.48548 1.20537
2640.43704 1.20636
2638.38860 1.20700
2636.34017 1.20748
2634.29173 1.20798
2632.24329 1.20830
2630.19485 1.20826
2628.14641 1.20811
2626.09797 1.20814
2624.04954 1.20817
2622.00110 1.20798
2619.95266 1.20763
2617.90422 1.20721
2615.85578 1.20690
2613.80734 1.20680
2611.75891 1.20679
2609.71047 1.20681
2607.66203 1.20690
2605.61359 1.20699
2603.56515 1.20694
2601.51671 1.20687
2599.46828 1.20689
2597.41984 1.20701
2595.37140 1.20739
2593.32296 1.20786
2591.27452 1.20816
2589.22608 1.20852
2587.17765 1.20937
2585.12921 1.21035
2583.08077 1.21081
2581.03233 1.21087
2578.98389 1.21118
2576.93545 1.21210
2574.88702 1.21316
2572.83858 1.21401
2570.79014 1.21509
2568.74170 1.21624
2566.69326 1.21691
2564.64482 1.21750
2562.59639 1.21828
2560.54795 1.21896
2558.49951 1.21987
2556.45107 1.22137
2554.40263 1.22323
2552.35419 1.22502
2550.30576 1.22611
2548.25732 1.22588
2546.20888 1.22417
2544.16044 1.22172
2542.11200 1.21993
2540.06356 1.22042
2538.01513 1.22338
2535.96669 1.22734
2533.91825 1.23122
2531.86981 1.23441
2529.82137 1.23626
2527.77293 1.23677
2525.72450 1.23644
2523.67606 1.23530
2521.62762 1.23306
2519.57918 1.22986
2517.53074 1.22645
2515.48230 1.22387
2513.43387 1.22280
2511.38543 1.22322
2509.33699 1.22506
2507.28855 1.22825
2505.24011 1.23183
2503.19167 1.23416
2501.14324 1.23483
2499.09480 1.23453
2497.04636 1.23347
2494.99792 1.23162
2492.94948 1.22928
2490.90104 1.22660
2488.85260 1.22412
2486.80417 1.22219
2484.75573 1.22008
2482.70729 1.21732
2480.65885 1.21392
2478.61041 1.20886
2476.56197 1.20190
2474.51354 1.19479
2472.46510 1.18879
2470.41666 1.18320
2468.36822 1.17729
2466.31978 1.17173
2464.27134 1.16683
2462.22291 1.16190
2460.17447 1.15675
2458.12603 1.15209
2456.07759 1.14836
2454.02915 1.14528
2451.98071 1.14281
2449.93228 1.14098
2447.88384 1.13962
2445.83540 1.13880
2443.78696 1.13844
2441.73852 1.13803
2439.69008 1.13739
2437.64165 1.13673
2435.59321 1.13606
2433.54477 1.13511
2431.49633 1.13413
2429.44789 1.13352
2427.39945 1.13318
2425.35102 1.13285
2423.30258 1.13233
2421.25414 1.13175
2419.20570 1.13113
2417.15726 1.13038
2415.10882 1.12974
2413.06039 1.12953
2411.01195 1.12965
2408.96351 1.12978
2406.91507 1.12987
2404.86663 1.13014
2402.81819 1.13049
2400.76976 1.13054
2398.72132 1.13053
2396.67288 1.13086
2394.62444 1.13124
2392.57600 1.13168
2390.52756 1.13236
2388.47913 1.13319
2386.43069 1.13435
2384.38225 1.13605
2382.33381 1.13823
2380.28537 1.14075
2378.23693 1.14350
2376.18850 1.14627
2374.14006 1.14884
2372.09162 1.15137
2370.04318 1.15342
2367.99474 1.15372
2365.94630 1.15374
2363.89787 1.15796
2361.84943 1.16624
2359.80099 1.17244
2357.75255 1.17415
2355.70411 1.17387
2353.65567 1.17292
2351.60723 1.17029
2349.55880 1.16611
2347.51036 1.16234
2345.46192 1.16118
2343.41348 1.16243
2341.36504 1.16218
2339.31660 1.16045
2337.26817 1.15962
2335.21973 1.15925
2333.17129 1.15835
2331.12285 1.15782
2329.07441 1.15772
2327.02597 1.15734
2324.97754 1.15728
2322.92910 1.15753
2320.88066 1.15647
2318.83222 1.15327
2316.78378 1.14923
2314.73534 1.14608
2312.68691 1.14427
2310.63847 1.14314
2308.59003 1.14200
2306.54159 1.14034
2304.49315 1.13795
2302.44471 1.13512
2300.39628 1.13217
2298.34784 1.12938
2296.29940 1.12698
2294.25096 1.12487
2292.20252 1.12295
2290.15408 1.12161
2288.10565 1.12094
2286.05721 1.12053
2284.00877 1.12026
2281.96033 1.12047
2279.91189 1.12122
2277.86345 1.12202
2275.81502 1.12250
2273.76658 1.12283
2271.71814 1.12327
2269.66970 1.12392
2267.62126 1.12488
2265.57282 1.12613
2263.52439 1.12744
2261.47595 1.12855
2259.42751 1.12944
2257.37907 1.13004
2255.33063 1.13015
2253.28219 1.12984
2251.23376 1.12947
2249.18532 1.12924
2247.13688 1.12911
2245.08844 1.12913
2243.04000 1.12928
2240.99156 1.12943
2238.94313 1.12935
2236.89469 1.12904
2234.84625 1.12874
2232.79781 1.12851
2230.74937 1.12846
2228.70093 1.12867
2226.65250 1.12894
2224.60406 1.12918
2222.55562 1.12979
2220.50718 1.13108
2218.45874 1.13243
2216.41030 1.13331
2214.36186 1.13410
2212.31343 1.13506
2210.26499 1.13622
2208.21655 1.13786
2206.16811 1.13992
2204.11967 1.14236
2202.07123 1.14482
2200.02280 1.14670
2197.97436 1.14807
2195.92592 1.14938
2193.87748 1.15092
2191.82904 1.15263
2189.78060 1.15461
2187.73217 1.15709
2185.68373 1.15990
2183.63529 1.16281
2181.58685 1.16560
2179.53841 1.16743
2177.48997 1.16773
2175.44154 1.16725
2173.39310 1.16750
2171.34466 1.16889
2169.29622 1.17106
2167.24778 1.17405
2165.19934 1.17774
2163.15091 1.18169
2161.10247 1.18562
2159.05403 1.18925
2157.00559 1.19245
2154.95715 1.19493
2152.90871 1.19492
2150.86028 1.19148
2148.81184 1.18637
2146.76340 1.18194
2144.71496 1.17932
2142.66652 1.17852
2140.61808 1.17915
2138.56965 1.18016
2136.52121 1.17996
2134.47277 1.17838
2132.42433 1.17660
2130.37589 1.17526
2128.32745 1.17411
2126.27902 1.17315
2124.23058 1.17263
2122.18214 1.17233
2120.13370 1.17197
2118.08526 1.17128
2116.03682 1.16984
2113.98839 1.16728
2111.93995 1.16368
2109.89151 1.15959
2107.84307 1.15562
2105.79463 1.15180
2103.74619 1.14794
2101.69776 1.14448
2099.64932 1.14174
2097.60088 1.13955
2095.55244 1.13771
2093.50400 1.13613
2091.45556 1.13497
2089.40713 1.13443
2087.35869 1.13433
2085.31025 1.13448
2083.26181 1.13484
2081.21337 1.13533
2079.16493 1.13591
2077.11649 1.13646
2075.06806 1.13709
2073.01962 1.13796
2070.97118 1.13891
2068.92274 1.13985
2066.87430 1.14079
2064.82586 1.14174
2062.77743 1.14267
2060.72899 1.14354
2058.68055 1.14444
2056.63211 1.14536
2054.58367 1.14601
2052.53523 1.14621
2050.48680 1.14629
2048.43836 1.14666
2046.38992 1.14739
2044.34148 1.14827
2042.29304 1.14910
2040.24460 1.14965
2038.19617 1.14986
2036.14773 1.14999
2034.09929 1.15011
2032.05085 1.15038
2030.00241 1.15078
2027.95397 1.15122
2025.90554 1.15166
2023.85710 1.15195
2021.80866 1.15234
2019.76022 1.15305
2017.71178 1.15405
2015.66334 1.15490
2013.61491 1.15512
2011.56647 1.15494
2009.51803 1.15484
2007.46959 1.15492
2005.42115 1.15533
2003.37271 1.15619
2001.32428 1.15739
1999.27584 1.15876
1997.22740 1.16004
1995.17896 1.16127
1993.13052 1.16305
1991.08208 1.16525
1989.03365 1.16700
1986.98521 1.16881
1984.93677 1.17075
1982.88833 1.17223
1980.83989 1.17338
1978.79145 1.17461
1976.74302 1.17602
1974.69458 1.17729
1972.64614 1.17825
1970.59770 1.17895
1968.54926 1.18010
1966.50082 1.18183
1964.45239 1.18303
1962.40395 1.18388
1960.35551 1.18525
1958.30707 1.18645
1956.25863 1.18705
1954.21019 1.18774
1952.16176 1.18880
1950.11332 1.18982
1948.06488 1.19062
1946.01644 1.19164
1943.96800 1.19320
1941.91956 1.19478
1939.87112 1.19525
1937.82269 1.19564
1935.77425 1.19682
1933.72581 1.19784
1931.67737 1.19808
1929.62893 1.19841
1927.58049 1.19970
1925.53206 1.20170
1923.48362 1.20462
1921.43518 1.20733
1919.38674 1.20910
1917.33830 1.21115
1915.28986 1.21295
1913.24143 1.21429
1911.19299 1.21634
1909.14455 1.21899
1907.09611 1.22089
1905.04767 1.22218
1902.99923 1.22394
1900.95080 1.22596
1898.90236 1.22741
1896.85392 1.22875
1894.80548 1.23058
1892.75704 1.23221
1890.70860 1.23386
1888.66017 1.23581
1886.61173 1.23683
1884.56329 1.23770
1882.51485 1.23942
1880.46641 1.24168
1878.41797 1.24397
1876.36954 1.24589
1874.32110 1.24781
1872.27266 1.25010
1870.22422 1.25441
1868.17578 1.26103
1866.12734 1.26501
1864.07891 1.26642
1862.03047 1.26837
1859.98203 1.27161
1857.93359 1.27543
1855.88515 1.27879
1853.83671 1.28200
1851.78828 1.28593
1849.73984 1.29017
1847.69140 1.29403
1845.64296 1.29860
1843.59452 1.30526
1841.54608 1.30958
1839.49765 1.31194
1837.44921 1.31575
1835.40077 1.32027
1833.35233 1.32435
1831.30389 1.33085
1829.25545 1.34098
1827.20702 1.34842
1825.15858 1.35506
1823.11014 1.36285
1821.06170 1.36942
1819.01326 1.37730
1816.96482 1.38776
1814.91639 1.39844
1812.86795 1.40939
1810.81951 1.42290
1808.77107 1.43694
1806.72263 1.44968
1804.67419 1.46242
1802.62575 1.47674
1800.57732 1.49141
1798.52888 1.50058
1796.48044 1.50477
1794.43200 1.50974
1792.38356 1.51791
1790.33512 1.51912
1788.28669 1.51084
1786.23825 1.50345
1784.18981 1.50139
1782.14137 1.50126
1780.09293 1.49966
1778.04449 1.49632
1775.99606 1.49409
1773.94762 1.49728
1771.89918 1.50860
1769.85074 1.51763
1767.80230 1.52067
1765.75386 1.52250
1763.70543 1.52549
1761.65699 1.53189
1759.60855 1.53652
1757.56011 1.53986
1755.51167 1.54477
1753.46323 1.54921
1751.41480 1.55711
1749.36636 1.56883
1747.31792 1.57407
1745.26948 1.57421
1743.22104 1.57470
1741.17260 1.57713
1739.12417 1.58121
1737.07573 1.58374
1735.02729 1.59046
1732.97885 1.60061
1730.93041 1.59938
1728.88197 1.59577
1726.83354 1.59458
1724.78510 1.59605
1722.73666 1.59877
1720.68822 1.60217
1718.63978 1.61274
1716.59134 1.62931
1714.54291 1.62660
1712.49447 1.61815
1710.44603 1.61479
1708.39759 1.61658
1706.34915 1.62324
1704.30071 1.62857
1702.25228 1.62983
1700.20384 1.63558
1698.15540 1.64365
1696.10696 1.64391
1694.05852 1.63933
1692.01008 1.63389
1689.96165 1.63374
1687.91321 1.63664
1685.86477 1.64108
1683.81633 1.65320
1681.76789 1.65597
1679.71945 1.65097
1677.67102 1.64802
1675.62258 1.65114
1673.57414 1.65444
1671.52570 1.65552
1669.47726 1.65836
1667.42882 1.65735
1665.38038 1.65246
1663.33195 1.65233
1661.28351 1.65447
1659.23507 1.65213
1657.18663 1.64889
1655.13819 1.64947
1653.08975 1.66262
1651.04132 1.66237
1648.99288 1.65628
1646.94444 1.65480
1644.89600 1.65025
1642.84756 1.64077
1640.79912 1.63381
1638.75069 1.62943
1636.70225 1.62787
1634.65381 1.62327
1632.60537 1.61124
1630.55693 1.60063
1628.50849 1.59113
1626.46006 1.58253
1624.41162 1.57098
1622.36318 1.55541
1620.31474 1.53854
1618.26630 1.52345
1616.21786 1.50165
1614.16943 1.47608
1612.12099 1.45234
1610.07255 1.42646
1608.02411 1.39626
1605.97567 1.36173
1603.92723 1.32342
1601.87880 1.27776
1599.83036 1.22724
1597.78192 1.17120
1595.73348 1.10514
1593.68504 1.02947
1591.63660 0.95189
1589.58817 0.87538
1587.53973 0.80523
1585.49129 0.74825
1583.44285 0.70933
1581.39441 0.69090
1579.34597 0.68941
1577.29754 0.70896
1575.24910 0.75608
1573.20066 0.79238
1571.15222 0.81917
1569.10378 0.84634
1567.05534 0.83831
1565.00691 0.78930
1562.95847 0.73075
1560.91003 0.67609
1558.86159 0.57469
1556.81315 0.49334
1554.76471 0.46048
1552.71628 0.43254
1550.66784 0.40933
1548.61940 0.39004
1546.57096 0.37616
1544.52252 0.36609
1542.47408 0.35769
1540.42565 0.35023
1538.37721 0.34247
1536.32877 0.33530
1534.28033 0.33013
1532.23189 0.32612
1530.18345 0.32140
1528.13501 0.31766
1526.08658 0.31592
1524.03814 0.31409
1521.98970 0.31304
1519.94126 0.31230
1517.89282 0.31025
1515.84438 0.30812
1513.79595 0.30482
1511.74751 0.30169
1509.69907 0.29979
1507.65063 0.30176
1505.60219 0.30457
1503.55375 0.30079
1501.50532 0.29674
1499.45688 0.29499
1497.40844 0.29621
1495.36000 0.29643
1493.31156 0.29392
1491.26312 0.29318
1489.21469 0.29700
1487.16625 0.29819
1485.11781 0.29549
1483.06937 0.29350
1481.02093 0.29323
1478.97249 0.29315
1476.92406 0.29337
1474.87562 0.29567
1472.82718 0.30082
1470.77874 0.30324
1468.73030 0.30205
1466.68186 0.30372
1464.63343 0.31222
1462.58499 0.32178
1460.53655 0.33098
1458.48811 0.36060
1456.43967 0.43799
1454.39123 0.48934
1452.34280 0.51426
1450.29436 0.53949
1448.24592 0.56900
1446.19748 0.59762
1444.14904 0.61888
1442.10060 0.63671
1440.05217 0.65274
1438.00373 0.67003
1435.95529 0.69465
1433.90685 0.71206
1431.85841 0.72300
1429.80997 0.73650
1427.76154 0.74877
1425.71310 0.75797
1423.66466 0.76744
1421.61622 0.77581
1419.56778 0.78645
1417.51934 0.80086
1415.47091 0.80862
1413.42247 0.81471
1411.37403 0.82310
1409.32559 0.83216
1407.27715 0.84016
1405.22871 0.84900
1403.18028 0.85667
1401.13184 0.86211
1399.08340 0.86955
1397.03496 0.87833
1394.98652 0.88664
1392.93808 0.89259
1390.88965 0.89577
1388.84121 0.90019
1386.79277 0.90802
1384.74433 0.91382
1382.69589 0.91779
1380.64745 0.92293
1378.59901 0.92851
1376.55058 0.93364
1374.50214 0.94001
1372.45370 0.94596
1370.40526 0.94937
1368.35682 0.95319
1366.30838 0.95715
1364.25995 0.96196
1362.21151 0.96852
1360.16307 0.97322
1358.11463 0.97562
1356.06619 0.97850
1354.01775 0.98207
1351.96932 0.98575
1349.92088 0.98976
1347.87244 0.99381
1345.82400 0.99780
1343.77556 1.00145
1341.72712 1.00579
1339.67869 1.01167
1337.63025 1.01645
1335.58181 1.01812
1333.53337 1.01950
1331.48493 1.02195
1329.43649 1.02513
1327.38806 1.02848
1325.33962 1.03175
1323.29118 1.03489
1321.24274 1.03774
1319.19430 1.04093
1317.14586 1.04398
1315.09743 1.04671
1313.04899 1.04936
1311.00055 1.05188
1308.95211 1.05420
1306.90367 1.05665
1304.85523 1.05905
1302.80680 1.06131
1300.75836 1.06335
1298.70992 1.06526
1296.66148 1.06773
1294.61304 1.07049
1292.56460 1.07331
1290.51617 1.07615
1288.46773 1.07913
1286.41929 1.08151
1284.37085 1.08301
1282.32241 1.08426
1280.27397 1.08554
1278.22554 1.08677
1276.17710 1.08813
1274.12866 1.08998
1272.08022 1.09191
1270.03178 1.09375
1267.98334 1.09543
1265.93491 1.09669
1263.88647 1.09764
1261.83803 1.09900
1259.78959 1.10036
1257.74115 1.10129
1255.69271 1.10258
1253.64428 1.10463
1251.59584 1.10685
1249.54740 1.10872
1247.49896 1.11024
1245.45052 1.11118
1243.40208 1.11179
1241.35364 1.11258
1239.30521 1.11361
1237.25677 1.11451
1235.20833 1.11568
1233.15989 1.11762
1231.11145 1.11952
1229.06301 1.12086
1227.01458 1.12246
1224.96614 1.12407
1222.91770 1.12455
1220.86926 1.12514
1218.82082 1.12698
1216.77238 1.12880
1214.72395 1.12996
1212.67551 1.13150
1210.62707 1.13326
1208.57863 1.13375
1206.53019 1.13339
1204.48175 1.13444
1202.43332 1.13692
1200.38488 1.13886
1198.33644 1.14042
1196.28800 1.14270
1194.23956 1.14532
1192.19112 1.14692
1190.14269 1.14715
1188.09425 1.14704
1186.04581 1.14742
1183.99737 1.14837
1181.94893 1.14963
1179.90049 1.15105
1177.85206 1.15273
1175.80362 1.15479
1173.75518 1.15652
1171.70674 1.15694
1169.65830 1.15602
1167.60986 1.15491
1165.56143 1.15465
1163.51299 1.15487
1161.46455 1.15403
1159.41611 1.15190
1157.36767 1.15098
1155.31923 1.15181
1153.27080 1.15088
1151.22236 1.14708
1149.17392 1.14399
1147.12548 1.14412
1145.07704 1.14579
1143.02860 1.14552
1140.98017 1.14252
1138.93173 1.13980
1136.88329 1.13925
1134.83485 1.13849
1132.78641 1.13508
1130.73797 1.13059
1128.68954 1.12872
1126.64110 1.13056
1124.59266 1.13216
1122.54422 1.12961
1120.49578 1.12433
1118.44734 1.12129
1116.39891 1.12332
1114.35047 1.12829
1112.30203 1.13185
1110.25359 1.13353
1108.20515 1.13623
1106.15671 1.14047
1104.10827 1.14500
1102.05984 1.14858
1100.01140 1.15095
1097.96296 1.15466
1095.91452 1.16307
1093.86608 1.17482
1091.81764 1.18937
1089.76921 1.21244
1087.72077 1.23989
1085.67233 1.21820
1083.62389 1.13947
1081.57545 1.10030
1079.52701 1.12244
1077.47858 1.14567
1075.43014 1.14684
1073.38170 1.14044
1071.33326 1.13410
1069.28482 1.13168
1067.23638 1.13058
1065.18795 1.12900
1063.13951 1.13058
1061.09107 1.13679
1059.04263 1.13942
1056.99419 1.13383
1054.94575 1.12724
1052.89732 1.12369
1050.84888 1.12116
1048.80044 1.12029
1046.75200 1.12234
1044.70356 1.12615
1042.65512 1.12771
1040.60669 1.12507
1038.55825 1.12170
1036.50981 1.12184
1034.46137 1.12649
1032.41293 1.13284
1030.36449 1.13574
1028.31606 1.13241
1026.26762 1.12760
1024.21918 1.12728
1022.17074 1.13249
1020.12230 1.14006
1018.07386 1.14441
1016.02543 1.14210
1013.97699 1.13727
1011.92855 1.13688
1009.88011 1.14314
1007.83167 1.15316
1005.78323 1.16060
1003.73480 1.16102
1001.68636 1.15703
999.63792 1.15628
997.58948 1.16297
995.54104 1.17420
993.49260 1.18355
991.44417 1.18631
989.39573 1.18382
987.34729 1.18275
985.29885 1.18759
983.25041 1.19697
981.20197 1.20619
979.15354 1.20929
977.10510 1.20512
975.05666 1.19961
973.00822 1.19936
970.95978 1.20561
968.91134 1.21433
966.86290 1.21944
964.81447 1.21801
962.76603 1.21382
960.71759 1.21318
958.66915 1.21848
956.62071 1.22737
954.57227 1.23489
952.52384 1.23652
950.47540 1.23356
948.42696 1.23158
946.37852 1.23448
944.33008 1.24222
942.28164 1.25113
940.23321 1.25500
938.18477 1.25133
936.13633 1.24629
934.08789 1.24717
932.03945 1.25509
929.99101 1.26640
927.94258 1.27445
925.89414 1.27325
923.84570 1.26624
921.79726 1.26344
919.74882 1.27041
917.70038 1.28498
915.65195 1.30148
913.60351 1.31916
911.55507 1.34402
909.50663 1.36611
907.45819 1.36166
905.40975 1.33921
903.36132 1.32583
901.31288 1.32545
899.26444 1.32380
897.21600 1.31325
895.16756 1.29840
893.11912 1.28595
891.07069 1.27870
889.02225 1.27043
886.97381 1.24457
884.92537 1.18450
882.87693 1.07516
880.82849 0.90030
878.78006 0.68924
876.73162 0.51283
874.68318 0.40654
872.63474 0.35728
870.58630 0.33576
868.53786 0.32379
866.48943 0.31622
864.44099 0.31211
862.39255 0.31074
860.34411 0.31110
858.29567 0.31284
856.24723 0.32059
854.19880 0.35222
852.15036 0.43035
850.10192 0.54992
848.05348 0.66966
846.00504 0.74720
843.95660 0.77392
841.90817 0.78770
839.85973 0.81729
837.81129 0.85202
835.76285 0.88295
833.71441 0.91034
831.66597 0.93160
829.61753 0.94487
827.56910 0.95154
825.52066 0.95646
823.47222 0.96433
821.42378 0.97539
819.37534 0.98588
817.32690 0.99131
815.27847 0.99142
813.23003 0.99006
811.18159 0.99090
809.13315 0.99581
807.08471 1.00380
805.03627 1.01097
802.98784 1.01427
800.93940 1.01346
798.89096 1.01147
796.84252 1.01447
794.79408 1.02124
792.74564 1.02845
790.69721 1.03445
788.64877 1.03250
786.60033 1.02686
784.55189 1.02825
782.50345 1.03374
780.45501 1.03863
778.40658 1.04666
776.35814 1.05331
774.30970 1.04888
772.26126 1.04162
770.21282 1.04685
768.16438 1.06105
766.11595 1.06851
764.06751 1.06502
762.01907 1.06103
759.97063 1.06537
757.92219 1.07445
755.87375 1.07979
753.82532 1.08068
751.77688 1.08250
749.72844 1.08773
747.68000 1.09461
745.63156 1.09998
743.58312 1.10295
741.53469 1.10624
739.48625 1.11484
737.43781 1.13008
735.38937 1.14361
733.34093 1.14815
731.29249 1.15454
729.24406 1.17509
727.19562 1.20318
725.14718 1.22957
723.09874 1.26257
721.05030 1.31437
719.00186 1.36326
716.95343 1.29526
714.90499 1.10167
712.85655 0.97835
710.80811 0.99306
708.75967 1.07174
706.71123 1.12568
704.66280 1.15780
702.61436 1.17878
700.56592 1.17468
698.51748 1.16012
696.46904 1.15376
694.42060 1.14690
692.37216 1.14128
690.32373 1.14373
688.27529 1.14641
686.22685 1.14672
684.17841 1.14931
682.12997 1.14677
680.08153 1.13515
678.03310 1.12756
675.98466 1.13538
673.93622 1.15358
671.88778 1.16743
669.83934 1.17254
667.79090 1.16361
665.74247 1.15539
663.69403 1.15950
661.64559 1.16892
659.59715 1.17627
657.54871 1.18207
655.50027 1.18878
653.45184 1.19394
651.40340 1.19789
649.35496 1.19989
647.30652 1.19852
645.25808 1.19963
643.20964 1.20874
641.16121 1.21998
639.11277 1.22847
637.06433 1.23055
635.01589 1.22527
632.96745 1.21883
630.91901 1.22199
628.87058 1.24285
626.82214 1.27026
624.77370 1.28132
622.72526 1.27411
620.67682 1.26862
618.62838 1.27478
616.57995 1.29322
614.53151 1.31127
612.48307 1.32020
610.43463 1.32600
608.38619 1.32199
606.33775 1.30661
604.28932 1.30254
602.24088 1.32711
600.19244 1.37003
598.14400 1.40270
