3996.50324 1.22859
3994.45480 1.22974
3992.40636 1.23129
3990.35792 1.23308
3988.30948 1.23423
3986.26104 1.23449
3984.21261 1.23488
3982.16417 1.23598
3980.11573 1.23701
3978.06729 1.23748
3976.01885 1.23784
3973.97041 1.23807
3971.92198 1.23825
3969.87354 1.23921
3967.82510 1.24016
3965.77666 1.23971
3963.72822 1.23872
3961.67978 1.23808
3959.63135 1.23660
3957.58291 1.23396
3955.53447 1.23153
3953.48603 1.22982
3951.43759 1.22910
3949.38915 1.22938
3947.34072 1.22893
3945.29228 1.22712
3943.24384 1.22579
3941.19540 1.22536
3939.14696 1.22462
3937.09852 1.22378
3935.05009 1.22357
3933.00165 1.22446
3930.95321 1.22561
3928.90477 1.22502
3926.85633 1.22391
3924.80789 1.22379
3922.75946 1.22318
3920.71102 1.22171
3918.66258 1.22123
3916.61414 1.22146
3914.56570 1.22017
3912.51726 1.21801
3910.46883 1.21676
3908.42039 1.21647
3906.37195 1.21746
3904.32351 1.22134
3902.27507 1.22527
3900.22663 1.22499
3898.17820 1.22207
3896.12976 1.21882
3894.08132 1.21705
3892.03288 1.21740
3889.98444 1.21645
3887.93600 1.21326
3885.88756 1.21188
3883.83913 1.21301
3881.79069 1.21272
3879.74225 1.21098
3877.69381 1.20794
3875.64537 1.20476
3873.59693 1.20386
3871.54850 1.20495
3869.50006 1.20732
3867.45162 1.20816
3865.40318 1.20714
3863.35474 1.20690
3861.30630 1.20578
3859.25787 1.20381
3857.20943 1.20252
3855.16099 1.20312
3853.11255 1.21031
3851.06411 1.21339
3849.01567 1.20858
3846.96724 1.20383
3844.91880 1.20256
3842.87036 1.20462
3840.82192 1.20723
3838.77348 1.21008
3836.72504 1.21159
3834.67661 1.20971
3832.62817 1.20758
3830.57973 1.20632
3828.53129 1.20534
3826.48285 1.20564
3824.43441 1.20613
3822.38598 1.20656
3820.33754 1.21053
3818.28910 1.21263
3816.24066 1.21143
3814.19222 1.20912
3812.14378 1.20582
3810.09535 1.20305
3808.04691 1.20290
3805.99847 1.20576
3803.95003 1.20684
3801.90159 1.20789
3799.85315 1.21054
3797.80472 1.20966
3795.75628 1.20752
3793.70784 1.20582
3791.65940 1.20425
3789.61096 1.20349
3787.56252 1.20392
3785.51409 1.20541
3783.46565 1.20631
3781.41721 1.20631
3779.36877 1.20759
3777.32033 1.20816
3775.27189 1.20672
3773.22346 1.20576
3771.17502 1.20670
3769.12658 1.20940
3767.07814 1.21091
3765.02970 1.21059
3762.98126 1.20956
3760.93283 1.20909
3758.88439 1.21112
3756.83595 1.21316
3754.78751 1.21292
3752.73907 1.21372
3750.69063 1.22064
3748.64219 1.22554
3746.59376 1.22421
3744.54532 1.22418
3742.49688 1.22465
3740.44844 1.22189
3738.40000 1.21932
3736.35156 1.22175
3734.30313 1.22773
3732.25469 1.22825
3730.20625 1.22549
3728.15781 1.22356
3726.10937 1.22470
3724.06093 1.22763
3722.01250 1.22803
3719.96406 1.22606
3717.91562 1.22404
3715.86718 1.22315
3713.81874 1.22392
3711.77030 1.22842
3709.72187 1.23362
3707.67343 1.23392
3705.62499 1.23310
3703.57655 1.23343
3701.52811 1.23526
3699.47967 1.23671
3697.43124 1.23710
3695.38280 1.23742
3693.33436 1.23765
3691.28592 1.23934
3689.23748 1.24504
3687.18904 1.24779
3685.14061 1.24540
3683.09217 1.24289
3681.04373 1.24252
3678.99529 1.24391
3676.94685 1.24645
3674.89841 1.25049
3672.84998 1.25116
3670.80154 1.24993
3668.75310 1.24952
3666.70466 1.24717
3664.65622 1.24421
3662.60778 1.24302
3660.55935 1.24324
3658.51091 1.24418
3656.46247 1.24704
3654.41403 1.24993
3652.36559 1.25102
3650.31715 1.25535
3648.26872 1.26342
3646.22028 1.26305
3644.17184 1.26003
3642.12340 1.25871
3640.07496 1.25867
3638.02652 1.25899
3635.97809 1.26041
3633.92965 1.26327
3631.88121 1.26579
3629.83277 1.26934
3627.78433 1.27609
3625.73589 1.27783
3623.68746 1.27687
3621.63902 1.27775
3619.59058 1.28205
3617.54214 1.28695
3615.49370 1.28912
3613.44526 1.29043
3611.39682 1.29147
3609.34839 1.29272
3607.29995 1.29545
3605.25151 1.29810
3603.20307 1.30098
3601.15463 1.30628
3599.10619 1.31245
3597.05776 1.31694
3595.00932 1.31995
3592.96088 1.31990
3590.91244 1.31731
3588.86400 1.31578
3586.81556 1.31515
3584.76713 1.31177
3582.71869 1.30787
3580.67025 1.30601
3578.62181 1.30599
3576.57337 1.30676
3574.52493 1.30774
3572.47650 1.30892
3570.42806 1.31067
3568.37962 1.31418
3566.33118 1.31906
3564.28274 1.32006
3562.23430 1.31881
3560.18587 1.31804
3558.13743 1.31760
3556.08899 1.31770
3554.04055 1.31845
3551.99211 1.31889
3549.94367 1.31866
3547.89524 1.31922
3545.84680 1.32089
3543.79836 1.32098
3541.74992 1.31957
3539.70148 1.31898
3537.65304 1.31960
3535.60461 1.32096
3533.55617 1.32247
3531.50773 1.32398
3529.45929 1.32597
3527.41085 1.32860
3525.36241 1.33097
3523.31398 1.33215
3521.26554 1.33226
3519.21710 1.33226
3517.16866 1.33295
3515.12022 1.33421
3513.07178 1.33549
3511.02335 1.33628
3508.97491 1.33680
3506.92647 1.33820
3504.87803 1.34053
3502.82959 1.34201
3500.78115 1.34179
3498.73272 1.34181
3496.68428 1.34293
3494.63584 1.34394
3492.58740 1.34436
3490.53896 1.34538
3488.49052 1.34726
3486.44209 1.34911
3484.39365 1.35065
3482.34521 1.35191
3480.29677 1.35285
3478.24833 1.35334
3476.19989 1.35363
3474.15146 1.35425
3472.10302 1.35509
3470.05458 1.35599
3468.00614 1.35699
3465.95770 1.35770
3463.90926 1.35831
3461.86082 1.35907
3459.81239 1.35920
3457.76395 1.35823
3455.71551 1.35769
3453.66707 1.35871
3451.61863 1.36027
3449.57019 1.36140
3447.52176 1.36212
3445.47332 1.36226
3443.42488 1.36213
3441.37644 1.36246
3439.32800 1.36332
3437.27956 1.36430
3435.23113 1.36461
3433.18269 1.36453
3431.13425 1.36516
3429.08581 1.36603
3427.03737 1.36654
3424.98893 1.36711
3422.94050 1.36797
3420.89206 1.36913
3418.84362 1.37010
3416.79518 1.37048
3414.74674 1.37073
3412.69830 1.37118
3410.64987 1.37190
3408.60143 1.37282
3406.55299 1.37384
3404.50455 1.37494
3402.45611 1.37597
3400.40767 1.37711
3398.35924 1.37803
3396.31080 1.37807
3394.26236 1.37800
3392.21392 1.37874
3390.16548 1.37976
3388.11704 1.38057
3386.06861 1.38118
3384.02017 1.38134
3381.97173 1.38118
3379.92329 1.38122
3377.87485 1.38149
3375.82641 1.38199
3373.77798 1.38306
3371.72954 1.38452
3369.68110 1.38571
3367.63266 1.38648
3365.58422 1.38699
3363.53578 1.38774
3361.48735 1.38882
3359.43891 1.38941
3357.39047 1.38969
3355.34203 1.39024
3353.29359 1.39083
3351.24515 1.39114
3349.19672 1.39149
3347.14828 1.39243
3345.09984 1.39367
3343.05140 1.39476
3341.00296 1.39536
3338.95452 1.39533
3336.90609 1.39545
3334.85765 1.39594
3332.80921 1.39640
3330.76077 1.39700
3328.71233 1.39785
3326.66389 1.39880
3324.61545 1.39936
3322.56702 1.39918
3320.51858 1.39883
3318.47014 1.39913
3316.42170 1.40039
3314.37326 1.40145
3312.32482 1.40142
3310.27639 1.40156
3308.22795 1.40255
3306.17951 1.40343
3304.13107 1.40382
3302.08263 1.40379
3300.03419 1.40385
3297.98576 1.40445
3295.93732 1.40500
3293.88888 1.40562
3291.84044 1.40638
3289.79200 1.40675
3287.74356 1.40744
3285.69513 1.40871
3283.64669 1.40986
3281.59825 1.41099
3279.54981 1.41230
3277.50137 1.41327
3275.45293 1.41387
3273.40450 1.41458
3271.35606 1.41520
3269.30762 1.41593
3267.25918 1.41703
3265.21074 1.41787
3263.16230 1.41836
3261.11387 1.41895
3259.06543 1.41948
3257.01699 1.42030
3254.96855 1.42158
3252.92011 1.42228
3250.87167 1.42225
3248.82324 1.42268
3246.77480 1.42400
3244.72636 1.42546
3242.67792 1.42677
3240.62948 1.42817
3238.58104 1.42919
3236.53261 1.42979
3234.48417 1.43055
3232.43573 1.43184
3230.38729 1.43322
3228.33885 1.43383
3226.29041 1.43374
3224.24198 1.43342
3222.19354 1.43297
3220.14510 1.43258
3218.09666 1.43207
3216.04822 1.43122
3213.99978 1.43091
3211.95135 1.43146
3209.90291 1.43182
3207.85447 1.43169
3205.80603 1.43197
3203.75759 1.43271
3201.70915 1.43343
3199.66072 1.43424
3197.61228 1.43426
3195.56384 1.43281
3193.51540 1.43142
3191.46696 1.43028
3189.41852 1.42845
3187.37008 1.42717
3185.32165 1.42665
3183.27321 1.42552
3181.22477 1.42397
3179.17633 1.42248
3177.12789 1.42061
3175.07945 1.41880
3173.03102 1.41794
3170.98258 1.41796
3168.93414 1.41801
3166.88570 1.41799
3164.83726 1.41805
3162.78882 1.41779
3160.74039 1.41734
3158.69195 1.41678
3156.64351 1.41600
3154.59507 1.41533
3152.54663 1.41476
3150.49819 1.41405
3148.44976 1.41372
3146.40132 1.41381
3144.35288 1.41367
3142.30444 1.41359
3140.25600 1.41402
3138.20756 1.41436
3136.15913 1.41429
3134.11069 1.41476
3132.06225 1.41588
3130.01381 1.41638
3127.96537 1.41650
3125.91693 1.41702
3123.86850 1.41757
3121.82006 1.41791
3119.77162 1.41799
3117.72318 1.41767
3115.67474 1.41759
3113.62630 1.41833
3111.57787 1.41921
3109.52943 1.41961
3107.48099 1.42024
3105.43255 1.42102
3103.38411 1.42097
3101.33567 1.42020
3099.28724 1.41957
3097.23880 1.41979
3095.19036 1.42050
3093.14192 1.42061
3091.09348 1.42050
3089.04504 1.42083
3086.99661 1.42115
3084.94817 1.42119
3082.89973 1.42136
3080.85129 1.42179
3078.80285 1.42235
3076.75441 1.42358
3074.70598 1.42561
3072.65754 1.42723
3070.60910 1.42807
3068.56066 1.42923
3066.51222 1.43113
3064.46378 1.43317
3062.41535 1.43520
3060.36691 1.43739
3058.31847 1.44013
3056.27003 1.44417
3054.22159 1.44917
3052.17315 1.45490
3050.12471 1.46211
3048.07628 1.46982
3046.02784 1.47644
3043.97940 1.48237
3041.93096 1.48848
3039.88252 1.49438
3037.83408 1.49896
3035.78565 1.50200
3033.73721 1.50460
3031.68877 1.50757
3029.64033 1.51040
3027.59189 1.51264
3025.54345 1.51469
3023.49502 1.51688
3021.44658 1.51915
3019.39814 1.52208
3017.34970 1.52606
3015.30126 1.52970
3013.25282 1.53232
3011.20439 1.53546
3009.15595 1.53994
3007.10751 1.54507
3005.05907 1.54902
3003.01063 1.55073
3000.96219 1.55181
2998.91376 1.55335
2996.86532 1.55520
2994.81688 1.55758
2992.76844 1.55997
2990.72000 1.56186
2988.67156 1.56349
2986.62313 1.56425
2984.57469 1.56365
2982.52625 1.56278
2980.47781 1.56241
2978.42937 1.56202
2976.38093 1.56148
2974.33250 1.56142
2972.28406 1.56211
2970.23562 1.56300
2968.18718 1.56347
2966.13874 1.56394
2964.09030 1.56449
2962.04187 1.56443
2959.99343 1.56384
2957.94499 1.56345
2955.89655 1.56377
2953.84811 1.56384
2951.79967 1.56308
2949.75124 1.56322
2947.70280 1.56480
2945.65436 1.56575
2943.60592 1.56568
2941.55748 1.56644
2939.50904 1.56848
2937.46061 1.57030
2935.41217 1.57102
2933.36373 1.57177
2931.31529 1.57325
2929.26685 1.57476
2927.21841 1.57677
2925.16998 1.57960
2923.12154 1.58167
2921.07310 1.58211
2919.02466 1.58166
2916.97622 1.58090
2914.92778 1.57895
2912.87934 1.57505
2910.83091 1.57091
2908.78247 1.56809
2906.73403 1.56590
2904.68559 1.56420
2902.63715 1.56320
2900.58871 1.56178
2898.54028 1.55960
2896.49184 1.55745
2894.44340 1.55511
2892.39496 1.55175
2890.34652 1.54718
2888.29808 1.54213
2886.24965 1.53795
2884.20121 1.53481
2882.15277 1.53167
2880.10433 1.52912
2878.05589 1.52820
2876.00745 1.52815
2873.95902 1.52827
2871.91058 1.52880
2869.86214 1.52999
2867.81370 1.53217
2865.76526 1.53549
2863.71682 1.53931
2861.66839 1.54291
2859.61995 1.54661
2857.57151 1.55073
2855.52307 1.55475
2853.47463 1.55755
2851.42619 1.55804
2849.37776 1.55614
2847.32932 1.55204
2845.28088 1.54501
2843.23244 1.53446
2841.18400 1.52106
2839.13556 1.50583
2837.08713 1.49004
2835.03869 1.47535
2832.99025 1.46274
2830.94181 1.45192
2828.89337 1.44220
2826.84493 1.43359
2824.79650 1.42644
2822.74806 1.42074
2820.69962 1.41630
2818.65118 1.41264
2816.60274 1.40925
2814.55430 1.40592
2812.50587 1.40319
2810.45743 1.40143
2808.40899 1.39988
2806.36055 1.39824
2804.31211 1.39649
2802.26367 1.39448
2800.21524 1.39304
2798.16680 1.39218
2796.11836 1.39118
2794.06992 1.39029
2792.02148 1.38979
2789.97304 1.38948
2787.92461 1.38919
2785.87617 1.38893
2783.82773 1.38893
2781.77929 1.38971
2779.73085 1.39119
2777.68241 1.39232
2775.63397 1.39224
2773.58554 1.39117
2771.53710 1.38967
2769.48866 1.38794
2767.44022 1.38656
2765.39178 1.38578
2763.34334 1.38524
2761.29491 1.38466
2759.24647 1.38400
2757.19803 1.38362
2755.14959 1.38377
2753.10115 1.38407
2751.05271 1.38423
2749.00428 1.38419
2746.95584 1.38409
2744.90740 1.38421
2742.85896 1.38441
2740.81052 1.38437
2738.76208 1.38457
2736.71365 1.38571
2734.66521 1.38701
2732.61677 1.38742
2730.56833 1.38756
2728.51989 1.38816
2726.47145 1.38893
2724.42302 1.38964
2722.37458 1.39027
2720.32614 1.39097
2718.27770 1.39175
2716.22926 1.39258
2714.18082 1.39336
2712.13239 1.39402
2710.08395 1.39465
2708.03551 1.39513
2705.98707 1.39587
2703.93863 1.39728
2701.89019 1.39858
2699.84176 1.39944
2697.79332 1.40051
2695.74488 1.40177
2693.69644 1.40302
2691.64800 1.40455
2689.59956 1.40662
2687.55113 1.40867
2685.50269 1.41041
2683.45425 1.41291
2681.40581 1.41606
2679.35737 1.41904
2677.30893 1.42243
2675.26050 1.42701
2673.21206 1.43298
2671.16362 1.44046
2669.11518 1.44963
2667.06674 1.46079
2665.01830 1.47404
2662.96987 1.48882
2660.92143 1.50398
2658.87299 1.51790
2656.82455 1.52952
2654.77611 1.53880
2652.72767 1.54591
2650.67924 1.55134
2648.63080 1.55566
2646.58236 1.55915
2644.53392 1.56208
2642.48548 1.56491
2640.43704 1.56824
2638.38860 1.57170
2636.34017 1.57388
2634.29173 1.57450
2632.24329 1.57479
2630.19485 1.57538
2628.14641 1.57612
2626.09797 1.57680
2624.04954 1.57686
2622.00110 1.57620
2619.95266 1.57549
2617.90422 1.57488
2615.85578 1.57422
2613.80734 1.57329
2611.75891 1.57189
2609.71047 1.57074
2607.66203 1.56999
2605.61359 1.56900
2603.56515 1.56837
2601.51671 1.56834
2599.46828 1.56812
2597.41984 1.56828
2595.37140 1.56976
2593.32296 1.57179
2591.27452 1.57306
2589.22608 1.57403
2587.17765 1.57539
2585.12921 1.57690
2583.08077 1.57855
2581.03233 1.58046
2578.98389 1.58258
2576.93545 1.58489
2574.88702 1.58734
2572.83858 1.59009
2570.79014 1.59324
2568.74170 1.59573
2566.69326 1.59681
2564.64482 1.59743
2562.59639 1.59868
2560.54795 1.60059
2558.49951 1.60230
2556.45107 1.60376
2554.40263 1.60609
2552.35419 1.60922
2550.30576 1.61112
2548.25732 1.61069
2546.20888 1.60822
2544.16044 1.60495
2542.11200 1.60313
2540.06356 1.60362
2538.01513 1.60628
2535.96669 1.61090
2533.91825 1.61647
2531.86981 1.62182
2529.82137 1.62626
2527.77293 1.62898
2525.72450 1.62986
2523.67606 1.62976
2521.62762 1.62856
2519.57918 1.62575
2517.53074 1.62217
2515.48230 1.61896
2513.43387 1.61718
2511.38543 1.61846
2509.33699 1.62260
2507.28855 1.62784
2505.24011 1.63314
2503.19167 1.63735
2501.14324 1.63939
2499.09480 1.63904
2497.04636 1.63645
2494.99792 1.63333
2492.94948 1.63078
2490.90104 1.62714
2488.85260 1.62188
2486.80417 1.61658
2484.75573 1.61178
2482.70729 1.60628
2480.65885 1.59856
2478.61041 1.58784
2476.56197 1.57439
2474.51354 1.55998
2472.46510 1.54668
2470.41666 1.53447
2468.36822 1.52231
2466.31978 1.51065
2464.27134 1.50022
2462.22291 1.49056
2460.17447 1.48171
2458.12603 1.47388
2456.07759 1.46691
2454.02915 1.46133
2451.98071 1.45757
2449.93228 1.45523
2447.88384 1.45357
2445.83540 1.45248
2443.78696 1.45175
2441.73852 1.45100
2439.69008 1.45078
2437.64165 1.45087
2435.59321 1.45034
2433.54477 1.44941
2431.49633 1.44835
2429.44789 1.44715
2427.39945 1.44610
2425.35102 1.44504
2423.30258 1.44377
2421.25414 1.44266
2419.20570 1.44201
2417.15726 1.44170
2415.10882 1.44144
2413.06039 1.44103
2411.01195 1.44049
2408.96351 1.44010
2406.91507 1.44020
2404.86663 1.44102
2402.81819 1.44200
2400.76976 1.44237
2398.72132 1.44278
2396.67288 1.44396
2394.62444 1.44557
2392.57600 1.44740
2390.52756 1.44958
2388.47913 1.45195
2386.43069 1.45472
2384.38225 1.45859
2382.33381 1.46379
2380.28537 1.46963
2378.23693 1.47514
2376.18850 1.48114
2374.14006 1.48907
2372.09162 1.49760
2370.04318 1.50448
2367.99474 1.51077
2365.94630 1.51797
2363.89787 1.52426
2361.84943 1.52917
2359.80099 1.53364
2357.75255 1.53649
2355.70411 1.53766
2353.65567 1.53520
2351.60723 1.52797
2349.55880 1.52056
2347.51036 1.51564
2345.46192 1.51323
2343.41348 1.51215
2341.36504 1.51063
2339.31660 1.50967
2337.26817 1.50956
2335.21973 1.50897
2333.17129 1.50884
2331.12285 1.50947
2329.07441 1.50978
2327.02597 1.50968
2324.97754 1.50819
2322.92910 1.50443
2320.88066 1.49894
2318.83222 1.49256
2316.78378 1.48658
2314.73534 1.48225
2312.68691 1.47909
2310.63847 1.47580
2308.59003 1.47250
2306.54159 1.46970
2304.49315 1.46624
2302.44471 1.46132
2300.39628 1.45601
2298.34784 1.45105
2296.29940 1.44685
2294.25096 1.44403
2292.20252 1.44197
2290.15408 1.44016
2288.10565 1.43917
2286.05721 1.43890
2284.00877 1.43895
2281.96033 1.43918
2279.91189 1.43959
2277.86345 1.44072
2275.81502 1.44246
2273.76658 1.44368
2271.71814 1.44426
2269.66970 1.44494
2267.62126 1.44561
2265.57282 1.44652
2263.52439 1.44829
2261.47595 1.45006
2259.42751 1.45100
2257.37907 1.45166
2255.33063 1.45231
2253.28219 1.45270
2251.23376 1.45294
2249.18532 1.45324
2247.13688 1.45388
2245.08844 1.45468
2243.04000 1.45512
2240.99156 1.45573
2238.94313 1.45708
2236.89469 1.45831
2234.84625 1.45890
2232.79781 1.45962
2230.74937 1.46083
2228.70093 1.46204
2226.65250 1.46329
2224.60406 1.46492
2222.55562 1.46659
2220.50718 1.46801
2218.45874 1.46948
2216.41030 1.47152
2214.36186 1.47410
2212.31343 1.47661
2210.26499 1.47848
2208.21655 1.48017
2206.16811 1.48282
2204.11967 1.48658
2202.07123 1.49058
2200.02280 1.49363
2197.97436 1.49561
2195.92592 1.49759
2193.87748 1.50015
2191.82904 1.50325
2189.78060 1.50656
2187.73217 1.51003
2185.68373 1.51399
2183.63529 1.51854
2181.58685 1.52331
2179.53841 1.52663
2177.48997 1.52695
2175.44154 1.52628
2173.39310 1.52767
2171.34466 1.53100
2169.29622 1.53507
2167.24778 1.53983
2165.19934 1.54542
2163.15091 1.55148
2161.10247 1.55737
2159.05403 1.56304
2157.00559 1.56909
2154.95715 1.57432
2152.90871 1.57477
2150.86028 1.56897
2148.81184 1.56026
2146.76340 1.55179
2144.71496 1.54541
2142.66652 1.54274
2140.61808 1.54334
2138.56965 1.54502
2136.52121 1.54515
2134.47277 1.54284
2132.42433 1.53966
2130.37589 1.53676
2128.32745 1.53450
2126.27902 1.53324
2124.23058 1.53271
2122.18214 1.53195
2120.13370 1.53076
2118.08526 1.52977
2116.03682 1.52826
2113.98839 1.52494
2111.93995 1.52002
2109.89151 1.51420
2107.84307 1.50821
2105.79463 1.50283
2103.74619 1.49806
2101.69776 1.49342
2099.64932 1.48911
2097.60088 1.48598
2095.55244 1.48414
2093.50400 1.48299
2091.45556 1.48243
2089.40713 1.48224
2087.35869 1.48168
2085.31025 1.48136
2083.26181 1.48227
2081.21337 1.48367
2079.16493 1.48463
2077.11649 1.48533
2075.06806 1.48575
2073.01962 1.48621
2070.97118 1.48747
2068.92274 1.48892
2066.87430 1.48961
2064.82586 1.48968
2062.77743 1.48999
2060.72899 1.49102
2058.68055 1.49210
2056.63211 1.49280
2054.58367 1.49356
2052.53523 1.49431
2050.48680 1.49501
2048.43836 1.49604
2046.38992 1.49716
2044.34148 1.49857
2042.29304 1.50121
2040.24460 1.50422
2038.19617 1.50613
2036.14773 1.50769
2034.09929 1.50920
2032.05085 1.51023
2030.00241 1.51159
2027.95397 1.51377
2025.90554 1.51572
2023.85710 1.51633
2021.80866 1.51618
2019.76022 1.51668
2017.71178 1.51761
2015.66334 1.51758
2013.61491 1.51702
2011.56647 1.51679
2009.51803 1.51695
2007.46959 1.51768
2005.42115 1.51852
2003.37271 1.51894
2001.32428 1.51945
1999.27584 1.52056
1997.22740 1.52171
1995.17896 1.52302
1993.13052 1.52602
1991.08208 1.53021
1989.03365 1.53306
1986.98521 1.53500
1984.93677 1.53729
1982.88833 1.53982
1980.83989 1.54196
1978.79145 1.54310
1976.74302 1.54364
1974.69458 1.54464
1972.64614 1.54638
1970.59770 1.54818
1968.54926 1.55033
1966.50082 1.55291
1964.45239 1.55485
1962.40395 1.55670
1960.35551 1.55899
1958.30707 1.56076
1956.25863 1.56265
1954.21019 1.56555
1952.16176 1.56856
1950.11332 1.57089
1948.06488 1.57270
1946.01644 1.57488
1943.96800 1.57789
1941.91956 1.58081
1939.87112 1.58179
1937.82269 1.58181
1935.77425 1.58240
1933.72581 1.58296
1931.67737 1.58340
1929.62893 1.58388
1927.58049 1.58382
1925.53206 1.58384
1923.48362 1.58566
1921.43518 1.58830
1919.38674 1.59036
1917.33830 1.59256
1915.28986 1.59408
1913.24143 1.59541
1911.19299 1.59862
1909.14455 1.60327
1907.09611 1.60686
1905.04767 1.60949
1902.99923 1.61275
1900.95080 1.61626
1898.90236 1.61918
1896.85392 1.62239
1894.80548 1.62604
1892.75704 1.62899
1890.70860 1.63270
1888.66017 1.63744
1886.61173 1.63983
1884.56329 1.64116
1882.51485 1.64386
1880.46641 1.64713
1878.41797 1.65009
1876.36954 1.65311
1874.32110 1.65660
1872.27266 1.65981
1870.22422 1.66435
1868.17578 1.67186
1866.12734 1.67623
1864.07891 1.67675
1862.03047 1.67880
1859.98203 1.68397
1857.93359 1.68951
1855.88515 1.69352
1853.83671 1.69678
1851.78828 1.70070
1849.73984 1.70652
1847.69140 1.71446
1845.64296 1.72369
1843.59452 1.73374
1841.54608 1.74060
1839.49765 1.74593
1837.44921 1.75404
1835.40077 1.76385
1833.35233 1.77293
1831.30389 1.78373
1829.25545 1.79831
1827.20702 1.80951
1825.15858 1.81903
1823.11014 1.83081
1821.06170 1.84292
1819.01326 1.85740
1816.96482 1.87470
1814.91639 1.89168
1812.86795 1.90899
1810.81951 1.93059
1808.77107 1.95409
1806.72263 1.97613
1804.67419 1.99843
1802.62575 2.02402
1800.57732 2.05003
1798.52888 2.06674
1796.48044 2.07634
1794.43200 2.08770
1792.38356 2.10509
1790.33512 2.11650
1788.28669 2.11396
1786.23825 2.10879
1784.18981 2.10889
1782.14137 2.11070
1780.09293 2.10949
1778.04449 2.10576
1775.99606 2.10312
1773.94762 2.10645
1771.89918 2.11977
1769.85074 2.13232
1767.80230 2.13571
1765.75386 2.13389
1763.70543 2.13455
1761.65699 2.14472
1759.60855 2.15759
1757.56011 2.16889
1755.51167 2.17950
1753.46323 2.18882
1751.41480 2.20317
1749.36636 2.21855
1747.31792 2.22193
1745.26948 2.22133
1743.22104 2.22457
1741.17260 2.23025
1739.12417 2.23382
1737.07573 2.23626
1735.02729 2.24548
1732.97885 2.25244
1730.93041 2.24922
1728.88197 2.24769
1726.83354 2.24713
1724.78510 2.24982
1722.73666 2.25866
1720.68822 2.27166
1718.63978 2.28786
1716.59134 2.29681
1714.54291 2.28835
1712.49447 2.28238
1710.44603 2.28073
1708.39759 2.28446
1706.34915 2.29293
1704.30071 2.29379
1702.25228 2.29028
1700.20384 2.29414
1698.15540 2.29812
1696.10696 2.29569
1694.05852 2.29328
1692.01008 2.29145
1689.96165 2.29283
1687.91321 2.29634
1685.86477 2.30576
1683.81633 2.31798
1681.76789 2.31130
1679.71945 2.30449
1677.67102 2.30367
1675.62258 2.31080
1673.57414 2.32199
1671.52570 2.33020
1669.47726 2.32734
1667.42882 2.31238
1665.38038 2.30290
1663.33195 2.30522
1661.28351 2.31031
1659.23507 2.30848
1657.18663 2.30557
1655.13819 2.30544
1653.08975 2.31082
1651.04132 2.30810
1648.99288 2.30346
1646.94444 2.30241
1644.89600 2.30096
1642.84756 2.29463
1640.79912 2.29220
1638.75069 2.29380
1636.70225 2.29384
1634.65381 2.27947
1632.60537 2.26155
1630.55693 2.25043
1628.50849 2.23986
1626.46006 2.22896
1624.41162 2.21777
1622.36318 2.20305
1620.31474 2.18431
1618.26630 2.16573
1616.21786 2.13792
1614.16943 2.10848
1612.12099 2.08328
1610.07255 2.05534
1608.02411 2.02063
1605.97567 1.98131
1603.92723 1.93886
1601.87880 1.88795
1599.83036 1.83233
1597.78192 1.77295
1595.73348 1.70415
1593.68504 1.62550
1591.63660 1.54492
1589.58817 1.46650
1587.53973 1.39731
1585.49129 1.34371
1583.44285 1.30819
1581.39441 1.29196
1579.34597 1.29167
1577.29754 1.30657
1575.24910 1.33531
1573.20066 1.35693
1571.15222 1.37775
1569.10378 1.40396
1567.05534 1.40425
1565.00691 1.36933
1562.95847 1.32390
1560.91003 1.28059
1558.86159 1.18811
1556.81315 1.10787
1554.76471 1.07693
1552.71628 1.05164
1550.66784 1.03036
1548.61940 1.01255
1546.57096 1.00164
1544.52252 0.99619
1542.47408 0.99197
1540.42565 0.98187
1538.37721 0.96846
1536.32877 0.96211
1534.28033 0.95840
1532.23189 0.95342
1530.18345 0.94916
1528.13501 0.94749
1526.08658 0.94701
1524.03814 0.94645
1521.98970 0.94597
1519.94126 0.94361
1517.89282 0.94039
1515.84438 0.93650
1513.79595 0.93233
1511.74751 0.93057
1509.69907 0.93177
1507.65063 0.93351
1505.60219 0.92691
1503.55375 0.92068
1501.50532 0.91794
1499.45688 0.91768
1497.40844 0.91836
1495.36000 0.91652
1493.31156 0.91470
1491.26312 0.91647
1489.21469 0.91999
1487.16625 0.91757
1485.11781 0.91326
1483.06937 0.91130
1481.02093 0.91107
1478.97249 0.91141
1476.92406 0.91331
1474.87562 0.91759
1472.82718 0.92149
1470.77874 0.92062
1468.73030 0.91966
1466.68186 0.92322
1464.63343 0.93197
1462.58499 0.94089
1460.53655 0.95088
1458.48811 0.97962
1456.43967 1.04791
1454.39123 1.09414
1452.34280 1.12034
1450.29436 1.14746
1448.24592 1.17744
1446.19748 1.20500
1444.14904 1.22560
1442.10060 1.24363
1440.05217 1.26082
1438.00373 1.28005
1435.95529 1.30499
1433.90685 1.32193
1431.85841 1.33341
1429.80997 1.34661
1427.76154 1.35809
1425.71310 1.36725
1423.66466 1.37703
1421.61622 1.38654
1419.56778 1.39814
1417.51934 1.41050
1415.47091 1.41646
1413.42247 1.42221
1411.37403 1.42980
1409.32559 1.43757
1407.27715 1.44539
1405.22871 1.45444
1403.18028 1.46188
1401.13184 1.46847
1399.08340 1.47819
1397.03496 1.48843
1394.98652 1.49586
1392.93808 1.49958
1390.88965 1.50228
1388.84121 1.50754
1386.79277 1.51470
1384.74433 1.51905
1382.69589 1.52288
1380.64745 1.52801
1378.59901 1.53346
1376.55058 1.53957
1374.50214 1.54703
1372.45370 1.55279
1370.40526 1.55608
1368.35682 1.56009
1366.30838 1.56444
1364.25995 1.56984
1362.21151 1.57641
1360.16307 1.58105
1358.11463 1.58432
1356.06619 1.58839
1354.01775 1.59242
1351.96932 1.59587
1349.92088 1.59926
1347.87244 1.60267
1345.82400 1.60663
1343.77556 1.61110
1341.72712 1.61721
1339.67869 1.62393
1337.63025 1.62692
1335.58181 1.62748
1333.53337 1.62913
1331.48493 1.63145
1329.43649 1.63448
1327.38806 1.63831
1325.33962 1.64206
1323.29118 1.64555
1321.24274 1.64932
1319.19430 1.65369
1317.14586 1.65702
1315.09743 1.65902
1313.04899 1.66072
1311.00055 1.66309
1308.95211 1.66574
1306.90367 1.66792
1304.85523 1.67020
1302.80680 1.67279
1300.75836 1.67484
1298.70992 1.67703
1296.66148 1.68021
1294.61304 1.68313
1292.56460 1.68582
1290.51617 1.68863
1288.46773 1.69121
1286.41929 1.69333
1284.37085 1.69518
1282.32241 1.69678
1280.27397 1.69825
1278.22554 1.69920
1276.17710 1.69955
1274.12866 1.70055
1272.08022 1.70211
1270.03178 1.70318
1267.98334 1.70382
1265.93491 1.70477
1263.88647 1.70568
1261.83803 1.70648
1259.78959 1.70730
1257.74115 1.70823
1255.69271 1.70921
1253.64428 1.71025
1251.59584 1.71197
1249.54740 1.71398
1247.49896 1.71535
1245.45052 1.71586
1243.40208 1.71620
1241.35364 1.71677
1239.30521 1.71766
1237.25677 1.71867
1235.20833 1.71942
1233.15989 1.71977
1231.11145 1.72050
1229.06301 1.72252
1227.01458 1.72510
1224.96614 1.72705
1222.91770 1.72824
1220.86926 1.72969
1218.82082 1.73169
1216.77238 1.73309
1214.72395 1.73320
1212.67551 1.73281
1210.62707 1.73368
1208.57863 1.73602
1206.53019 1.73784
1204.48175 1.73902
1202.43332 1.74083
1200.38488 1.74273
1198.33644 1.74479
1196.28800 1.74768
1194.23956 1.74987
1192.19112 1.75061
1190.14269 1.75153
1188.09425 1.75290
1186.04581 1.75357
1183.99737 1.75376
1181.94893 1.75445
1179.90049 1.75562
1177.85206 1.75693
1175.80362 1.75816
1173.75518 1.75950
1171.70674 1.76126
1169.65830 1.76226
1167.60986 1.76156
1165.56143 1.75957
1163.51299 1.75687
1161.46455 1.75423
1159.41611 1.75224
1157.36767 1.75040
1155.31923 1.74776
1153.27080 1.74483
1151.22236 1.74299
1149.17392 1.74243
1147.12548 1.74243
1145.07704 1.74229
1143.02860 1.74120
1140.98017 1.73847
1138.93173 1.73507
1136.88329 1.73261
1134.83485 1.73016
1132.78641 1.72701
1130.73797 1.72417
1128.68954 1.72053
1126.64110 1.71468
1124.59266 1.70861
1122.54422 1.70492
1120.49578 1.70344
1118.44734 1.70236
1116.39891 1.70054
1114.35047 1.69902
1112.30203 1.69923
1110.25359 1.70160
1108.20515 1.70543
1106.15671 1.70987
1104.10827 1.71471
1102.05984 1.71899
1100.01140 1.72267
1097.96296 1.72772
1095.91452 1.73696
1093.86608 1.75189
1091.81764 1.77198
1089.76921 1.79819
1087.72077 1.82666
1085.67233 1.81037
1083.62389 1.74191
1081.57545 1.70963
1079.52701 1.73091
1077.47858 1.74618
1075.43014 1.73642
1073.38170 1.72201
1071.33326 1.71282
1069.28482 1.70690
1067.23638 1.70014
1065.18795 1.69417
1063.13951 1.69463
1061.09107 1.70455
1059.04263 1.70992
1056.99419 1.69926
1054.94575 1.68595
1052.89732 1.67964
1050.84888 1.67615
1048.80044 1.67325
1046.75200 1.67214
1044.70356 1.67357
1042.65512 1.67583
1040.60669 1.67761
1038.55825 1.67883
1036.50981 1.67868
1034.46137 1.67775
1032.41293 1.67813
1030.36449 1.68062
1028.31606 1.68363
1026.26762 1.68505
1024.21918 1.68500
1022.17074 1.68631
1020.12230 1.68907
1018.07386 1.69050
1016.02543 1.69054
1013.97699 1.69174
1011.92855 1.69536
1009.88011 1.70112
1007.83167 1.70751
1005.78323 1.71259
1003.73480 1.71551
1001.68636 1.71701
999.63792 1.72030
997.58948 1.72634
995.54104 1.73310
993.49260 1.73925
991.44417 1.74410
989.39573 1.74810
987.34729 1.75262
985.29885 1.75793
983.25041 1.76312
981.20197 1.76734
979.15354 1.77039
977.10510 1.77235
975.05666 1.77423
973.00822 1.77733
970.95978 1.77926
968.91134 1.77835
966.86290 1.77849
964.81447 1.78318
962.76603 1.79062
960.71759 1.79684
958.66915 1.80121
956.62071 1.80518
954.57227 1.80801
952.52384 1.80998
950.47540 1.81391
948.42696 1.81916
946.37852 1.82267
944.33008 1.82460
942.28164 1.82682
940.23321 1.82919
938.18477 1.83189
936.13633 1.83517
934.08789 1.83853
932.03945 1.84123
929.99101 1.84334
927.94258 1.84696
925.89414 1.85226
923.84570 1.85675
921.79726 1.85965
919.74882 1.86224
917.70038 1.86539
915.65195 1.87281
913.60351 1.89004
911.55507 1.91740
909.50663 1.94032
907.45819 1.94198
905.40975 1.92991
903.36132 1.91920
901.31288 1.91419
899.26444 1.91320
897.21600 1.91172
895.16756 1.90616
893.11912 1.89789
891.07069 1.88747
889.02225 1.87093
886.97381 1.84327
884.92537 1.79494
882.87693 1.70313
880.82849 1.53902
878.78006 1.32601
876.73162 1.14304
874.68318 1.03305
872.63474 0.98379
870.58630 0.96407
868.53786 0.95424
866.48943 0.94832
864.44099 0.94481
862.39255 0.94297
860.34411 0.94243
858.29567 0.94436
856.24723 0.95452
854.19880 0.99085
852.15036 1.07410
850.10192 1.19520
848.05348 1.31053
846.00504 1.38203
843.95660 1.40691
841.90817 1.42319
839.85973 1.45601
837.81129 1.49082
835.76285 1.51727
833.71441 1.53814
831.66597 1.55485
829.61753 1.56870
827.56910 1.58084
825.52066 1.59068
823.47222 1.59874
821.42378 1.60620
819.37534 1.61243
817.32690 1.61748
815.27847 1.62255
813.23003 1.62791
811.18159 1.63276
809.13315 1.63709
807.08471 1.64140
805.03627 1.64633
802.98784 1.65118
800.93940 1.65355
798.89096 1.65357
796.84252 1.65498
794.79408 1.65795
792.74564 1.65862
790.69721 1.65641
788.64877 1.65495
786.60033 1.65796
784.55189 1.66445
782.50345 1.67004
780.45501 1.67359
778.40658 1.67652
776.35814 1.67856
774.30970 1.67875
772.26126 1.67920
770.21282 1.68138
768.16438 1.68419
766.11595 1.68867
764.06751 1.69446
762.01907 1.69915
759.97063 1.70190
757.92219 1.70404
755.87375 1.70740
753.82532 1.71279
751.77688 1.71900
749.72844 1.72508
747.68000 1.73248
745.63156 1.73852
743.58312 1.73909
741.53469 1.73703
739.48625 1.74010
737.43781 1.74932
735.38937 1.75927
733.34093 1.76942
731.29249 1.78217
729.24406 1.79515
727.19562 1.80851
725.14718 1.82898
723.09874 1.86221
721.05030 1.91032
719.00186 1.95726
716.95343 1.88691
714.90499 1.68311
712.85655 1.55576
710.80811 1.57304
708.75967 1.65875
706.71123 1.72288
704.66280 1.76305
702.61436 1.78178
700.56592 1.76528
698.51748 1.74167
696.46904 1.73840
694.42060 1.74429
692.37216 1.74780
690.32373 1.74691
688.27529 1.74316
686.22685 1.74018
684.17841 1.73838
682.12997 1.73658
680.08153 1.73513
678.03310 1.73711
675.98466 1.74265
673.93622 1.74769
671.88778 1.75624
669.83934 1.77839
667.79090 1.79282
665.74247 1.77271
663.69403 1.75307
661.64559 1.74254
659.59715 1.74103
657.54871 1.74462
655.50027 1.75040
653.45184 1.76558
651.40340 1.78275
649.35496 1.78087
647.30652 1.77002
645.25808 1.76995
643.20964 1.77998
641.16121 1.78655
639.11277 1.78628
637.06433 1.78169
635.01589 1.77213
632.96745 1.76335
630.91901 1.75845
628.87058 1.75397
626.82214 1.75109
624.77370 1.75368
622.72526 1.75836
620.67682 1.76159
618.62838 1.75903
616.57995 1.75476
614.53151 1.75502
612.48307 1.75203
610.43463 1.75451
608.38619 1.77285
606.33775 1.78893
604.28932 1.78687
602.24088 1.77776
600.19244 1.79627
598.14400 1.83171
