3996.50324 1.98394
3994.45480 1.99048
3992.40636 1.99681
3990.35792 1.99842
3988.30948 1.99775
3986.26104 2.00047
3984.21261 2.00616
3982.16417 2.00952
3980.11573 2.00912
3978.06729 2.00813
3976.01885 2.00846
3973.97041 2.01034
3971.92198 2.01251
3969.87354 2.01040
3967.82510 2.00506
3965.77666 2.00353
3963.72822 2.00616
3961.67978 2.00762
3959.63135 2.00592
3957.58291 2.00532
3955.53447 2.00758
3953.48603 2.00808
3951.43759 2.00513
3949.38915 2.00305
3947.34072 2.00306
3945.29228 2.00318
3943.24384 2.00467
3941.19540 2.00701
3939.14696 2.00653
3937.09852 2.00318
3935.05009 2.00092
3933.00165 2.00161
3930.95321 2.00302
3928.90477 2.00530
3926.85633 2.00882
3924.80789 2.01074
3922.75946 2.01051
3920.71102 2.01162
3918.66258 2.01386
3916.61414 2.01272
3914.56570 2.01117
3912.51726 2.01150
3910.46883 2.00987
3908.42039 2.00985
3906.37195 2.01495
3904.32351 2.02041
3902.27507 2.02063
3900.22663 2.01673
3898.17820 2.01346
3896.12976 2.01408
3894.08132 2.01761
3892.03288 2.01835
3889.98444 2.01442
3887.93600 2.01355
3885.88756 2.01621
3883.83913 2.02052
3881.79069 2.02551
3879.74225 2.02597
3877.69381 2.02287
3875.64537 2.02197
3873.59693 2.02356
3871.54850 2.02603
3869.50006 2.02534
3867.45162 2.02282
3865.40318 2.02131
3863.35474 2.01884
3861.30630 2.01801
3859.25787 2.02053
3857.20943 2.02372
3855.16099 2.02303
3853.11255 2.01733
3851.06411 2.01687
3849.01567 2.01735
3846.96724 2.01699
3844.91880 2.01814
3842.87036 2.02170
3840.82192 2.02676
3838.77348 2.02898
3836.72504 2.02545
3834.67661 2.02140
3832.62817 2.01910
3830.57973 2.01725
3828.53129 2.01577
3826.48285 2.01549
3824.43441 2.01694
3822.38598 2.02074
3820.33754 2.02241
3818.28910 2.01725
3816.24066 2.00970
3814.19222 2.00645
3812.14378 2.00844
3810.09535 2.01237
3808.04691 2.01762
3805.99847 2.01976
3803.95003 2.01948
3801.90159 2.02148
3799.85315 2.01976
3797.80472 2.01440
3795.75628 2.00933
3793.70784 2.00672
3791.65940 2.00799
3789.61096 2.01003
3787.56252 2.00911
3785.51409 2.00722
3783.46565 2.00729
3781.41721 2.00768
3779.36877 2.00636
3777.32033 2.00427
3775.27189 2.00331
3773.22346 2.00384
3771.17502 2.00543
3769.12658 2.00681
3767.07814 2.00737
3765.02970 2.00836
3762.98126 2.01007
3760.93283 2.01005
3758.88439 2.00566
3756.83595 2.00076
3754.78751 2.00280
3752.73907 2.01459
3750.69063 2.02801
3748.64219 2.03304
3746.59376 2.03950
3744.54532 2.04233
3742.49688 2.03511
3740.44844 2.02859
3738.40000 2.02856
3736.35156 2.03335
3734.30313 2.03100
3732.25469 2.02372
3730.20625 2.01957
3728.15781 2.01866
3726.10937 2.02112
3724.06093 2.02286
3722.01250 2.02088
3719.96406 2.01767
3717.91562 2.01401
3715.86718 2.01274
3713.81874 2.01847
3711.77030 2.02807
3709.72187 2.02406
3707.67343 2.01393
3705.62499 2.01178
3703.57655 2.01572
3701.52811 2.01711
3699.47967 2.01189
3697.43124 2.00812
3695.38280 2.01029
3693.33436 2.01458
3691.28592 2.01508
3689.23748 2.01239
3687.18904 2.01164
3685.14061 2.01249
3683.09217 2.01513
3681.04373 2.01928
3678.99529 2.02341
3676.94685 2.02488
3674.89841 2.02310
3672.84998 2.02163
3670.80154 2.02009
3668.75310 2.02131
3666.70466 2.02225
3664.65622 2.01836
3662.60778 2.01441
3660.55935 2.01724
3658.51091 2.02508
3656.46247 2.03086
3654.41403 2.03493
3652.36559 2.04239
3650.31715 2.04747
3648.26872 2.03591
3646.22028 2.02634
3644.17184 2.02545
3642.12340 2.02516
3640.07496 2.02410
3638.02652 2.02476
3635.97809 2.02709
3633.92965 2.02952
3631.88121 2.03106
3629.83277 2.03252
3627.78433 2.03314
3625.73589 2.03239
3623.68746 2.03274
3621.63902 2.03304
3619.59058 2.03026
3617.54214 2.02620
3615.49370 2.02639
3613.44526 2.03042
3611.39682 2.03437
3609.34839 2.03388
3607.29995 2.02927
3605.25151 2.02856
3603.20307 2.03279
3601.15463 2.03360
3599.10619 2.02975
3597.05776 2.03080
3595.00932 2.03669
3592.96088 2.03977
3590.91244 2.03908
3588.86400 2.03651
3586.81556 2.03390
3584.76713 2.03460
3582.71869 2.03619
3580.67025 2.03869
3578.62181 2.04140
3576.57337 2.04001
3574.52493 2.03791
3572.47650 2.04054
3570.42806 2.04477
3568.37962 2.04546
3566.33118 2.04195
3564.28274 2.03932
3562.23430 2.04126
3560.18587 2.04480
3558.13743 2.04511
3556.08899 2.04449
3554.04055 2.04518
3551.99211 2.04441
3549.94367 2.04176
3547.89524 2.04000
3545.84680 2.04007
3543.79836 2.04137
3541.74992 2.04246
3539.70148 2.04168
3537.65304 2.03927
3535.60461 2.03821
3533.55617 2.04028
3531.50773 2.04480
3529.45929 2.04836
3527.41085 2.04633
3525.36241 2.04311
3523.31398 2.04408
3521.26554 2.04676
3519.21710 2.04720
3517.16866 2.04553
3515.12022 2.04381
3513.07178 2.04286
3511.02335 2.04330
3508.97491 2.04304
3506.92647 2.04197
3504.87803 2.04367
3502.82959 2.04749
3500.78115 2.04949
3498.73272 2.04939
3496.68428 2.04779
3494.63584 2.04531
3492.58740 2.04489
3490.53896 2.04672
3488.49052 2.04899
3486.44209 2.05066
3484.39365 2.05170
3482.34521 2.05133
3480.29677 2.04920
3478.24833 2.04633
3476.19989 2.04305
3474.15146 2.04278
3472.10302 2.04665
3470.05458 2.04964
3468.00614 2.04861
3465.95770 2.04571
3463.90926 2.04499
3461.86082 2.04581
3459.81239 2.04407
3457.76395 2.04120
3455.71551 2.04056
3453.66707 2.04044
3451.61863 2.03993
3449.57019 2.04006
3447.52176 2.03820
3445.47332 2.03359
3443.42488 2.03062
3441.37644 2.03258
3439.32800 2.04183
3437.27956 2.05536
3435.23113 2.06464
3433.18269 2.06757
3431.13425 2.06850
3429.08581 2.06874
3427.03737 2.06780
3424.98893 2.06608
3422.94050 2.06338
3420.89206 2.06076
3418.84362 2.05952
3416.79518 2.05926
3414.74674 2.05893
3412.69830 2.05819
3410.64987 2.05838
3408.60143 2.05971
3406.55299 2.06077
3404.50455 2.06126
3402.45611 2.05993
3400.40767 2.05588
3398.35924 2.05312
3396.31080 2.05340
3394.26236 2.05453
3392.21392 2.05621
3390.16548 2.05810
3388.11704 2.05821
3386.06861 2.05626
3384.02017 2.05614
3381.97173 2.05855
3379.92329 2.05918
3377.87485 2.05604
3375.82641 2.05232
3373.77798 2.05293
3371.72954 2.05690
3369.68110 2.05981
3367.63266 2.06054
3365.58422 2.05961
3363.53578 2.05748
3361.48735 2.05629
3359.43891 2.05811
3357.39047 2.05958
3355.34203 2.05775
3353.29359 2.05595
3351.24515 2.05567
3349.19672 2.05534
3347.14828 2.05516
3345.09984 2.05649
3343.05140 2.05803
3341.00296 2.05822
3338.95452 2.05871
3336.90609 2.05886
3334.85765 2.05802
3332.80921 2.05768
3330.76077 2.05635
3328.71233 2.05555
3326.66389 2.05776
3324.61545 2.05791
3322.56702 2.05468
3320.51858 2.05275
3318.47014 2.05206
3316.42170 2.05116
3314.37326 2.05131
3312.32482 2.05347
3310.27639 2.05465
3308.22795 2.05419
3306.17951 2.05502
3304.13107 2.05536
3302.08263 2.05374
3300.03419 2.05146
3297.98576 2.05036
3295.93732 2.05223
3293.88888 2.05491
3291.84044 2.05695
3289.79200 2.05863
3287.74356 2.05797
3285.69513 2.05594
3283.64669 2.05422
3281.59825 2.05201
3279.54981 2.05068
3277.50137 2.05103
3275.45293 2.05319
3273.40450 2.05710
3271.35606 2.05893
3269.30762 2.05734
3267.25918 2.05575
3265.21074 2.05462
3263.16230 2.05308
3261.11387 2.05282
3259.06543 2.05468
3257.01699 2.05781
3254.96855 2.05905
3252.92011 2.05445
3250.87167 2.04770
3248.82324 2.04629
3246.77480 2.04943
3244.72636 2.05164
3242.67792 2.05128
3240.62948 2.04913
3238.58104 2.04596
3236.53261 2.04389
3234.48417 2.04363
3232.43573 2.04440
3230.38729 2.04641
3228.33885 2.04789
3226.29041 2.04818
3224.24198 2.04842
3222.19354 2.04922
3220.14510 2.05002
3218.09666 2.04915
3216.04822 2.04748
3213.99978 2.04588
3211.95135 2.04559
3209.90291 2.04683
3207.85447 2.04680
3205.80603 2.04521
3203.75759 2.04446
3201.70915 2.04507
3199.66072 2.04449
3197.61228 2.04276
3195.56384 2.04292
3193.51540 2.04464
3191.46696 2.04502
3189.41852 2.04406
3187.37008 2.04427
3185.32165 2.04590
3183.27321 2.04697
3181.22477 2.04734
3179.17633 2.04807
3177.12789 2.04757
3175.07945 2.04507
3173.03102 2.04277
3170.98258 2.04166
3168.93414 2.04220
3166.88570 2.04460
3164.83726 2.04592
3162.78882 2.04520
3160.74039 2.04576
3158.69195 2.04698
3156.64351 2.04590
3154.59507 2.04452
3152.54663 2.04201
3150.49819 2.03722
3148.44976 2.03652
3146.40132 2.04010
3144.35288 2.04156
3142.30444 2.03975
3140.25600 2.03808
3138.20756 2.03794
3136.15913 2.03813
3134.11069 2.03985
3132.06225 2.04299
3130.01381 2.04479
3127.96537 2.04429
3125.91693 2.04303
3123.86850 2.04163
3121.82006 2.04045
3119.77162 2.04281
3117.72318 2.04736
3115.67474 2.04855
3113.62630 2.04632
3111.57787 2.04337
3109.52943 2.04004
3107.48099 2.03811
3105.43255 2.03904
3103.38411 2.04083
3101.33567 2.04196
3099.28724 2.04176
3097.23880 2.04021
3095.19036 2.03843
3093.14192 2.03850
3091.09348 2.04047
3089.04504 2.04199
3086.99661 2.04257
3084.94817 2.04161
3082.89973 2.03926
3080.85129 2.03801
3078.80285 2.03900
3076.75441 2.04158
3074.70598 2.04349
3072.65754 2.04382
3070.60910 2.04322
3068.56066 2.04274
3066.51222 2.04378
3064.46378 2.04504
3062.41535 2.04536
3060.36691 2.04591
3058.31847 2.04713
3056.27003 2.04620
3054.22159 2.04280
3052.17315 2.04154
3050.12471 2.04211
3048.07628 2.04212
3046.02784 2.04348
3043.97940 2.04643
3041.93096 2.04707
3039.88252 2.04437
3037.83408 2.04237
3035.78565 2.04415
3033.73721 2.04797
3031.68877 2.05020
3029.64033 2.05159
3027.59189 2.05419
3025.54345 2.05516
3023.49502 2.05265
3021.44658 2.05064
3019.39814 2.05218
3017.34970 2.05479
3015.30126 2.05615
3013.25282 2.05644
3011.20439 2.05578
3009.15595 2.05655
3007.10751 2.05990
3005.05907 2.06222
3003.01063 2.06194
3000.96219 2.06152
2998.91376 2.06263
2996.86532 2.06443
2994.81688 2.06548
2992.76844 2.06472
2990.72000 2.06296
2988.67156 2.06302
2986.62313 2.06532
2984.57469 2.06741
2982.52625 2.06761
2980.47781 2.06688
2978.42937 2.06636
2976.38093 2.06528
2974.33250 2.06348
2972.28406 2.06195
2970.23562 2.06230
2968.18718 2.06418
2966.13874 2.06493
2964.09030 2.06421
2962.04187 2.06400
2959.99343 2.06427
2957.94499 2.06322
2955.89655 2.06182
2953.84811 2.06212
2951.79967 2.06400
2949.75124 2.06630
2947.70280 2.06744
2945.65436 2.06676
2943.60592 2.06602
2941.55748 2.06726
2939.50904 2.07002
2937.46061 2.07110
2935.41217 2.06945
2933.36373 2.06834
2931.31529 2.06745
2929.26685 2.06487
2927.21841 2.06363
2925.16998 2.06558
2923.12154 2.06729
2921.07310 2.06562
2919.02466 2.06416
2916.97622 2.06663
2914.92778 2.07107
2912.87934 2.07463
2910.83091 2.07503
2908.78247 2.07249
2906.73403 2.07134
2904.68559 2.07365
2902.63715 2.07468
2900.58871 2.07194
2898.54028 2.06923
2896.49184 2.06891
2894.44340 2.07083
2892.39496 2.07305
2890.34652 2.07335
2888.29808 2.07207
2886.24965 2.07112
2884.20121 2.07184
2882.15277 2.07198
2880.10433 2.06964
2878.05589 2.06817
2876.00745 2.06875
2873.95902 2.06890
2871.91058 2.06922
2869.86214 2.07038
2867.81370 2.07062
2865.76526 2.07031
2863.71682 2.07000
2861.66839 2.06929
2859.61995 2.06928
2857.57151 2.06963
2855.52307 2.06899
2853.47463 2.06762
2851.42619 2.06608
2849.37776 2.06479
2847.32932 2.06533
2845.28088 2.06847
2843.23244 2.07120
2841.18400 2.07043
2839.13556 2.06831
2837.08713 2.06964
2835.03869 2.07311
2832.99025 2.07313
2830.94181 2.07067
2828.89337 2.07003
2826.84493 2.07035
2824.79650 2.06906
2822.74806 2.06641
2820.69962 2.06393
2818.65118 2.06184
2816.60274 2.06022
2814.55430 2.05989
2812.50587 2.05945
2810.45743 2.05774
2808.40899 2.05650
2806.36055 2.05685
2804.31211 2.05692
2802.26367 2.05498
2800.21524 2.05256
2798.16680 2.05172
2796.11836 2.05174
2794.06992 2.05093
2792.02148 2.05003
2789.97304 2.05022
2787.92461 2.05079
2785.87617 2.05197
2783.82773 2.05314
2781.77929 2.05144
2779.73085 2.04768
2777.68241 2.04622
2775.63397 2.04779
2773.58554 2.04968
2771.53710 2.04955
2769.48866 2.04643
2767.44022 2.04342
2765.39178 2.04391
2763.34334 2.04616
2761.29491 2.04645
2759.24647 2.04417
2757.19803 2.04377
2755.14959 2.04740
2753.10115 2.05089
2751.05271 2.05094
2749.00428 2.04930
2746.95584 2.04894
2744.90740 2.04959
2742.85896 2.05006
2740.81052 2.05022
2738.76208 2.05043
2736.71365 2.04998
2734.66521 2.04755
2732.61677 2.04508
2730.56833 2.04460
2728.51989 2.04570
2726.47145 2.04756
2724.42302 2.04850
2722.37458 2.04810
2720.32614 2.04768
2718.27770 2.04741
2716.22926 2.04796
2714.18082 2.04890
2712.13239 2.04896
2710.08395 2.04963
2708.03551 2.05116
2705.98707 2.05198
2703.93863 2.05176
2701.89019 2.05111
2699.84176 2.05097
2697.79332 2.05169
2695.74488 2.05219
2693.69644 2.05148
2691.64800 2.05132
2689.59956 2.05353
2687.55113 2.05636
2685.50269 2.05744
2683.45425 2.05724
2681.40581 2.05789
2679.35737 2.05997
2677.30893 2.06191
2675.26050 2.06278
2673.21206 2.06334
2671.16362 2.06376
2669.11518 2.06376
2667.06674 2.06521
2665.01830 2.06852
2662.96987 2.07111
2660.92143 2.07160
2658.87299 2.07059
2656.82455 2.07033
2654.77611 2.07192
2652.72767 2.07390
2650.67924 2.07466
2648.63080 2.07472
2646.58236 2.07677
2644.53392 2.07951
2642.48548 2.07801
2640.43704 2.07485
2638.38860 2.07634
2636.34017 2.08017
2634.29173 2.08112
2632.24329 2.08005
2630.19485 2.07949
2628.14641 2.08001
2626.09797 2.08213
2624.04954 2.08447
2622.00110 2.08515
2619.95266 2.08534
2617.90422 2.08640
2615.85578 2.08830
2613.80734 2.08939
2611.75891 2.08800
2609.71047 2.08559
2607.66203 2.08580
2605.61359 2.08804
2603.56515 2.08799
2601.51671 2.08650
2599.46828 2.08688
2597.41984 2.08852
2595.37140 2.08923
2593.32296 2.08869
2591.27452 2.08749
2589.22608 2.08665
2587.17765 2.08679
2585.12921 2.08699
2583.08077 2.08687
2581.03233 2.08589
2578.98389 2.08454
2576.93545 2.08516
2574.88702 2.08721
2572.83858 2.08877
2570.79014 2.09042
2568.74170 2.09136
2566.69326 2.08996
2564.64482 2.08868
2562.59639 2.09067
2560.54795 2.09457
2558.49951 2.09686
2556.45107 2.09582
2554.40263 2.09303
2552.35419 2.09156
2550.30576 2.09126
2548.25732 2.09189
2546.20888 2.09427
2544.16044 2.09670
2542.11200 2.09694
2540.06356 2.09422
2538.01513 2.09216
2535.96669 2.09442
2533.91825 2.09710
2531.86981 2.09684
2529.82137 2.09621
2527.77293 2.09610
2525.72450 2.09573
2523.67606 2.09547
2521.62762 2.09600
2519.57918 2.09771
2517.53074 2.10003
2515.48230 2.10106
2513.43387 2.09925
2511.38543 2.09656
2509.33699 2.09456
2507.28855 2.09273
2505.24011 2.09202
2503.19167 2.09293
2501.14324 2.09299
2499.09480 2.09036
2497.04636 2.08768
2494.99792 2.08694
2492.94948 2.08614
2490.90104 2.08490
2488.85260 2.08493
2486.80417 2.08587
2484.75573 2.08582
2482.70729 2.08486
2480.65885 2.08545
2478.61041 2.08772
2476.56197 2.08905
2474.51354 2.08912
2472.46510 2.09007
2470.41666 2.09075
2468.36822 2.08855
2466.31978 2.08592
2464.27134 2.08476
2462.22291 2.08441
2460.17447 2.08446
2458.12603 2.08263
2456.07759 2.08008
2454.02915 2.08093
2451.98071 2.08306
2449.93228 2.08170
2447.88384 2.07735
2445.83540 2.07462
2443.78696 2.07581
2441.73852 2.07799
2439.69008 2.07783
2437.64165 2.07631
2435.59321 2.07680
2433.54477 2.07841
2431.49633 2.07897
2429.44789 2.07961
2427.39945 2.07936
2425.35102 2.07798
2423.30258 2.07709
2421.25414 2.07624
2419.20570 2.07563
2417.15726 2.07561
2415.10882 2.07531
2413.06039 2.07492
2411.01195 2.07506
2408.96351 2.07486
2406.91507 2.07422
2404.86663 2.07450
2402.81819 2.07541
2400.76976 2.07580
2398.72132 2.07616
2396.67288 2.07712
2394.62444 2.07657
2392.57600 2.07374
2390.52756 2.07152
2388.47913 2.07198
2386.43069 2.07509
2384.38225 2.07923
2382.33381 2.08221
2380.28537 2.08377
2378.23693 2.08462
2376.18850 2.08546
2374.14006 2.08971
2372.09162 2.09704
2370.04318 2.10275
2367.99474 2.10891
2365.94630 2.11471
2363.89787 2.11663
2361.84943 2.11488
2359.80099 2.11486
2357.75255 2.11579
2355.70411 2.10211
2353.65567 2.08421
2351.60723 2.08175
2349.55880 2.08839
2347.51036 2.09674
2345.46192 2.10906
2343.41348 2.11876
2341.36504 2.11359
2339.31660 2.10024
2337.26817 2.09275
2335.21973 2.09320
2333.17129 2.09498
2331.12285 2.09996
2329.07441 2.10636
2327.02597 2.10623
2324.97754 2.10365
2322.92910 2.10633
2320.88066 2.10981
2318.83222 2.10682
2316.78378 2.10073
2314.73534 2.09645
2312.68691 2.09444
2310.63847 2.09342
2308.59003 2.09298
2306.54159 2.09360
2304.49315 2.09372
2302.44471 2.09258
2300.39628 2.09281
2298.34784 2.09519
2296.29940 2.09740
2294.25096 2.09688
2292.20252 2.09367
2290.15408 2.09064
2288.10565 2.08926
2286.05721 2.08915
2284.00877 2.09069
2281.96033 2.09354
2279.91189 2.09496
2277.86345 2.09505
2275.81502 2.09685
2273.76658 2.09845
2271.71814 2.09606
2269.66970 2.09222
2267.62126 2.09206
2265.57282 2.09498
2263.52439 2.09802
2261.47595 2.10147
2259.42751 2.10476
2257.37907 2.10495
2255.33063 2.10206
2253.28219 2.09992
2251.23376 2.10016
2249.18532 2.10025
2247.13688 2.09851
2245.08844 2.09681
2243.04000 2.09727
2240.99156 2.09880
2238.94313 2.09949
2236.89469 2.10009
2234.84625 2.10083
2232.79781 2.10110
2230.74937 2.10146
2228.70093 2.10079
2226.65250 2.09841
2224.60406 2.09692
2222.55562 2.09713
2220.50718 2.09810
2218.45874 2.10073
2216.41030 2.10407
2214.36186 2.10571
2212.31343 2.10613
2210.26499 2.10700
2208.21655 2.10790
2206.16811 2.10779
2204.11967 2.10782
2202.07123 2.10820
2200.02280 2.10768
2197.97436 2.10811
2195.92592 2.11017
2193.87748 2.11069
2191.82904 2.10911
2189.78060 2.10768
2187.73217 2.10702
2185.68373 2.10680
2183.63529 2.10790
2181.58685 2.11012
2179.53841 2.11212
2177.48997 2.11377
2175.44154 2.11446
2173.39310 2.11328
2171.34466 2.11114
2169.29622 2.10991
2167.24778 2.10929
2165.19934 2.10818
2163.15091 2.10807
2161.10247 2.10941
2159.05403 2.10905
2157.00559 2.10728
2154.95715 2.10837
2152.90871 2.11020
2150.86028 2.10903
2148.81184 2.10822
2146.76340 2.10834
2144.71496 2.10726
2142.66652 2.10671
2140.61808 2.10663
2138.56965 2.10575
2136.52121 2.10459
2134.47277 2.10358
2132.42433 2.10272
2130.37589 2.10273
2128.32745 2.10373
2126.27902 2.10405
2124.23058 2.10300
2122.18214 2.10210
2120.13370 2.10262
2118.08526 2.10405
2116.03682 2.10572
2113.98839 2.10689
2111.93995 2.10737
2109.89151 2.10771
2107.84307 2.10748
2105.79463 2.10559
2103.74619 2.10322
2101.69776 2.10207
2099.64932 2.10177
2097.60088 2.10219
2095.55244 2.10305
2093.50400 2.10438
2091.45556 2.10663
2089.40713 2.10980
2087.35869 2.11161
2085.31025 2.11006
2083.26181 2.10793
2081.21337 2.10826
2079.16493 2.11078
2077.11649 2.11301
2075.06806 2.11424
2073.01962 2.11555
2070.97118 2.11768
2068.92274 2.11996
2066.87430 2.11992
2064.82586 2.11941
2062.77743 2.12172
2060.72899 2.12348
2058.68055 2.12356
2056.63211 2.12473
2054.58367 2.12632
2052.53523 2.12793
2050.48680 2.12834
2048.43836 2.12624
2046.38992 2.12604
2044.34148 2.12992
2042.29304 2.13342
2040.24460 2.13389
2038.19617 2.13300
2036.14773 2.13187
2034.09929 2.13078
2032.05085 2.13061
2030.00241 2.13201
2027.95397 2.13512
2025.90554 2.13774
2023.85710 2.13732
2021.80866 2.13519
2019.76022 2.13302
2017.71178 2.13226
2015.66334 2.13366
2013.61491 2.13467
2011.56647 2.13485
2009.51803 2.13666
2007.46959 2.13983
2005.42115 2.14169
2003.37271 2.14191
2001.32428 2.14187
1999.27584 2.14267
1997.22740 2.14446
1995.17896 2.14621
1993.13052 2.14776
1991.08208 2.14968
1989.03365 2.15135
1986.98521 2.15273
1984.93677 2.15439
1982.88833 2.15554
1980.83989 2.15541
1978.79145 2.15471
1976.74302 2.15541
1974.69458 2.15720
1972.64614 2.15819
1970.59770 2.15883
1968.54926 2.16026
1966.50082 2.16341
1964.45239 2.16754
1962.40395 2.16903
1960.35551 2.16690
1958.30707 2.16527
1956.25863 2.16752
1954.21019 2.17307
1952.16176 2.17814
1950.11332 2.18048
1948.06488 2.18141
1946.01644 2.18110
1943.96800 2.18053
1941.91956 2.18107
1939.87112 2.18097
1937.82269 2.18086
1935.77425 2.18257
1933.72581 2.18577
1931.67737 2.18996
1929.62893 2.19357
1927.58049 2.19503
1925.53206 2.19505
1923.48362 2.19427
1921.43518 2.19308
1919.38674 2.19363
1917.33830 2.19653
1915.28986 2.19869
1913.24143 2.19956
1911.19299 2.19996
1909.14455 2.19966
1907.09611 2.19989
1905.04767 2.20059
1902.99923 2.20079
1900.95080 2.20183
1898.90236 2.20476
1896.85392 2.20776
1894.80548 2.21099
1892.75704 2.21553
1890.70860 2.21697
1888.66017 2.21427
1886.61173 2.21357
1884.56329 2.21419
1882.51485 2.21380
1880.46641 2.21510
1878.41797 2.21909
1876.36954 2.22335
1874.32110 2.22618
1872.27266 2.22924
1870.22422 2.23266
1868.17578 2.23322
1866.12734 2.22996
1864.07891 2.22720
1862.03047 2.22688
1859.98203 2.22580
1857.93359 2.22302
1855.88515 2.22057
1853.83671 2.21976
1851.78828 2.22214
1849.73984 2.22564
1847.69140 2.22672
1845.64296 2.22667
1843.59452 2.22646
1841.54608 2.22562
1839.49765 2.22695
1837.44921 2.22937
1835.40077 2.22914
1833.35233 2.22802
1831.30389 2.22964
1829.25545 2.23221
1827.20702 2.23412
1825.15858 2.23654
1823.11014 2.23837
1821.06170 2.24009
1819.01326 2.24099
1816.96482 2.24074
1814.91639 2.24114
1812.86795 2.24139
1810.81951 2.24145
1808.77107 2.24227
1806.72263 2.24416
1804.67419 2.24837
1802.62575 2.25132
1800.57732 2.24945
1798.52888 2.24894
1796.48044 2.25358
1794.43200 2.25908
1792.38356 2.26227
1790.33512 2.26305
1788.28669 2.26149
1786.23825 2.26003
1784.18981 2.26105
1782.14137 2.26327
1780.09293 2.26530
1778.04449 2.26707
1775.99606 2.26845
1773.94762 2.27132
1771.89918 2.27648
1769.85074 2.27832
1767.80230 2.27662
1765.75386 2.27457
1763.70543 2.27510
1761.65699 2.27817
1759.60855 2.28119
1757.56011 2.28427
1755.51167 2.28697
1753.46323 2.28875
1751.41480 2.29175
1749.36636 2.29347
1747.31792 2.28980
1745.26948 2.28907
1743.22104 2.29338
1741.17260 2.29925
1739.12417 2.30244
1737.07573 2.29939
1735.02729 2.29694
1732.97885 2.30437
1730.93041 2.31119
1728.88197 2.31336
1726.83354 2.31773
1724.78510 2.32390
1722.73666 2.32651
1720.68822 2.32590
1718.63978 2.32838
1716.59134 2.33763
1714.54291 2.34428
1712.49447 2.34566
1710.44603 2.34537
1708.39759 2.34698
1706.34915 2.35235
1704.30071 2.35534
1702.25228 2.35308
1700.20384 2.35706
1698.15540 2.37185
1696.10696 2.38161
1694.05852 2.38013
1692.01008 2.37707
1689.96165 2.37860
1687.91321 2.38414
1685.86477 2.39693
1683.81633 2.41526
1681.76789 2.41567
1679.71945 2.40990
1677.67102 2.40862
1675.62258 2.41241
1673.57414 2.41859
1671.52570 2.42301
1669.47726 2.42504
1667.42882 2.42921
1665.38038 2.43482
1663.33195 2.43856
1661.28351 2.44063
1659.23507 2.44820
1657.18663 2.45894
1655.13819 2.46968
1653.08975 2.48590
1651.04132 2.49423
1648.99288 2.49920
1646.94444 2.50818
1644.89600 2.51095
1642.84756 2.51199
1640.79912 2.51693
1638.75069 2.52428
1636.70225 2.53418
1634.65381 2.54174
1632.60537 2.54999
1630.55693 2.55901
1628.50849 2.56836
1626.46006 2.58195
1624.41162 2.59847
1622.36318 2.61076
1620.31474 2.61515
1618.26630 2.62704
1616.21786 2.64476
1614.16943 2.64749
1612.12099 2.65133
1610.07255 2.66433
1608.02411 2.67087
1605.97567 2.67183
1603.92723 2.67819
1601.87880 2.68172
1599.83036 2.67167
1597.78192 2.65844
1595.73348 2.64531
1593.68504 2.61617
1591.63660 2.57157
1589.58817 2.51328
1587.53973 2.43504
1585.49129 2.32599
1583.44285 2.18865
1581.39441 2.04313
1579.34597 1.91334
1577.29754 1.76878
1575.24910 1.61928
1573.20066 1.54889
1571.15222 1.51474
1569.10378 1.48172
1567.05534 1.45982
1565.00691 1.45050
1562.95847 1.44750
1560.91003 1.45168
1558.86159 1.47226
1556.81315 1.49838
1554.76471 1.52953
1552.71628 1.58133
1550.66784 1.65834
1548.61940 1.75054
1546.57096 1.82830
1544.52252 1.90029
1542.47408 1.98153
1540.42565 2.07999
1538.37721 2.15635
1536.32877 2.18534
1534.28033 2.22386
1532.23189 2.28332
1530.18345 2.32534
1528.13501 2.36583
1526.08658 2.41722
1524.03814 2.46619
1521.98970 2.53107
1519.94126 2.61132
1517.89282 2.66837
1515.84438 2.71323
1513.79595 2.75293
1511.74751 2.78869
1509.69907 2.84269
1507.65063 2.92117
1505.60219 2.99969
1503.55375 2.99932
1501.50532 3.00627
1499.45688 3.00915
1497.40844 2.96217
1495.36000 2.83939
1493.31156 2.72445
1491.26312 2.58795
1489.21469 2.36558
1487.16625 2.13529
1485.11781 1.94558
1483.06937 1.76904
1481.02093 1.60504
1478.97249 1.48788
1476.92406 1.41097
1474.87562 1.34713
1472.82718 1.26938
1470.77874 1.20329
1468.73030 1.17412
1466.68186 1.16483
1464.63343 1.17428
1462.58499 1.19751
1460.53655 1.22269
1458.48811 1.25142
1456.43967 1.27450
1454.39123 1.27609
1452.34280 1.27447
1450.29436 1.27351
1448.24592 1.26926
1446.19748 1.25584
1444.14904 1.23121
1442.10060 1.19534
1440.05217 1.15791
1438.00373 1.12476
1435.95529 1.09342
1433.90685 1.07443
1431.85841 1.06491
1429.80997 1.05741
1427.76154 1.05186
1425.71310 1.04996
1423.66466 1.05046
1421.61622 1.05315
1419.56778 1.06187
1417.51934 1.07806
1415.47091 1.09776
1413.42247 1.12547
1411.37403 1.16514
1409.32559 1.21226
1407.27715 1.26074
1405.22871 1.31164
1403.18028 1.35709
1401.13184 1.39167
1399.08340 1.42488
1397.03496 1.45599
1394.98652 1.48184
1392.93808 1.50289
1390.88965 1.51964
1388.84121 1.53557
1386.79277 1.54792
1384.74433 1.55332
1382.69589 1.55927
1380.64745 1.56975
1378.59901 1.58332
1376.55058 1.59768
1374.50214 1.61275
1372.45370 1.62508
1370.40526 1.63462
1368.35682 1.64552
1366.30838 1.65665
1364.25995 1.66779
1362.21151 1.67965
1360.16307 1.68970
1358.11463 1.69765
1356.06619 1.70569
1354.01775 1.71378
1351.96932 1.72213
1349.92088 1.73043
1347.87244 1.73791
1345.82400 1.74517
1343.77556 1.75278
1341.72712 1.76122
1339.67869 1.76963
1337.63025 1.77607
1335.58181 1.78083
1333.53337 1.78535
1331.48493 1.78989
1329.43649 1.79506
1327.38806 1.79988
1325.33962 1.80486
1323.29118 1.81100
1321.24274 1.81730
1319.19430 1.82233
1317.14586 1.82593
1315.09743 1.82997
1313.04899 1.83472
1311.00055 1.83938
1308.95211 1.84306
1306.90367 1.84645
1304.85523 1.85022
1302.80680 1.85426
1300.75836 1.85809
1298.70992 1.86165
1296.66148 1.86505
1294.61304 1.86824
1292.56460 1.87170
1290.51617 1.87552
1288.46773 1.87972
1286.41929 1.88383
1284.37085 1.88774
1282.32241 1.89154
1280.27397 1.89552
1278.22554 1.89832
1276.17710 1.90039
1274.12866 1.90411
1272.08022 1.90871
1270.03178 1.91231
1267.98334 1.91450
1265.93491 1.91631
1263.88647 1.91868
1261.83803 1.92177
1259.78959 1.92436
1257.74115 1.92701
1255.69271 1.93033
1253.64428 1.93322
1251.59584 1.93559
1249.54740 1.93804
1247.49896 1.94107
1245.45052 1.94460
1243.40208 1.94695
1241.35364 1.94725
1239.30521 1.94823
1237.25677 1.95119
1235.20833 1.95444
1233.15989 1.95664
1231.11145 1.95878
1229.06301 1.96145
1227.01458 1.96340
1224.96614 1.96489
1222.91770 1.96656
1220.86926 1.96795
1218.82082 1.96955
1216.77238 1.97234
1214.72395 1.97589
1212.67551 1.97947
1210.62707 1.98248
1208.57863 1.98419
1206.53019 1.98409
1204.48175 1.98377
1202.43332 1.98544
1200.38488 1.98920
1198.33644 1.99297
1196.28800 1.99458
1194.23956 1.99526
1192.19112 1.99754
1190.14269 2.00129
1188.09425 2.00439
1186.04581 2.00549
1183.99737 2.00564
1181.94893 2.00679
1179.90049 2.00909
1177.85206 2.01106
1175.80362 2.01270
1173.75518 2.01511
1171.70674 2.01722
1169.65830 2.01810
1167.60986 2.01977
1165.56143 2.02370
1163.51299 2.02759
1161.46455 2.02955
1159.41611 2.03172
1157.36767 2.03392
1155.31923 2.03459
1153.27080 2.03571
1151.22236 2.03808
1149.17392 2.04048
1147.12548 2.04306
1145.07704 2.04673
1143.02860 2.05092
1140.98017 2.05336
1138.93173 2.05373
1136.88329 2.05426
1134.83485 2.05602
1132.78641 2.05790
1130.73797 2.05882
1128.68954 2.05972
1126.64110 2.06268
1124.59266 2.06720
1122.54422 2.07111
1120.49578 2.07433
1118.44734 2.07762
1116.39891 2.08073
1114.35047 2.08334
1112.30203 2.08672
1110.25359 2.09200
1108.20515 2.09716
1106.15671 2.10022
1104.10827 2.10308
1102.05984 2.10700
1100.01140 2.11009
1097.96296 2.11045
1095.91452 2.10706
1093.86608 2.10121
1091.81764 2.09460
1089.76921 2.08981
1087.72077 2.09034
1085.67233 2.09417
1083.62389 2.09752
1081.57545 2.10268
1079.52701 2.11112
1077.47858 2.11824
1075.43014 2.12112
1073.38170 2.12222
1071.33326 2.12457
1069.28482 2.12806
1067.23638 2.13171
1065.18795 2.13519
1063.13951 2.13899
1061.09107 2.14460
1059.04263 2.15055
1056.99419 2.15355
1054.94575 2.15635
1052.89732 2.16122
1050.84888 2.16414
1048.80044 2.16616
1046.75200 2.17210
1044.70356 2.18176
1042.65512 2.19080
1040.60669 2.19572
1038.55825 2.19809
1036.50981 2.20241
1034.46137 2.20996
1032.41293 2.21735
1030.36449 2.22223
1028.31606 2.22528
1026.26762 2.22985
1024.21918 2.23986
1022.17074 2.25151
1020.12230 2.25790
1018.07386 2.26380
1016.02543 2.27440
1013.97699 2.28461
1011.92855 2.29330
1009.88011 2.30395
1007.83167 2.31395
1005.78323 2.32023
1003.73480 2.32537
1001.68636 2.33197
999.63792 2.34036
997.58948 2.35057
995.54104 2.35933
993.49260 2.36107
991.44417 2.35596
989.39573 2.34588
987.34729 2.32698
985.29885 2.29173
983.25041 2.23517
981.20197 2.15912
979.15354 2.07214
977.10510 1.98732
975.05666 1.91413
973.00822 1.85580
970.95978 1.81046
968.91134 1.77211
966.86290 1.73671
964.81447 1.70307
962.76603 1.66912
960.71759 1.63493
958.66915 1.60380
956.62071 1.57934
954.57227 1.56397
952.52384 1.55966
950.47540 1.56863
948.42696 1.59137
946.37852 1.62577
944.33008 1.66759
942.28164 1.71034
940.23321 1.74853
938.18477 1.78040
936.13633 1.80732
934.08789 1.83175
932.03945 1.85483
929.99101 1.87817
927.94258 1.90265
925.89414 1.92459
923.84570 1.94171
921.79726 1.95777
919.74882 1.97446
917.70038 1.98958
915.65195 2.00401
913.60351 2.01960
911.55507 2.03714
909.50663 2.05550
907.45819 2.07077
905.40975 2.08343
903.36132 2.09755
901.31288 2.11308
899.26444 2.12809
897.21600 2.14366
895.16756 2.15989
893.11912 2.17493
891.07069 2.18958
889.02225 2.20722
886.97381 2.22599
884.92537 2.24098
882.87693 2.25879
880.82849 2.28428
878.78006 2.30755
876.73162 2.32321
874.68318 2.33688
872.63474 2.34881
870.58630 2.35103
868.53786 2.32692
866.48943 2.25966
864.44099 2.15655
862.39255 2.03600
860.34411 1.91467
858.29567 1.80773
856.24723 1.72364
854.19880 1.66150
852.15036 1.61720
850.10192 1.58766
848.05348 1.56595
846.00504 1.54328
843.95660 1.51621
841.90817 1.49045
839.85973 1.47722
837.81129 1.48220
835.76285 1.50301
833.71441 1.53344
831.66597 1.56726
829.61753 1.60271
827.56910 1.64318
825.52066 1.68578
823.47222 1.71491
821.42378 1.72118
819.37534 1.70818
817.32690 1.68600
815.27847 1.67191
813.23003 1.67752
811.18159 1.69951
809.13315 1.72763
807.08471 1.75652
805.03627 1.78443
802.98784 1.80710
800.93940 1.82066
798.89096 1.82912
796.84252 1.84024
794.79408 1.85393
792.74564 1.86700
790.69721 1.88011
788.64877 1.89464
786.60033 1.90774
784.55189 1.91712
782.50345 1.92744
780.45501 1.94113
778.40658 1.95567
776.35814 1.96337
774.30970 1.95522
772.26126 1.93370
770.21282 1.90890
768.16438 1.89274
766.11595 1.89359
764.06751 1.90687
762.01907 1.92101
759.97063 1.93106
757.92219 1.93806
755.87375 1.94483
753.82532 1.95359
751.77688 1.96295
749.72844 1.97129
747.68000 1.97679
745.63156 1.97697
743.58312 1.97574
741.53469 1.97548
739.48625 1.97227
737.43781 1.96777
735.38937 1.96724
733.34093 1.97054
731.29249 1.97176
729.24406 1.97319
727.19562 1.98448
725.14718 2.00044
723.09874 2.01231
721.05030 2.02323
719.00186 2.02613
716.95343 2.01782
714.90499 2.01321
712.85655 2.01522
710.80811 2.02169
708.75967 2.03375
706.71123 2.04494
704.66280 2.04964
702.61436 2.04966
700.56592 2.04886
698.51748 2.05182
696.46904 2.05207
694.42060 2.04048
692.37216 2.03711
690.32373 2.05754
688.27529 2.08344
686.22685 2.09140
684.17841 2.08192
682.12997 2.06828
680.08153 2.05988
678.03310 2.06292
675.98466 2.07058
673.93622 2.07521
671.88778 2.08567
669.83934 2.11023
667.79090 2.13439
665.74247 2.12667
663.69403 2.10595
661.64559 2.09333
659.59715 2.10934
657.54871 2.14143
655.50027 2.14824
653.45184 2.12967
651.40340 2.10604
649.35496 2.08894
647.30652 2.10494
645.25808 2.13054
643.20964 2.12191
641.16121 2.10429
639.11277 2.08505
637.06433 2.07471
635.01589 2.10122
632.96745 2.12485
630.91901 2.11828
628.87058 2.13617
626.82214 2.18138
624.77370 2.19063
622.72526 2.18217
620.67682 2.20507
618.62838 2.21255
616.57995 2.17673
614.53151 2.18360
612.48307 2.25507
610.43463 2.26888
608.38619 2.18178
606.33775 2.10120
604.28932 2.07184
602.24088 2.10450
600.19244 2.20895
598.14400 2.31308
