3996.50324 1.87463
3994.45480 1.87466
3992.40636 1.87803
3990.35792 1.88273
3988.30948 1.88537
3986.26104 1.88664
3984.21261 1.88928
3982.16417 1.89489
3980.11573 1.90208
3978.06729 1.90815
3976.01885 1.91281
3973.97041 1.91804
3971.92198 1.92090
3969.87354 1.91829
3967.82510 1.91621
3965.77666 1.91788
3963.72822 1.91957
3961.67978 1.91735
3959.63135 1.91052
3957.58291 1.90312
3955.53447 1.89816
3953.48603 1.89554
3951.43759 1.89459
3949.38915 1.89446
3947.34072 1.89387
3945.29228 1.89206
3943.24384 1.89138
3941.19540 1.89356
3939.14696 1.89505
3937.09852 1.89475
3935.05009 1.89473
3933.00165 1.89798
3930.95321 1.90563
3928.90477 1.91162
3926.85633 1.91515
3924.80789 1.92144
3922.75946 1.92806
3920.71102 1.92976
3918.66258 1.92717
3916.61414 1.92506
3914.56570 1.92490
3912.51726 1.92208
3910.46883 1.91770
3908.42039 1.91434
3906.37195 1.91263
3904.32351 1.91633
3902.27507 1.92321
3900.22663 1.92592
3898.17820 1.92601
3896.12976 1.92543
3894.08132 1.92498
3892.03288 1.92731
3889.98444 1.93234
3887.93600 1.93534
3885.88756 1.93950
3883.83913 1.94557
3881.79069 1.94584
3879.74225 1.94356
3877.69381 1.94341
3875.64537 1.94342
3873.59693 1.94436
3871.54850 1.94506
3869.50006 1.94506
3867.45162 1.94526
3865.40318 1.94288
3863.35474 1.93826
3861.30630 1.93274
3859.25787 1.92624
3857.20943 1.92009
3855.16099 1.91770
3853.11255 1.92913
3851.06411 1.93892
3849.01567 1.93635
3846.96724 1.93174
3844.91880 1.93039
3842.87036 1.93398
3840.82192 1.93548
3838.77348 1.93057
3836.72504 1.92770
3834.67661 1.92957
3832.62817 1.93320
3830.57973 1.93535
3828.53129 1.93376
3826.48285 1.93133
3824.43441 1.93026
3822.38598 1.92993
3820.33754 1.92870
3818.28910 1.92438
3816.24066 1.91814
3814.19222 1.91128
3812.14378 1.90452
3810.09535 1.89857
3808.04691 1.89582
3805.99847 1.89721
3803.95003 1.89556
3801.90159 1.89428
3799.85315 1.90011
3797.80472 1.90174
3795.75628 1.89922
3793.70784 1.89678
3791.65940 1.89493
3789.61096 1.89255
3787.56252 1.88847
3785.51409 1.88719
3783.46565 1.88904
3781.41721 1.88709
3779.36877 1.88439
3777.32033 1.88495
3775.27189 1.88296
3773.22346 1.87958
3771.17502 1.88114
3769.12658 1.88768
3767.07814 1.89107
3765.02970 1.89153
3762.98126 1.89075
3760.93283 1.88741
3758.88439 1.88628
3756.83595 1.88776
3754.78751 1.88692
3752.73907 1.88950
3750.69063 1.90477
3748.64219 1.91613
3746.59376 1.91574
3744.54532 1.91822
3742.49688 1.92281
3740.44844 1.92006
3738.40000 1.91348
3736.35156 1.90974
3734.30313 1.91491
3732.25469 1.92027
3730.20625 1.91990
3728.15781 1.91878
3726.10937 1.92046
3724.06093 1.92226
3722.01250 1.92083
3719.96406 1.92107
3717.91562 1.92383
3715.86718 1.92450
3713.81874 1.92384
3711.77030 1.92932
3709.72187 1.93797
3707.67343 1.93527
3705.62499 1.92679
3703.57655 1.92048
3701.52811 1.91788
3699.47967 1.91468
3697.43124 1.91086
3695.38280 1.90911
3693.33436 1.90931
3691.28592 1.91394
3689.23748 1.92685
3687.18904 1.93474
3685.14061 1.93295
3683.09217 1.93117
3681.04373 1.93513
3678.99529 1.94440
3676.94685 1.95661
3674.89841 1.97250
3672.84998 1.97508
3670.80154 1.96559
3668.75310 1.96119
3666.70466 1.96225
3664.65622 1.96256
3662.60778 1.96552
3660.55935 1.97114
3658.51091 1.97536
3656.46247 1.97914
3654.41403 1.98144
3652.36559 1.97723
3650.31715 1.97182
3648.26872 1.97560
3646.22028 1.97602
3644.17184 1.97307
3642.12340 1.97366
3640.07496 1.97627
3638.02652 1.97749
3635.97809 1.97852
3633.92965 1.98130
3631.88121 1.98373
3629.83277 1.98555
3627.78433 1.99167
3625.73589 1.99456
3623.68746 1.99236
3621.63902 1.99148
3619.59058 1.99527
3617.54214 1.99771
3615.49370 1.99733
3613.44526 1.99953
3611.39682 2.00127
3609.34839 2.00078
3607.29995 2.00296
3605.25151 2.00617
3603.20307 2.00834
3601.15463 2.01281
3599.10619 2.01833
3597.05776 2.02096
3595.00932 2.02164
3592.96088 2.02168
3590.91244 2.02328
3588.86400 2.02715
3586.81556 2.02979
3584.76713 2.02891
3582.71869 2.02552
3580.67025 2.02249
3578.62181 2.02404
3576.57337 2.02808
3574.52493 2.03179
3572.47650 2.03466
3570.42806 2.03678
3568.37962 2.04063
3566.33118 2.04272
3564.28274 2.03958
3562.23430 2.03531
3560.18587 2.03137
3558.13743 2.03188
3556.08899 2.03599
3554.04055 2.03827
3551.99211 2.03725
3549.94367 2.03485
3547.89524 2.03519
3545.84680 2.04010
3543.79836 2.04368
3541.74992 2.04243
3539.70148 2.04059
3537.65304 2.03983
3535.60461 2.03821
3533.55617 2.03855
3531.50773 2.04234
3529.45929 2.04601
3527.41085 2.04752
3525.36241 2.04819
3523.31398 2.05019
3521.26554 2.05118
3519.21710 2.05024
3517.16866 2.04928
3515.12022 2.04805
3513.07178 2.04814
3511.02335 2.05088
3508.97491 2.05406
3506.92647 2.05472
3504.87803 2.05399
3502.82959 2.05400
3500.78115 2.05368
3498.73272 2.05355
3496.68428 2.05476
3494.63584 2.05703
3492.58740 2.06112
3490.53896 2.06566
3488.49052 2.06557
3486.44209 2.06005
3484.39365 2.05520
3482.34521 2.05556
3480.29677 2.06066
3478.24833 2.06539
3476.19989 2.06643
3474.15146 2.06560
3472.10302 2.06508
3470.05458 2.06751
3468.00614 2.07394
3465.95770 2.07817
3463.90926 2.07825
3461.86082 2.07995
3459.81239 2.08399
3457.76395 2.08689
3455.71551 2.08756
3453.66707 2.08974
3451.61863 2.09807
3449.57019 2.10927
3447.52176 2.11877
3445.47332 2.12726
3443.42488 2.12873
3441.37644 2.10701
3439.32800 2.04464
3437.27956 1.94915
3435.23113 1.86153
3433.18269 1.81484
3431.13425 1.81040
3429.08581 1.83093
3427.03737 1.85973
3424.98893 1.88775
3422.94050 1.91109
3420.89206 1.92824
3418.84362 1.94196
3416.79518 1.95604
3414.74674 1.96665
3412.69830 1.97126
3410.64987 1.97427
3408.60143 1.97812
3406.55299 1.98076
3404.50455 1.98099
3402.45611 1.98154
3400.40767 1.98528
3398.35924 1.98992
3396.31080 1.99122
3394.26236 1.99090
3392.21392 1.99236
3390.16548 1.99481
3388.11704 1.99668
3386.06861 1.99741
3384.02017 1.99597
3381.97173 1.99383
3379.92329 1.99463
3377.87485 1.99779
3375.82641 2.00089
3373.77798 2.00304
3371.72954 2.00384
3369.68110 2.00457
3367.63266 2.00607
3365.58422 2.00759
3363.53578 2.00746
3361.48735 2.00582
3359.43891 2.00462
3357.39047 2.00295
3355.34203 2.00197
3353.29359 2.00369
3351.24515 2.00471
3349.19672 2.00397
3347.14828 2.00364
3345.09984 2.00431
3343.05140 2.00527
3341.00296 2.00400
3338.95452 2.00158
3336.90609 2.00223
3334.85765 2.00470
3332.80921 2.00586
3330.76077 2.00690
3328.71233 2.00764
3326.66389 2.00632
3324.61545 2.00534
3322.56702 2.00591
3320.51858 2.00626
3318.47014 2.00673
3316.42170 2.00772
3314.37326 2.00782
3312.32482 2.00707
3310.27639 2.00695
3308.22795 2.00765
3306.17951 2.00884
3304.13107 2.00979
3302.08263 2.00987
3300.03419 2.01024
3297.98576 2.01168
3295.93732 2.01119
3293.88888 2.00871
3291.84044 2.00986
3289.79200 2.01420
3287.74356 2.01720
3285.69513 2.01785
3283.64669 2.01775
3281.59825 2.01785
3279.54981 2.01677
3277.50137 2.01498
3275.45293 2.01256
3273.40450 2.00989
3271.35606 2.00960
3269.30762 2.01140
3267.25918 2.01234
3265.21074 2.01273
3263.16230 2.01414
3261.11387 2.01311
3259.06543 2.00916
3257.01699 2.00632
3254.96855 2.00402
3252.92011 2.00241
3250.87167 2.00374
3248.82324 2.00484
3246.77480 2.00295
3244.72636 2.00135
3242.67792 2.00176
3240.62948 2.00231
3238.58104 2.00285
3236.53261 2.00291
3234.48417 2.00104
3232.43573 1.99935
3230.38729 1.99819
3228.33885 1.99499
3226.29041 1.99084
3224.24198 1.98921
3222.19354 1.99029
3220.14510 1.99140
3218.09666 1.99056
3216.04822 1.98832
3213.99978 1.98807
3211.95135 1.99086
3209.90291 1.99312
3207.85447 1.99199
3205.80603 1.98852
3203.75759 1.98567
3201.70915 1.98463
3199.66072 1.98401
3197.61228 1.98431
3195.56384 1.98800
3193.51540 1.99241
3191.46696 1.99242
3189.41852 1.98928
3187.37008 1.98796
3185.32165 1.98792
3183.27321 1.98656
3181.22477 1.98584
3179.17633 1.98618
3177.12789 1.98443
3175.07945 1.97958
3173.03102 1.97424
3170.98258 1.97092
3168.93414 1.96964
3166.88570 1.96897
3164.83726 1.96918
3162.78882 1.96984
3160.74039 1.96803
3158.69195 1.96425
3156.64351 1.96173
3154.59507 1.96144
3152.54663 1.96297
3150.49819 1.96406
3148.44976 1.96364
3146.40132 1.96448
3144.35288 1.96659
3142.30444 1.96736
3140.25600 1.96559
3138.20756 1.96260
3136.15913 1.96153
3134.11069 1.96219
3132.06225 1.96243
3130.01381 1.96296
3127.96537 1.96466
3125.91693 1.96492
3123.86850 1.96221
3121.82006 1.95976
3119.77162 1.96055
3117.72318 1.96284
3115.67474 1.96376
3113.62630 1.96341
3111.57787 1.96219
3109.52943 1.95963
3107.48099 1.95705
3105.43255 1.95659
3103.38411 1.95859
3101.33567 1.96072
3099.28724 1.95978
3097.23880 1.95578
3095.19036 1.95193
3093.14192 1.95045
3091.09348 1.95117
3089.04504 1.95329
3086.99661 1.95566
3084.94817 1.95696
3082.89973 1.95763
3080.85129 1.95876
3078.80285 1.96084
3076.75441 1.96347
3074.70598 1.96474
3072.65754 1.96456
3070.60910 1.96508
3068.56066 1.96675
3066.51222 1.96875
3064.46378 1.97073
3062.41535 1.97161
3060.36691 1.97143
3058.31847 1.97261
3056.27003 1.97532
3054.22159 1.97683
3052.17315 1.97718
3050.12471 1.97891
3048.07628 1.98118
3046.02784 1.98228
3043.97940 1.98506
3041.93096 1.99084
3039.88252 1.99463
3037.83408 1.99527
3035.78565 1.99707
3033.73721 2.00073
3031.68877 2.00418
3029.64033 2.00555
3027.59189 2.00606
3025.54345 2.00698
3023.49502 2.00728
3021.44658 2.00812
3019.39814 2.01047
3017.34970 2.01397
3015.30126 2.01580
3013.25282 2.01392
3011.20439 2.01198
3009.15595 2.01400
3007.10751 2.01927
3005.05907 2.02235
3003.01063 2.02067
3000.96219 2.01981
2998.91376 2.02444
2996.86532 2.02962
2994.81688 2.02922
2992.76844 2.02653
2990.72000 2.02632
2988.67156 2.02721
2986.62313 2.02712
2984.57469 2.02755
2982.52625 2.02971
2980.47781 2.03136
2978.42937 2.03039
2976.38093 2.02891
2974.33250 2.02877
2972.28406 2.02767
2970.23562 2.02607
2968.18718 2.02695
2966.13874 2.02996
2964.09030 2.03257
2962.04187 2.03255
2959.99343 2.03129
2957.94499 2.03161
2955.89655 2.03281
2953.84811 2.03355
2951.79967 2.03412
2949.75124 2.03569
2947.70280 2.03806
2945.65436 2.03826
2943.60592 2.03559
2941.55748 2.03465
2939.50904 2.03776
2937.46061 2.04047
2935.41217 2.03965
2933.36373 2.03818
2931.31529 2.03874
2929.26685 2.03999
2927.21841 2.03934
2925.16998 2.03715
2923.12154 2.03583
2921.07310 2.03479
2919.02466 2.03302
2916.97622 2.03166
2914.92778 2.03085
2912.87934 2.03140
2910.83091 2.03416
2908.78247 2.03721
2906.73403 2.03755
2904.68559 2.03475
2902.63715 2.03178
2900.58871 2.03207
2898.54028 2.03550
2896.49184 2.03739
2894.44340 2.03633
2892.39496 2.03484
2890.34652 2.03359
2888.29808 2.03259
2886.24965 2.03306
2884.20121 2.03562
2882.15277 2.03901
2880.10433 2.04070
2878.05589 2.03904
2876.00745 2.03576
2873.95902 2.03326
2871.91058 2.03331
2869.86214 2.03489
2867.81370 2.03454
2865.76526 2.03308
2863.71682 2.03264
2861.66839 2.03256
2859.61995 2.03223
2857.57151 2.03225
2855.52307 2.03258
2853.47463 2.03285
2851.42619 2.03347
2849.37776 2.03406
2847.32932 2.03354
2845.28088 2.03254
2843.23244 2.03202
2841.18400 2.03127
2839.13556 2.03078
2837.08713 2.03100
2835.03869 2.03052
2832.99025 2.03044
2830.94181 2.03133
2828.89337 2.03033
2826.84493 2.02750
2824.79650 2.02473
2822.74806 2.02162
2820.69962 2.01711
2818.65118 2.01149
2816.60274 2.00654
2814.55430 2.00292
2812.50587 1.99907
2810.45743 1.99389
2808.40899 1.98899
2806.36055 1.98554
2804.31211 1.98298
2802.26367 1.98045
2800.21524 1.97599
2798.16680 1.97026
2796.11836 1.96605
2794.06992 1.96377
2792.02148 1.96153
2789.97304 1.95844
2787.92461 1.95531
2785.87617 1.95103
2783.82773 1.94535
2781.77929 1.94056
2779.73085 1.93652
2777.68241 1.93293
2775.63397 1.93067
2773.58554 1.92852
2771.53710 1.92616
2769.48866 1.92503
2767.44022 1.92484
2765.39178 1.92488
2763.34334 1.92530
2761.29491 1.92537
2759.24647 1.92445
2757.19803 1.92376
2755.14959 1.92296
2753.10115 1.92074
2751.05271 1.91838
2749.00428 1.91672
2746.95584 1.91630
2744.90740 1.91687
2742.85896 1.91665
2740.81052 1.91591
2738.76208 1.91539
2736.71365 1.91526
2734.66521 1.91587
2732.61677 1.91590
2730.56833 1.91503
2728.51989 1.91534
2726.47145 1.91647
2724.42302 1.91637
2722.37458 1.91622
2720.32614 1.91772
2718.27770 1.91893
2716.22926 1.91808
2714.18082 1.91722
2712.13239 1.91758
2710.08395 1.91797
2708.03551 1.91891
2705.98707 1.92084
2703.93863 1.92266
2701.89019 1.92450
2699.84176 1.92632
2697.79332 1.92756
2695.74488 1.92914
2693.69644 1.93175
2691.64800 1.93500
2689.59956 1.93864
2687.55113 1.94341
2685.50269 1.94936
2683.45425 1.95465
2681.40581 1.95958
2679.35737 1.96553
2677.30893 1.97190
2675.26050 1.97834
2673.21206 1.98419
2671.16362 1.98945
2669.11518 1.99460
2667.06674 1.99819
2665.01830 2.00017
2662.96987 2.00256
2660.92143 2.00551
2658.87299 2.00840
2656.82455 2.01100
2654.77611 2.01201
2652.72767 2.01229
2650.67924 2.01423
2648.63080 2.01788
2646.58236 2.02210
2644.53392 2.02495
2642.48548 2.02536
2640.43704 2.02510
2638.38860 2.02604
2636.34017 2.02710
2634.29173 2.02686
2632.24329 2.02678
2630.19485 2.02817
2628.14641 2.02938
2626.09797 2.03000
2624.04954 2.03253
2622.00110 2.03590
2619.95266 2.03688
2617.90422 2.03598
2615.85578 2.03530
2613.80734 2.03552
2611.75891 2.03598
2609.71047 2.03630
2607.66203 2.03631
2605.61359 2.03593
2603.56515 2.03763
2601.51671 2.04139
2599.46828 2.04269
2597.41984 2.04086
2595.37140 2.03930
2593.32296 2.03999
2591.27452 2.04147
2589.22608 2.04121
2587.17765 2.04031
2585.12921 2.04164
2583.08077 2.04325
2581.03233 2.04234
2578.98389 2.04205
2576.93545 2.04413
2574.88702 2.04533
2572.83858 2.04403
2570.79014 2.04247
2568.74170 2.04182
2566.69326 2.04187
2564.64482 2.04314
2562.59639 2.04396
2560.54795 2.04356
2558.49951 2.04373
2556.45107 2.04345
2554.40263 2.04159
2552.35419 2.04116
2550.30576 2.04282
2548.25732 2.04377
2546.20888 2.04329
2544.16044 2.04192
2542.11200 2.04069
2540.06356 2.04038
2538.01513 2.04142
2535.96669 2.04319
2533.91825 2.04353
2531.86981 2.04141
2529.82137 2.03846
2527.77293 2.03817
2525.72450 2.04064
2523.67606 2.04172
2521.62762 2.04021
2519.57918 2.03905
2517.53074 2.03988
2515.48230 2.04098
2513.43387 2.04009
2511.38543 2.03844
2509.33699 2.03880
2507.28855 2.04060
2505.24011 2.04153
2503.19167 2.04103
2501.14324 2.03979
2499.09480 2.03736
2497.04636 2.03518
2494.99792 2.03503
2492.94948 2.03367
2490.90104 2.03166
2488.85260 2.03297
2486.80417 2.03606
2484.75573 2.03834
2482.70729 2.03920
2480.65885 2.03892
2478.61041 2.03820
2476.56197 2.03719
2474.51354 2.03531
2472.46510 2.03342
2470.41666 2.03409
2468.36822 2.03558
2466.31978 2.03450
2464.27134 2.03190
2462.22291 2.03028
2460.17447 2.03006
2458.12603 2.02951
2456.07759 2.02631
2454.02915 2.02042
2451.98071 2.01523
2449.93228 2.01241
2447.88384 2.01007
2445.83540 2.00672
2443.78696 2.00289
2441.73852 2.00064
2439.69008 1.99923
2437.64165 1.99614
2435.59321 1.99285
2433.54477 1.99122
2431.49633 1.98988
2429.44789 1.98735
2427.39945 1.98460
2425.35102 1.98318
2423.30258 1.98198
2421.25414 1.97925
2419.20570 1.97588
2417.15726 1.97336
2415.10882 1.97128
2413.06039 1.96835
2411.01195 1.96545
2408.96351 1.96398
2406.91507 1.96231
2404.86663 1.95975
2402.81819 1.95831
2400.76976 1.95850
2398.72132 1.95855
2396.67288 1.95703
2394.62444 1.95423
2392.57600 1.95135
2390.52756 1.94932
2388.47913 1.94843
2386.43069 1.94827
2384.38225 1.94816
2382.33381 1.94888
2380.28537 1.95129
2378.23693 1.95466
2376.18850 1.95737
2374.14006 1.95696
2372.09162 1.95504
2370.04318 1.95833
2367.99474 1.96786
2365.94630 1.97465
2363.89787 1.97280
2361.84943 1.97171
2359.80099 1.97895
2357.75255 1.98223
2355.70411 1.97335
2353.65567 1.96501
2351.60723 1.96147
2349.55880 1.95819
2347.51036 1.95721
2345.46192 1.96075
2343.41348 1.96345
2341.36504 1.96178
2339.31660 1.96243
2337.26817 1.96621
2335.21973 1.96929
2333.17129 1.97194
2331.12285 1.97234
2329.07441 1.97027
2327.02597 1.96852
2324.97754 1.96813
2322.92910 1.97128
2320.88066 1.97522
2318.83222 1.97806
2316.78378 1.98123
2314.73534 1.98156
2312.68691 1.97817
2310.63847 1.97382
2308.59003 1.97184
2306.54159 1.97279
2304.49315 1.97367
2302.44471 1.97509
2300.39628 1.97822
2298.34784 1.98195
2296.29940 1.98683
2294.25096 1.99124
2292.20252 1.99242
2290.15408 1.99269
2288.10565 1.99505
2286.05721 1.99769
2284.00877 1.99859
2281.96033 1.99851
2279.91189 1.99838
2277.86345 1.99848
2275.81502 1.99845
2273.76658 1.99876
2271.71814 2.00047
2269.66970 2.00285
2267.62126 2.00429
2265.57282 2.00547
2263.52439 2.00722
2261.47595 2.00838
2259.42751 2.00780
2257.37907 2.00536
2255.33063 2.00358
2253.28219 2.00309
2251.23376 2.00134
2249.18532 1.99939
2247.13688 1.99817
2245.08844 1.99687
2243.04000 1.99701
2240.99156 1.99845
2238.94313 1.99917
2236.89469 1.99992
2234.84625 2.00111
2232.79781 2.00208
2230.74937 2.00291
2228.70093 2.00291
2226.65250 2.00190
2224.60406 2.00104
2222.55562 2.00176
2220.50718 2.00392
2218.45874 2.00630
2216.41030 2.00817
2214.36186 2.01035
2212.31343 2.01375
2210.26499 2.01626
2208.21655 2.01646
2206.16811 2.01688
2204.11967 2.01853
2202.07123 2.01822
2200.02280 2.01613
2197.97436 2.01531
2195.92592 2.01551
2193.87748 2.01529
2191.82904 2.01374
2189.78060 2.01052
2187.73217 2.00683
2185.68373 2.00534
2183.63529 2.00610
2181.58685 2.00667
2179.53841 2.00687
2177.48997 2.00677
2175.44154 2.00630
2173.39310 2.00626
2171.34466 2.00570
2169.29622 2.00338
2167.24778 2.00024
2165.19934 1.99767
2163.15091 1.99659
2161.10247 1.99657
2159.05403 1.99679
2157.00559 1.99688
2154.95715 1.99497
2152.90871 1.99140
2150.86028 1.98878
2148.81184 1.98741
2146.76340 1.98576
2144.71496 1.98236
2142.66652 1.97821
2140.61808 1.97442
2138.56965 1.97041
2136.52121 1.96688
2134.47277 1.96396
2132.42433 1.96028
2130.37589 1.95669
2128.32745 1.95491
2126.27902 1.95428
2124.23058 1.95304
2122.18214 1.95105
2120.13370 1.95009
2118.08526 1.95044
2116.03682 1.95066
2113.98839 1.94996
2111.93995 1.94892
2109.89151 1.94824
2107.84307 1.94807
2105.79463 1.94872
2103.74619 1.94925
2101.69776 1.94896
2099.64932 1.94837
2097.60088 1.94843
2095.55244 1.94955
2093.50400 1.94941
2091.45556 1.94787
2089.40713 1.94817
2087.35869 1.95028
2085.31025 1.95175
2083.26181 1.95275
2081.21337 1.95501
2079.16493 1.95798
2077.11649 1.96042
2075.06806 1.96353
2073.01962 1.96790
2070.97118 1.97162
2068.92274 1.97380
2066.87430 1.97672
2064.82586 1.98109
2062.77743 1.98470
2060.72899 1.98739
2058.68055 1.98975
2056.63211 1.99271
2054.58367 1.99790
2052.53523 2.00350
2050.48680 2.00714
2048.43836 2.00923
2046.38992 2.01125
2044.34148 2.01350
2042.29304 2.01494
2040.24460 2.01573
2038.19617 2.01611
2036.14773 2.01542
2034.09929 2.01381
2032.05085 2.01263
2030.00241 2.01296
2027.95397 2.01343
2025.90554 2.01369
2023.85710 2.01582
2021.80866 2.01933
2019.76022 2.02214
2017.71178 2.02282
2015.66334 2.02145
2013.61491 2.02051
2011.56647 2.02144
2009.51803 2.02454
2007.46959 2.02908
2005.42115 2.03408
2003.37271 2.03834
2001.32428 2.04062
1999.27584 2.04214
1997.22740 2.04494
1995.17896 2.04968
1993.13052 2.05397
1991.08208 2.05571
1989.03365 2.05629
1986.98521 2.05681
1984.93677 2.05853
1982.88833 2.06250
1980.83989 2.06632
1978.79145 2.06854
1976.74302 2.07100
1974.69458 2.07396
1972.64614 2.07686
1970.59770 2.07967
1968.54926 2.08295
1966.50082 2.08748
1964.45239 2.09100
1962.40395 2.09263
1960.35551 2.09452
1958.30707 2.09803
1956.25863 2.10291
1954.21019 2.10684
1952.16176 2.10820
1950.11332 2.10853
1948.06488 2.10957
1946.01644 2.11078
1943.96800 2.11134
1941.91956 2.11163
1939.87112 2.11147
1937.82269 2.11137
1935.77425 2.11221
1933.72581 2.11347
1931.67737 2.11612
1929.62893 2.11933
1927.58049 2.11991
1925.53206 2.12083
1923.48362 2.12430
1921.43518 2.12703
1919.38674 2.12982
1917.33830 2.13269
1915.28986 2.13241
1913.24143 2.13080
1911.19299 2.13036
1909.14455 2.13101
1907.09611 2.13245
1905.04767 2.13364
1902.99923 2.13391
1900.95080 2.13518
1898.90236 2.13767
1896.85392 2.13960
1894.80548 2.14098
1892.75704 2.14265
1890.70860 2.14375
1888.66017 2.14406
1886.61173 2.14456
1884.56329 2.14435
1882.51485 2.14334
1880.46641 2.14289
1878.41797 2.14255
1876.36954 2.14231
1874.32110 2.14388
1872.27266 2.14573
1870.22422 2.14571
1868.17578 2.14622
1866.12734 2.14884
1864.07891 2.15076
1862.03047 2.15067
1859.98203 2.14959
1857.93359 2.14852
1855.88515 2.14740
1853.83671 2.14701
1851.78828 2.14694
1849.73984 2.14616
1847.69140 2.14560
1845.64296 2.14600
1843.59452 2.14670
1841.54608 2.14773
1839.49765 2.14970
1837.44921 2.15185
1835.40077 2.15331
1833.35233 2.15387
1831.30389 2.15244
1829.25545 2.15023
1827.20702 2.15077
1825.15858 2.15331
1823.11014 2.15507
1821.06170 2.15560
1819.01326 2.15618
1816.96482 2.15624
1814.91639 2.15650
1812.86795 2.15822
1810.81951 2.16095
1808.77107 2.16280
1806.72263 2.16211
1804.67419 2.16199
1802.62575 2.16573
1800.57732 2.17074
1798.52888 2.17294
1796.48044 2.17424
1794.43200 2.17622
1792.38356 2.17623
1790.33512 2.17510
1788.28669 2.17599
1786.23825 2.17752
1784.18981 2.17937
1782.14137 2.18206
1780.09293 2.18448
1778.04449 2.18543
1775.99606 2.18640
1773.94762 2.18899
1771.89918 2.19213
1769.85074 2.19382
1767.80230 2.19380
1765.75386 2.19492
1763.70543 2.19840
1761.65699 2.19955
1759.60855 2.19818
1757.56011 2.19878
1755.51167 2.20107
1753.46323 2.20439
1751.41480 2.20857
1749.36636 2.21272
1747.31792 2.21538
1745.26948 2.21698
1743.22104 2.21658
1741.17260 2.21402
1739.12417 2.21394
1737.07573 2.21749
1735.02729 2.22303
1732.97885 2.22851
1730.93041 2.22908
1728.88197 2.22874
1726.83354 2.23037
1724.78510 2.23296
1722.73666 2.23608
1720.68822 2.24108
1718.63978 2.24970
1716.59134 2.25706
1714.54291 2.25614
1712.49447 2.25572
1710.44603 2.25805
1708.39759 2.26133
1706.34915 2.26537
1704.30071 2.26967
1702.25228 2.27234
1700.20384 2.27653
1698.15540 2.28335
1696.10696 2.28564
1694.05852 2.28266
1692.01008 2.28169
1689.96165 2.28728
1687.91321 2.29598
1685.86477 2.30279
1683.81633 2.31015
1681.76789 2.31158
1679.71945 2.30790
1677.67102 2.30592
1675.62258 2.30959
1673.57414 2.31906
1671.52570 2.32788
1669.47726 2.33141
1667.42882 2.33128
1665.38038 2.33489
1663.33195 2.34313
1661.28351 2.35026
1659.23507 2.35462
1657.18663 2.35850
1655.13819 2.36316
1653.08975 2.37027
1651.04132 2.37399
1648.99288 2.37513
1646.94444 2.38086
1644.89600 2.39059
1642.84756 2.39609
1640.79912 2.40181
1638.75069 2.40803
1636.70225 2.41217
1634.65381 2.41603
1632.60537 2.41878
1630.55693 2.41590
1628.50849 2.41225
1626.46006 2.41478
1624.41162 2.42312
1622.36318 2.43177
1620.31474 2.43482
1618.26630 2.43763
1616.21786 2.43749
1614.16943 2.43056
1612.12099 2.42487
1610.07255 2.42161
1608.02411 2.40901
1605.97567 2.38925
1603.92723 2.37393
1601.87880 2.35834
1599.83036 2.33600
1597.78192 2.30845
1595.73348 2.27123
1593.68504 2.21996
1591.63660 2.16315
1589.58817 2.10260
1587.53973 2.03526
1585.49129 1.95676
1583.44285 1.86625
1581.39441 1.77171
1579.34597 1.68442
1577.29754 1.57631
1575.24910 1.44774
1573.20066 1.37854
1571.15222 1.33941
1569.10378 1.30087
1567.05534 1.27582
1565.00691 1.26299
1562.95847 1.25485
1560.91003 1.25100
1558.86159 1.24638
1556.81315 1.23940
1554.76471 1.23439
1552.71628 1.23067
1550.66784 1.22937
1548.61940 1.22963
1546.57096 1.23186
1544.52252 1.23766
1542.47408 1.24706
1540.42565 1.25554
1538.37721 1.25798
1536.32877 1.26018
1534.28033 1.26777
1532.23189 1.27945
1530.18345 1.28970
1528.13501 1.30338
1526.08658 1.32361
1524.03814 1.34447
1521.98970 1.36994
1519.94126 1.39755
1517.89282 1.41925
1515.84438 1.44292
1513.79595 1.46329
1511.74751 1.48214
1509.69907 1.50415
1507.65063 1.53839
1505.60219 1.57832
1503.55375 1.59524
1501.50532 1.61263
1499.45688 1.63995
1497.40844 1.68090
1495.36000 1.72335
1493.31156 1.75322
1491.26312 1.78423
1489.21469 1.82680
1487.16625 1.85075
1485.11781 1.84370
1483.06937 1.81078
1481.02093 1.74895
1478.97249 1.67320
1476.92406 1.58951
1474.87562 1.49347
1472.82718 1.37567
1470.77874 1.28606
1468.73030 1.24696
1466.68186 1.23097
1464.63343 1.23778
1462.58499 1.26445
1460.53655 1.29507
1458.48811 1.33299
1456.43967 1.37570
1454.39123 1.39098
1452.34280 1.39636
1450.29436 1.40097
1448.24592 1.39983
1446.19748 1.38267
1444.14904 1.34556
1442.10060 1.29300
1440.05217 1.24174
1438.00373 1.19933
1435.95529 1.16320
1433.90685 1.14323
1431.85841 1.13373
1429.80997 1.12685
1427.76154 1.12221
1425.71310 1.12117
1423.66466 1.12312
1421.61622 1.12692
1419.56778 1.13474
1417.51934 1.14679
1415.47091 1.15856
1413.42247 1.17510
1411.37403 1.20287
1409.32559 1.24147
1407.27715 1.28531
1405.22871 1.33325
1403.18028 1.37682
1401.13184 1.41021
1399.08340 1.44272
1397.03496 1.47356
1394.98652 1.49975
1392.93808 1.52162
1390.88965 1.53771
1388.84121 1.55189
1386.79277 1.56456
1384.74433 1.57224
1382.69589 1.57909
1380.64745 1.58846
1378.59901 1.59958
1376.55058 1.61126
1374.50214 1.62457
1372.45370 1.63687
1370.40526 1.64635
1368.35682 1.65564
1366.30838 1.66445
1364.25995 1.67337
1362.21151 1.68270
1360.16307 1.69000
1358.11463 1.69558
1356.06619 1.70182
1354.01775 1.70821
1351.96932 1.71384
1349.92088 1.71951
1347.87244 1.72585
1345.82400 1.73251
1343.77556 1.73921
1341.72712 1.74637
1339.67869 1.75350
1337.63025 1.75902
1335.58181 1.76247
1333.53337 1.76573
1331.48493 1.76973
1329.43649 1.77400
1327.38806 1.77755
1325.33962 1.78104
1323.29118 1.78536
1321.24274 1.78997
1319.19430 1.79411
1317.14586 1.79739
1315.09743 1.80056
1313.04899 1.80373
1311.00055 1.80648
1308.95211 1.80882
1306.90367 1.81166
1304.85523 1.81528
1302.80680 1.81941
1300.75836 1.82266
1298.70992 1.82525
1296.66148 1.82890
1294.61304 1.83243
1292.56460 1.83465
1290.51617 1.83644
1288.46773 1.83837
1286.41929 1.84007
1284.37085 1.84258
1282.32241 1.84590
1280.27397 1.84899
1278.22554 1.85150
1276.17710 1.85381
1274.12866 1.85658
1272.08022 1.85949
1270.03178 1.86227
1267.98334 1.86450
1265.93491 1.86562
1263.88647 1.86646
1261.83803 1.86778
1259.78959 1.86929
1257.74115 1.87228
1255.69271 1.87602
1253.64428 1.87802
1251.59584 1.87899
1249.54740 1.88110
1247.49896 1.88412
1245.45052 1.88692
1243.40208 1.88904
1241.35364 1.89029
1239.30521 1.89160
1237.25677 1.89288
1235.20833 1.89429
1233.15989 1.89613
1231.11145 1.89795
1229.06301 1.89972
1227.01458 1.90164
1224.96614 1.90374
1222.91770 1.90507
1220.86926 1.90549
1218.82082 1.90578
1216.77238 1.90699
1214.72395 1.90971
1212.67551 1.91217
1210.62707 1.91308
1208.57863 1.91381
1206.53019 1.91519
1204.48175 1.91669
1202.43332 1.91793
1200.38488 1.91894
1198.33644 1.91948
1196.28800 1.91993
1194.23956 1.92206
1192.19112 1.92590
1190.14269 1.92831
1188.09425 1.92851
1186.04581 1.92976
1183.99737 1.93229
1181.94893 1.93443
1179.90049 1.93611
1177.85206 1.93726
1175.80362 1.93837
1173.75518 1.93930
1171.70674 1.94042
1169.65830 1.94251
1167.60986 1.94436
1165.56143 1.94571
1163.51299 1.94796
1161.46455 1.95092
1159.41611 1.95280
1157.36767 1.95351
1155.31923 1.95441
1153.27080 1.95501
1151.22236 1.95482
1149.17392 1.95551
1147.12548 1.95765
1145.07704 1.95982
1143.02860 1.96187
1140.98017 1.96469
1138.93173 1.96778
1136.88329 1.96988
1134.83485 1.97125
1132.78641 1.97320
1130.73797 1.97578
1128.68954 1.97818
1126.64110 1.98070
1124.59266 1.98389
1122.54422 1.98623
1120.49578 1.98679
1118.44734 1.98904
1116.39891 1.99456
1114.35047 1.99913
1112.30203 2.00120
1110.25359 2.00332
1108.20515 2.00672
1106.15671 2.01143
1104.10827 2.01648
1102.05984 2.02046
1100.01140 2.02477
1097.96296 2.02956
1095.91452 2.02808
1093.86608 2.01544
1091.81764 1.99863
1089.76921 1.98770
1087.72077 1.98524
1085.67233 1.98912
1083.62389 1.99598
1081.57545 2.00275
1079.52701 2.00801
1077.47858 2.01232
1075.43014 2.01632
1073.38170 2.01919
1071.33326 2.02123
1069.28482 2.02454
1067.23638 2.02936
1065.18795 2.03282
1063.13951 2.03446
1061.09107 2.03703
1059.04263 2.04080
1056.99419 2.04289
1054.94575 2.04391
1052.89732 2.04719
1050.84888 2.05083
1048.80044 2.05230
1046.75200 2.05430
1044.70356 2.05955
1042.65512 2.06560
1040.60669 2.07019
1038.55825 2.07366
1036.50981 2.07645
1034.46137 2.08060
1032.41293 2.08643
1030.36449 2.09105
1028.31606 2.09350
1026.26762 2.09650
1024.21918 2.10199
1022.17074 2.10820
1020.12230 2.11313
1018.07386 2.11823
1016.02543 2.12448
1013.97699 2.13034
1011.92855 2.13589
1009.88011 2.14283
1007.83167 2.15265
1005.78323 2.16434
1003.73480 2.17427
1001.68636 2.18032
999.63792 2.18343
997.58948 2.18689
995.54104 2.19177
993.49260 2.19414
991.44417 2.19063
989.39573 2.17977
987.34729 2.15979
985.29885 2.12564
983.25041 2.07161
981.20197 2.00004
979.15354 1.92050
977.10510 1.84346
975.05666 1.77684
973.00822 1.72421
970.95978 1.68380
968.91134 1.65153
966.86290 1.62422
964.81447 1.59881
962.76603 1.57294
960.71759 1.54713
958.66915 1.52462
956.62071 1.50874
954.57227 1.50128
952.52384 1.50378
950.47540 1.51764
948.42696 1.54264
946.37852 1.57583
944.33008 1.61172
942.28164 1.64624
940.23321 1.67839
938.18477 1.70561
936.13633 1.72642
934.08789 1.74574
932.03945 1.76661
929.99101 1.78659
927.94258 1.80421
925.89414 1.81986
923.84570 1.83511
921.79726 1.85049
919.74882 1.86386
917.70038 1.87447
915.65195 1.88461
913.60351 1.89574
911.55507 1.90709
909.50663 1.91822
907.45819 1.92892
905.40975 1.93784
903.36132 1.94498
901.31288 1.95272
899.26444 1.96195
897.21600 1.97194
895.16756 1.98361
893.11912 1.99706
891.07069 2.00968
889.02225 2.01887
886.97381 2.02408
884.92537 2.02967
882.87693 2.04052
880.82849 2.05637
878.78006 2.07426
876.73162 2.09090
874.68318 2.10644
872.63474 2.12316
870.58630 2.14027
868.53786 2.15420
866.48943 2.15563
864.44099 2.13036
862.39255 2.07552
860.34411 2.00227
858.29567 1.92772
856.24723 1.86767
854.19880 1.82825
852.15036 1.80860
850.10192 1.80580
848.05348 1.81204
846.00504 1.80889
843.95660 1.78015
841.90817 1.73650
839.85973 1.70623
837.81129 1.70479
835.76285 1.72476
833.71441 1.75156
831.66597 1.77901
829.61753 1.80477
827.56910 1.82700
825.52066 1.84692
823.47222 1.85896
821.42378 1.84961
819.37534 1.81502
817.32690 1.76819
815.27847 1.73333
813.23003 1.72788
811.18159 1.74874
809.13315 1.77967
807.08471 1.80713
805.03627 1.82862
802.98784 1.84689
800.93940 1.86084
798.89096 1.86922
796.84252 1.87674
794.79408 1.88901
792.74564 1.90632
790.69721 1.92459
788.64877 1.93786
786.60033 1.94255
784.55189 1.94484
782.50345 1.95405
780.45501 1.97102
778.40658 1.99079
776.35814 2.00465
774.30970 1.99734
772.26126 1.95957
770.21282 1.91022
768.16438 1.87901
766.11595 1.87509
764.06751 1.88744
762.01907 1.90155
759.97063 1.91224
757.92219 1.92162
755.87375 1.93155
753.82532 1.94415
751.77688 1.95762
749.72844 1.96539
747.68000 1.96704
745.63156 1.96395
743.58312 1.95441
741.53469 1.94267
739.48625 1.93685
737.43781 1.93809
735.38937 1.94011
733.34093 1.93984
731.29249 1.93962
729.24406 1.94311
727.19562 1.95051
725.14718 1.95661
723.09874 1.96044
721.05030 1.96704
719.00186 1.97633
716.95343 1.98027
714.90499 1.98055
712.85655 1.98661
710.80811 1.99477
708.75967 1.99727
706.71123 1.99501
704.66280 1.99099
702.61436 1.98767
700.56592 1.98551
698.51748 1.98311
696.46904 1.98483
694.42060 1.99741
692.37216 2.01088
690.32373 2.00843
688.27529 1.99817
686.22685 1.99669
684.17841 2.00117
682.12997 2.00544
680.08153 2.01179
678.03310 2.01159
675.98466 1.99755
673.93622 1.98749
671.88778 1.99413
669.83934 2.00589
667.79090 2.00230
665.74247 1.99685
663.69403 2.00075
661.64559 2.00500
659.59715 2.02232
657.54871 2.05264
655.50027 2.05861
653.45184 2.04160
651.40340 2.03233
649.35496 2.03306
647.30652 2.04076
645.25808 2.04676
643.20964 2.02742
641.16121 1.99280
639.11277 1.98617
637.06433 2.01846
635.01589 2.05921
632.96745 2.07829
630.91901 2.06550
628.87058 2.04339
626.82214 2.04702
624.77370 2.07155
622.72526 2.08319
620.67682 2.08943
618.62838 2.13488
616.57995 2.18058
614.53151 2.13089
612.48307 2.07049
610.43463 2.07070
608.38619 2.07835
606.33775 2.04779
604.28932 2.01485
602.24088 2.00932
600.19244 2.01572
598.14400 2.04290
