3996.50324 1.73547
3994.45480 1.73401
3992.40636 1.73491
3990.35792 1.73598
3988.30948 1.73501
3986.26104 1.73398
3984.21261 1.73410
3982.16417 1.73498
3980.11573 1.73601
3978.06729 1.73694
3976.01885 1.73720
3973.97041 1.73698
3971.92198 1.73757
3969.87354 1.73792
3967.82510 1.73699
3965.77666 1.73640
3963.72822 1.73650
3961.67978 1.73650
3959.63135 1.73647
3957.58291 1.73599
3955.53447 1.73534
3953.48603 1.73536
3951.43759 1.73576
3949.38915 1.73626
3947.34072 1.73683
3945.29228 1.73693
3943.24384 1.73556
3941.19540 1.73348
3939.14696 1.73318
3937.09852 1.73419
3935.05009 1.73427
3933.00165 1.73271
3930.95321 1.73138
3928.90477 1.73201
3926.85633 1.73473
3924.80789 1.73817
3922.75946 1.73784
3920.71102 1.73583
3918.66258 1.73742
3916.61414 1.73883
3914.56570 1.73657
3912.51726 1.73514
3910.46883 1.73585
3908.42039 1.73718
3906.37195 1.73948
3904.32351 1.74275
3902.27507 1.74481
3900.22663 1.74444
3898.17820 1.74228
3896.12976 1.74051
3894.08132 1.74025
3892.03288 1.74063
3889.98444 1.74011
3887.93600 1.73990
3885.88756 1.74118
3883.83913 1.74318
3881.79069 1.74381
3879.74225 1.74157
3877.69381 1.73928
3875.64537 1.73976
3873.59693 1.74245
3871.54850 1.74519
3869.50006 1.74641
3867.45162 1.74599
3865.40318 1.74621
3863.35474 1.74774
3861.30630 1.74749
3859.25787 1.74518
3857.20943 1.74256
3855.16099 1.74080
3853.11255 1.74458
3851.06411 1.74879
3849.01567 1.74646
3846.96724 1.74328
3844.91880 1.74351
3842.87036 1.74680
3840.82192 1.75036
3838.77348 1.75250
3836.72504 1.74951
3834.67661 1.74405
3832.62817 1.74191
3830.57973 1.74415
3828.53129 1.74706
3826.48285 1.74747
3824.43441 1.74728
3822.38598 1.75053
3820.33754 1.75321
3818.28910 1.74929
3816.24066 1.74518
3814.19222 1.74242
3812.14378 1.73890
3810.09535 1.73622
3808.04691 1.73705
3805.99847 1.74033
3803.95003 1.74359
3801.90159 1.74625
3799.85315 1.74342
3797.80472 1.73823
3795.75628 1.73455
3793.70784 1.73195
3791.65940 1.73084
3789.61096 1.73213
3787.56252 1.73471
3785.51409 1.73603
3783.46565 1.73486
3781.41721 1.73340
3779.36877 1.73293
3777.32033 1.73213
3775.27189 1.73162
3773.22346 1.73330
3771.17502 1.73721
3769.12658 1.74002
3767.07814 1.73884
3765.02970 1.73542
3762.98126 1.73400
3760.93283 1.73686
3758.88439 1.74053
3756.83595 1.73966
3754.78751 1.73831
3752.73907 1.74205
3750.69063 1.74951
3748.64219 1.75136
3746.59376 1.75033
3744.54532 1.75093
3742.49688 1.75090
3740.44844 1.74881
3738.40000 1.74762
3736.35156 1.74941
3734.30313 1.75168
3732.25469 1.74942
3730.20625 1.74539
3728.15781 1.74329
3726.10937 1.74350
3724.06093 1.74323
3722.01250 1.74211
3719.96406 1.74163
3717.91562 1.74065
3715.86718 1.73974
3713.81874 1.74070
3711.77030 1.74384
3709.72187 1.74445
3707.67343 1.74142
3705.62499 1.73887
3703.57655 1.73843
3701.52811 1.73992
3699.47967 1.73996
3697.43124 1.73815
3695.38280 1.73762
3693.33436 1.73972
3691.28592 1.74561
3689.23748 1.75128
3687.18904 1.74763
3685.14061 1.74232
3683.09217 1.74040
3681.04373 1.74260
3678.99529 1.74853
3676.94685 1.75571
3674.89841 1.75813
3672.84998 1.75543
3670.80154 1.75327
3668.75310 1.74983
3666.70466 1.74690
3664.65622 1.74631
3662.60778 1.74652
3660.55935 1.74670
3658.51091 1.74781
3656.46247 1.74947
3654.41403 1.74962
3652.36559 1.75076
3650.31715 1.75737
3648.26872 1.76148
3646.22028 1.75502
3644.17184 1.75023
3642.12340 1.74852
3640.07496 1.74756
3638.02652 1.74678
3635.97809 1.74895
3633.92965 1.75430
3631.88121 1.75883
3629.83277 1.76252
3627.78433 1.76265
3625.73589 1.75975
3623.68746 1.75995
3621.63902 1.76261
3619.59058 1.76708
3617.54214 1.77057
3615.49370 1.77165
3613.44526 1.77351
3611.39682 1.77601
3609.34839 1.77859
3607.29995 1.78056
3605.25151 1.78171
3603.20307 1.78524
3601.15463 1.79189
3599.10619 1.79827
3597.05776 1.80441
3595.00932 1.81368
3592.96088 1.82362
3590.91244 1.83063
3588.86400 1.83748
3586.81556 1.84205
3584.76713 1.83941
3582.71869 1.83524
3580.67025 1.83184
3578.62181 1.82901
3576.57337 1.82789
3574.52493 1.82967
3572.47650 1.83359
3570.42806 1.83914
3568.37962 1.84815
3566.33118 1.85893
3564.28274 1.86252
3562.23430 1.85946
3560.18587 1.85383
3558.13743 1.84785
3556.08899 1.84307
3554.04055 1.84117
3551.99211 1.84121
3549.94367 1.84013
3547.89524 1.83882
3545.84680 1.83839
3543.79836 1.83731
3541.74992 1.83647
3539.70148 1.83782
3537.65304 1.84062
3535.60461 1.84240
3533.55617 1.84207
3531.50773 1.84143
3529.45929 1.84246
3527.41085 1.84525
3525.36241 1.84817
3523.31398 1.84860
3521.26554 1.84649
3519.21710 1.84477
3517.16866 1.84488
3515.12022 1.84696
3513.07178 1.84984
3511.02335 1.85205
3508.97491 1.85363
3506.92647 1.85396
3504.87803 1.85325
3502.82959 1.85389
3500.78115 1.85544
3498.73272 1.85616
3496.68428 1.85678
3494.63584 1.85760
3492.58740 1.85803
3490.53896 1.85889
3488.49052 1.86052
3486.44209 1.86210
3484.39365 1.86445
3482.34521 1.86785
3480.29677 1.86980
3478.24833 1.86877
3476.19989 1.86762
3474.15146 1.86852
3472.10302 1.86999
3470.05458 1.87224
3468.00614 1.87555
3465.95770 1.87729
3463.90926 1.87747
3461.86082 1.87862
3459.81239 1.88001
3457.76395 1.88046
3455.71551 1.88118
3453.66707 1.88197
3451.61863 1.88256
3449.57019 1.88352
3447.52176 1.88512
3445.47332 1.88775
3443.42488 1.88980
3441.37644 1.89040
3439.32800 1.89135
3437.27956 1.89325
3435.23113 1.89505
3433.18269 1.89691
3431.13425 1.90000
3429.08581 1.90436
3427.03737 1.90932
3424.98893 1.91433
3422.94050 1.91829
3420.89206 1.92066
3418.84362 1.92273
3416.79518 1.92536
3414.74674 1.92840
3412.69830 1.93035
3410.64987 1.92979
3408.60143 1.92971
3406.55299 1.93121
3404.50455 1.93118
3402.45611 1.92922
3400.40767 1.92757
3398.35924 1.92787
3396.31080 1.92966
3394.26236 1.93144
3392.21392 1.93169
3390.16548 1.93177
3388.11704 1.93326
3386.06861 1.93245
3384.02017 1.92907
3381.97173 1.92702
3379.92329 1.92591
3377.87485 1.92557
3375.82641 1.92651
3373.77798 1.92676
3371.72954 1.92714
3369.68110 1.92858
3367.63266 1.92914
3365.58422 1.92853
3363.53578 1.92707
3361.48735 1.92480
3359.43891 1.92276
3357.39047 1.92147
3355.34203 1.92037
3353.29359 1.91852
3351.24515 1.91545
3349.19672 1.91305
3347.14828 1.91275
3345.09984 1.91390
3343.05140 1.91499
3341.00296 1.91369
3338.95452 1.91146
3336.90609 1.91153
3334.85765 1.91321
3332.80921 1.91502
3330.76077 1.91731
3328.71233 1.91808
3326.66389 1.91602
3324.61545 1.91442
3322.56702 1.91454
3320.51858 1.91427
3318.47014 1.91184
3316.42170 1.90896
3314.37326 1.90863
3312.32482 1.90915
3310.27639 1.90753
3308.22795 1.90531
3306.17951 1.90457
3304.13107 1.90454
3302.08263 1.90461
3300.03419 1.90523
3297.98576 1.90574
3295.93732 1.90563
3293.88888 1.90603
3291.84044 1.90672
3289.79200 1.90593
3287.74356 1.90451
3285.69513 1.90383
3283.64669 1.90307
3281.59825 1.90246
3279.54981 1.90247
3277.50137 1.90325
3275.45293 1.90484
3273.40450 1.90542
3271.35606 1.90414
3269.30762 1.90179
3267.25918 1.89887
3265.21074 1.89635
3263.16230 1.89536
3261.11387 1.89503
3259.06543 1.89464
3257.01699 1.89426
3254.96855 1.89249
3252.92011 1.88951
3250.87167 1.88683
3248.82324 1.88455
3246.77480 1.88276
3244.72636 1.88130
3242.67792 1.87957
3240.62948 1.87742
3238.58104 1.87513
3236.53261 1.87414
3234.48417 1.87576
3232.43573 1.87842
3230.38729 1.87875
3228.33885 1.87665
3226.29041 1.87472
3224.24198 1.87347
3222.19354 1.87201
3220.14510 1.87008
3218.09666 1.86913
3216.04822 1.87044
3213.99978 1.87202
3211.95135 1.87164
3209.90291 1.86962
3207.85447 1.86609
3205.80603 1.86296
3203.75759 1.86315
3201.70915 1.86421
3199.66072 1.86334
3197.61228 1.86183
3195.56384 1.86068
3193.51540 1.86036
3191.46696 1.86136
3189.41852 1.86245
3187.37008 1.86194
3185.32165 1.85974
3183.27321 1.85755
3181.22477 1.85754
3179.17633 1.85858
3177.12789 1.85804
3175.07945 1.85642
3173.03102 1.85482
3170.98258 1.85287
3168.93414 1.85029
3166.88570 1.84826
3164.83726 1.84747
3162.78882 1.84613
3160.74039 1.84387
3158.69195 1.84266
3156.64351 1.84180
3154.59507 1.83986
3152.54663 1.83908
3150.49819 1.84013
3148.44976 1.84012
3146.40132 1.83814
3144.35288 1.83528
3142.30444 1.83309
3140.25600 1.83293
3138.20756 1.83261
3136.15913 1.83013
3134.11069 1.82795
3132.06225 1.82763
3130.01381 1.82703
3127.96537 1.82519
3125.91693 1.82375
3123.86850 1.82348
3121.82006 1.82305
3119.77162 1.82223
3117.72318 1.82226
3115.67474 1.82181
3113.62630 1.81986
3111.57787 1.81859
3109.52943 1.81848
3107.48099 1.81807
3105.43255 1.81722
3103.38411 1.81689
3101.33567 1.81751
3099.28724 1.81745
3097.23880 1.81542
3095.19036 1.81360
3093.14192 1.81316
3091.09348 1.81236
3089.04504 1.81197
3086.99661 1.81247
3084.94817 1.81134
3082.89973 1.80934
3080.85129 1.80840
3078.80285 1.80730
3076.75441 1.80577
3074.70598 1.80425
3072.65754 1.80214
3070.60910 1.79996
3068.56066 1.79940
3066.51222 1.80058
3064.46378 1.80100
3062.41535 1.79923
3060.36691 1.79704
3058.31847 1.79668
3056.27003 1.79762
3054.22159 1.79736
3052.17315 1.79632
3050.12471 1.79580
3048.07628 1.79441
3046.02784 1.79166
3043.97940 1.78933
3041.93096 1.78845
3039.88252 1.78833
3037.83408 1.78809
3035.78565 1.78794
3033.73721 1.78771
3031.68877 1.78641
3029.64033 1.78471
3027.59189 1.78340
3025.54345 1.78236
3023.49502 1.78220
3021.44658 1.78219
3019.39814 1.78173
3017.34970 1.78153
3015.30126 1.78144
3013.25282 1.78126
3011.20439 1.78062
3009.15595 1.77975
3007.10751 1.77956
3005.05907 1.77920
3003.01063 1.77833
3000.96219 1.77754
2998.91376 1.77636
2996.86532 1.77465
2994.81688 1.77334
2992.76844 1.77399
2990.72000 1.77589
2988.67156 1.77585
2986.62313 1.77372
2984.57469 1.77219
2982.52625 1.77229
2980.47781 1.77332
2978.42937 1.77398
2976.38093 1.77322
2974.33250 1.77154
2972.28406 1.77047
2970.23562 1.77065
2968.18718 1.77115
2966.13874 1.77149
2964.09030 1.77262
2962.04187 1.77365
2959.99343 1.77360
2957.94499 1.77388
2955.89655 1.77483
2953.84811 1.77536
2951.79967 1.77495
2949.75124 1.77420
2947.70280 1.77355
2945.65436 1.77275
2943.60592 1.77192
2941.55748 1.77143
2939.50904 1.77188
2937.46061 1.77335
2935.41217 1.77501
2933.36373 1.77547
2931.31529 1.77474
2929.26685 1.77421
2927.21841 1.77369
2925.16998 1.77324
2923.12154 1.77322
2921.07310 1.77281
2919.02466 1.77150
2916.97622 1.76988
2914.92778 1.76875
2912.87934 1.76778
2910.83091 1.76746
2908.78247 1.76827
2906.73403 1.76867
2904.68559 1.76797
2902.63715 1.76710
2900.58871 1.76651
2898.54028 1.76607
2896.49184 1.76588
2894.44340 1.76566
2892.39496 1.76486
2890.34652 1.76375
2888.29808 1.76293
2886.24965 1.76282
2884.20121 1.76282
2882.15277 1.76218
2880.10433 1.76129
2878.05589 1.76071
2876.00745 1.76048
2873.95902 1.76062
2871.91058 1.76105
2869.86214 1.76086
2867.81370 1.76020
2865.76526 1.76006
2863.71682 1.76010
2861.66839 1.75976
2859.61995 1.75947
2857.57151 1.75961
2855.52307 1.75977
2853.47463 1.75989
2851.42619 1.75973
2849.37776 1.75843
2847.32932 1.75635
2845.28088 1.75496
2843.23244 1.75435
2841.18400 1.75380
2839.13556 1.75435
2837.08713 1.75522
2835.03869 1.75399
2832.99025 1.75269
2830.94181 1.75313
2828.89337 1.75328
2826.84493 1.75287
2824.79650 1.75227
2822.74806 1.75041
2820.69962 1.74837
2818.65118 1.74758
2816.60274 1.74727
2814.55430 1.74694
2812.50587 1.74697
2810.45743 1.74700
2808.40899 1.74641
2806.36055 1.74544
2804.31211 1.74470
2802.26367 1.74448
2800.21524 1.74468
2798.16680 1.74476
2796.11836 1.74424
2794.06992 1.74316
2792.02148 1.74189
2789.97304 1.74094
2787.92461 1.74048
2785.87617 1.73991
2783.82773 1.73888
2781.77929 1.73809
2779.73085 1.73790
2777.68241 1.73779
2775.63397 1.73750
2773.58554 1.73754
2771.53710 1.73823
2769.48866 1.73835
2767.44022 1.73676
2765.39178 1.73466
2763.34334 1.73354
2761.29491 1.73316
2759.24647 1.73344
2757.19803 1.73393
2755.14959 1.73362
2753.10115 1.73318
2751.05271 1.73302
2749.00428 1.73279
2746.95584 1.73241
2744.90740 1.73146
2742.85896 1.73032
2740.81052 1.72988
2738.76208 1.72990
2736.71365 1.72995
2734.66521 1.72997
2732.61677 1.72927
2730.56833 1.72786
2728.51989 1.72680
2726.47145 1.72628
2724.42302 1.72575
2722.37458 1.72524
2720.32614 1.72489
2718.27770 1.72450
2716.22926 1.72467
2714.18082 1.72538
2712.13239 1.72563
2710.08395 1.72526
2708.03551 1.72465
2705.98707 1.72436
2703.93863 1.72458
2701.89019 1.72512
2699.84176 1.72612
2697.79332 1.72681
2695.74488 1.72632
2693.69644 1.72558
2691.64800 1.72558
2689.59956 1.72569
2687.55113 1.72534
2685.50269 1.72513
2683.45425 1.72522
2681.40581 1.72536
2679.35737 1.72598
2677.30893 1.72668
2675.26050 1.72643
2673.21206 1.72600
2671.16362 1.72595
2669.11518 1.72580
2667.06674 1.72611
2665.01830 1.72700
2662.96987 1.72751
2660.92143 1.72774
2658.87299 1.72819
2656.82455 1.72795
2654.77611 1.72710
2652.72767 1.72747
2650.67924 1.72853
2648.63080 1.72853
2646.58236 1.72798
2644.53392 1.72822
2642.48548 1.72930
2640.43704 1.72981
2638.38860 1.72921
2636.34017 1.72865
2634.29173 1.72879
2632.24329 1.72888
2630.19485 1.72859
2628.14641 1.72843
2626.09797 1.72889
2624.04954 1.73014
2622.00110 1.73138
2619.95266 1.73136
2617.90422 1.73058
2615.85578 1.73065
2613.80734 1.73127
2611.75891 1.73094
2609.71047 1.72986
2607.66203 1.72952
2605.61359 1.73004
2603.56515 1.73083
2601.51671 1.73163
2599.46828 1.73179
2597.41984 1.73096
2595.37140 1.72976
2593.32296 1.72946
2591.27452 1.73011
2589.22608 1.73086
2587.17765 1.73154
2585.12921 1.73165
2583.08077 1.73119
2581.03233 1.73138
2578.98389 1.73235
2576.93545 1.73271
2574.88702 1.73228
2572.83858 1.73199
2570.79014 1.73266
2568.74170 1.73435
2566.69326 1.73503
2564.64482 1.73402
2562.59639 1.73355
2560.54795 1.73411
2558.49951 1.73449
2556.45107 1.73491
2554.40263 1.73597
2552.35419 1.73686
2550.30576 1.73700
2548.25732 1.73696
2546.20888 1.73689
2544.16044 1.73728
2542.11200 1.73827
2540.06356 1.73873
2538.01513 1.73892
2535.96669 1.73949
2533.91825 1.73988
2531.86981 1.74000
2529.82137 1.73997
2527.77293 1.73961
2525.72450 1.73920
2523.67606 1.73928
2521.62762 1.73966
2519.57918 1.73987
2517.53074 1.74005
2515.48230 1.74043
2513.43387 1.74028
2511.38543 1.73929
2509.33699 1.73821
2507.28855 1.73772
2505.24011 1.73781
2503.19167 1.73794
2501.14324 1.73846
2499.09480 1.73950
2497.04636 1.74014
2494.99792 1.74002
2492.94948 1.73943
2490.90104 1.73932
2488.85260 1.73962
2486.80417 1.73881
2484.75573 1.73727
2482.70729 1.73686
2480.65885 1.73754
2478.61041 1.73823
2476.56197 1.73830
2474.51354 1.73780
2472.46510 1.73745
2470.41666 1.73704
2468.36822 1.73589
2466.31978 1.73491
2464.27134 1.73481
2462.22291 1.73438
2460.17447 1.73335
2458.12603 1.73320
2456.07759 1.73384
2454.02915 1.73427
2451.98071 1.73412
2449.93228 1.73368
2447.88384 1.73387
2445.83540 1.73399
2443.78696 1.73348
2441.73852 1.73333
2439.69008 1.73317
2437.64165 1.73239
2435.59321 1.73144
2433.54477 1.73086
2431.49633 1.73093
2429.44789 1.73126
2427.39945 1.73157
2425.35102 1.73182
2423.30258 1.73177
2421.25414 1.73157
2419.20570 1.73152
2417.15726 1.73165
2415.10882 1.73164
2413.06039 1.73093
2411.01195 1.72997
2408.96351 1.72977
2406.91507 1.73010
2404.86663 1.72996
2402.81819 1.72931
2400.76976 1.72910
2398.72132 1.72881
2396.67288 1.72770
2394.62444 1.72689
2392.57600 1.72671
2390.52756 1.72677
2388.47913 1.72696
2386.43069 1.72725
2384.38225 1.72811
2382.33381 1.72971
2380.28537 1.73107
2378.23693 1.73141
2376.18850 1.73157
2374.14006 1.73230
2372.09162 1.73315
2370.04318 1.73384
2367.99474 1.73382
2365.94630 1.73261
2363.89787 1.73184
2361.84943 1.73399
2359.80099 1.73955
2357.75255 1.74309
2355.70411 1.74113
2353.65567 1.73821
2351.60723 1.73591
2349.55880 1.73401
2347.51036 1.73298
2345.46192 1.73436
2343.41348 1.73942
2341.36504 1.74221
2339.31660 1.74007
2337.26817 1.73772
2335.21973 1.73692
2333.17129 1.73652
2331.12285 1.73385
2329.07441 1.72965
2327.02597 1.72795
2324.97754 1.72781
2322.92910 1.72740
2320.88066 1.72732
2318.83222 1.72687
2316.78378 1.72534
2314.73534 1.72424
2312.68691 1.72377
2310.63847 1.72325
2308.59003 1.72259
2306.54159 1.72066
2304.49315 1.71781
2302.44471 1.71562
2300.39628 1.71510
2298.34784 1.71572
2296.29940 1.71567
2294.25096 1.71507
2292.20252 1.71447
2290.15408 1.71387
2288.10565 1.71379
2286.05721 1.71370
2284.00877 1.71319
2281.96033 1.71288
2279.91189 1.71267
2277.86345 1.71225
2275.81502 1.71212
2273.76658 1.71235
2271.71814 1.71228
2269.66970 1.71180
2267.62126 1.71146
2265.57282 1.71145
2263.52439 1.71135
2261.47595 1.71099
2259.42751 1.71071
2257.37907 1.71092
2255.33063 1.71128
2253.28219 1.71126
2251.23376 1.71133
2249.18532 1.71152
2247.13688 1.71119
2245.08844 1.71081
2243.04000 1.71046
2240.99156 1.70963
2238.94313 1.70892
2236.89469 1.70896
2234.84625 1.70942
2232.79781 1.70978
2230.74937 1.70979
2228.70093 1.70967
2226.65250 1.70936
2224.60406 1.70854
2222.55562 1.70804
2220.50718 1.70882
2218.45874 1.70995
2216.41030 1.71039
2214.36186 1.71027
2212.31343 1.70944
2210.26499 1.70881
2208.21655 1.70925
2206.16811 1.70928
2204.11967 1.70879
2202.07123 1.70912
2200.02280 1.70951
2197.97436 1.70947
2195.92592 1.70945
2193.87748 1.70900
2191.82904 1.70814
2189.78060 1.70794
2187.73217 1.70828
2185.68373 1.70827
2183.63529 1.70794
2181.58685 1.70801
2179.53841 1.70867
2177.48997 1.70949
2175.44154 1.71009
2173.39310 1.70950
2171.34466 1.70783
2169.29622 1.70663
2167.24778 1.70640
2165.19934 1.70671
2163.15091 1.70720
2161.10247 1.70769
2159.05403 1.70827
2157.00559 1.70882
2154.95715 1.70886
2152.90871 1.70835
2150.86028 1.70812
2148.81184 1.70878
2146.76340 1.70948
2144.71496 1.70925
2142.66652 1.70874
2140.61808 1.70853
2138.56965 1.70830
2136.52121 1.70799
2134.47277 1.70775
2132.42433 1.70818
2130.37589 1.70919
2128.32745 1.70968
2126.27902 1.70942
2124.23058 1.70926
2122.18214 1.70988
2120.13370 1.71096
2118.08526 1.71155
2116.03682 1.71169
2113.98839 1.71209
2111.93995 1.71285
2109.89151 1.71395
2107.84307 1.71495
2105.79463 1.71504
2103.74619 1.71474
2101.69776 1.71509
2099.64932 1.71599
2097.60088 1.71707
2095.55244 1.71798
2093.50400 1.71807
2091.45556 1.71823
2089.40713 1.71893
2087.35869 1.71882
2085.31025 1.71824
2083.26181 1.71818
2081.21337 1.71847
2079.16493 1.71881
2077.11649 1.71937
2075.06806 1.71991
2073.01962 1.71999
2070.97118 1.72055
2068.92274 1.72209
2066.87430 1.72306
2064.82586 1.72271
2062.77743 1.72233
2060.72899 1.72247
2058.68055 1.72248
2056.63211 1.72186
2054.58367 1.72124
2052.53523 1.72153
2050.48680 1.72186
2048.43836 1.72170
2046.38992 1.72194
2044.34148 1.72270
2042.29304 1.72316
2040.24460 1.72290
2038.19617 1.72256
2036.14773 1.72263
2034.09929 1.72300
2032.05085 1.72312
2030.00241 1.72276
2027.95397 1.72260
2025.90554 1.72269
2023.85710 1.72310
2021.80866 1.72373
2019.76022 1.72378
2017.71178 1.72371
2015.66334 1.72416
2013.61491 1.72478
2011.56647 1.72510
2009.51803 1.72499
2007.46959 1.72527
2005.42115 1.72635
2003.37271 1.72749
2001.32428 1.72836
1999.27584 1.72905
1997.22740 1.73011
1995.17896 1.73171
1993.13052 1.73271
1991.08208 1.73261
1989.03365 1.73276
1986.98521 1.73376
1984.93677 1.73477
1982.88833 1.73528
1980.83989 1.73565
1978.79145 1.73635
1976.74302 1.73692
1974.69458 1.73624
1972.64614 1.73493
1970.59770 1.73495
1968.54926 1.73651
1966.50082 1.73779
1964.45239 1.73750
1962.40395 1.73654
1960.35551 1.73621
1958.30707 1.73667
1956.25863 1.73701
1954.21019 1.73692
1952.16176 1.73710
1950.11332 1.73781
1948.06488 1.73849
1946.01644 1.73795
1943.96800 1.73680
1941.91956 1.73709
1939.87112 1.73754
1937.82269 1.73652
1935.77425 1.73546
1933.72581 1.73562
1931.67737 1.73607
1929.62893 1.73585
1927.58049 1.73568
1925.53206 1.73648
1923.48362 1.73791
1921.43518 1.73882
1919.38674 1.73860
1917.33830 1.73756
1915.28986 1.73698
1913.24143 1.73724
1911.19299 1.73734
1909.14455 1.73747
1907.09611 1.73796
1905.04767 1.73776
1902.99923 1.73724
1900.95080 1.73718
1898.90236 1.73690
1896.85392 1.73640
1894.80548 1.73625
1892.75704 1.73668
1890.70860 1.73735
1888.66017 1.73704
1886.61173 1.73596
1884.56329 1.73535
1882.51485 1.73513
1880.46641 1.73528
1878.41797 1.73539
1876.36954 1.73456
1874.32110 1.73314
1872.27266 1.73238
1870.22422 1.73289
1868.17578 1.73436
1866.12734 1.73530
1864.07891 1.73490
1862.03047 1.73415
1859.98203 1.73406
1857.93359 1.73442
1855.88515 1.73485
1853.83671 1.73519
1851.78828 1.73501
1849.73984 1.73453
1847.69140 1.73495
1845.64296 1.73666
1843.59452 1.73804
1841.54608 1.73742
1839.49765 1.73607
1837.44921 1.73523
1835.40077 1.73501
1833.35233 1.73549
1831.30389 1.73692
1829.25545 1.73742
1827.20702 1.73574
1825.15858 1.73491
1823.11014 1.73504
1821.06170 1.73402
1819.01326 1.73281
1816.96482 1.73260
1814.91639 1.73275
1812.86795 1.73308
1810.81951 1.73360
1808.77107 1.73347
1806.72263 1.73283
1804.67419 1.73272
1802.62575 1.73350
1800.57732 1.73384
1798.52888 1.73300
1796.48044 1.73261
1794.43200 1.73320
1792.38356 1.73367
1790.33512 1.73251
1788.28669 1.73097
1786.23825 1.73076
1784.18981 1.73134
1782.14137 1.73077
1780.09293 1.72950
1778.04449 1.72942
1775.99606 1.73029
1773.94762 1.73171
1771.89918 1.73287
1769.85074 1.73178
1767.80230 1.73022
1765.75386 1.72893
1763.70543 1.72784
1761.65699 1.72820
1759.60855 1.72928
1757.56011 1.72928
1755.51167 1.72890
1753.46323 1.72947
1751.41480 1.73184
1749.36636 1.73505
1747.31792 1.73547
1745.26948 1.73412
1743.22104 1.73320
1741.17260 1.73292
1739.12417 1.73314
1737.07573 1.73322
1735.02729 1.73420
1732.97885 1.73764
1730.93041 1.73898
1728.88197 1.73756
1726.83354 1.73585
1724.78510 1.73572
1722.73666 1.73681
1720.68822 1.73765
1718.63978 1.73859
1716.59134 1.74002
1714.54291 1.74010
1712.49447 1.73939
1710.44603 1.73877
1708.39759 1.73831
1706.34915 1.73846
1704.30071 1.73880
1702.25228 1.73891
1700.20384 1.74191
1698.15540 1.74630
1696.10696 1.74591
1694.05852 1.74320
1692.01008 1.74190
1689.96165 1.74263
1687.91321 1.74374
1685.86477 1.74270
1683.81633 1.74125
1681.76789 1.74189
1679.71945 1.74094
1677.67102 1.73938
1675.62258 1.74003
1673.57414 1.74221
1671.52570 1.74411
1669.47726 1.74508
1667.42882 1.74231
1665.38038 1.73957
1663.33195 1.73922
1661.28351 1.73829
1659.23507 1.73560
1657.18663 1.73410
1655.13819 1.73591
1653.08975 1.74137
1651.04132 1.74110
1648.99288 1.73855
1646.94444 1.73666
1644.89600 1.73428
1642.84756 1.73218
1640.79912 1.73075
1638.75069 1.73022
1636.70225 1.73118
1634.65381 1.73045
1632.60537 1.72719
1630.55693 1.72492
1628.50849 1.72443
1626.46006 1.72508
1624.41162 1.72564
1622.36318 1.72436
1620.31474 1.72185
1618.26630 1.72034
1616.21786 1.71883
1614.16943 1.71636
1612.12099 1.71432
1610.07255 1.71301
1608.02411 1.71197
1605.97567 1.71029
1603.92723 1.70804
1601.87880 1.70595
1599.83036 1.70352
1597.78192 1.70133
1595.73348 1.70080
1593.68504 1.70036
1591.63660 1.69880
1589.58817 1.69732
1587.53973 1.69623
1585.49129 1.69572
1583.44285 1.69575
1581.39441 1.69589
1579.34597 1.69720
1577.29754 1.69976
1575.24910 1.69916
1573.20066 1.69630
1571.15222 1.69583
1569.10378 1.69708
1567.05534 1.69751
1565.00691 1.69804
1562.95847 1.69855
1560.91003 1.69939
1558.86159 1.70504
1556.81315 1.70932
1554.76471 1.70882
1552.71628 1.70922
1550.66784 1.71107
1548.61940 1.71289
1546.57096 1.71556
1544.52252 1.72116
1542.47408 1.72848
1540.42565 1.73315
1538.37721 1.73174
1536.32877 1.73111
1534.28033 1.73408
1532.23189 1.73817
1530.18345 1.74007
1528.13501 1.74205
1526.08658 1.74520
1524.03814 1.74936
1521.98970 1.75413
1519.94126 1.75568
1517.89282 1.75487
1515.84438 1.75362
1513.79595 1.75245
1511.74751 1.75292
1509.69907 1.75582
1507.65063 1.75882
1505.60219 1.75387
1503.55375 1.74903
1501.50532 1.74735
1499.45688 1.74810
1497.40844 1.74895
1495.36000 1.74577
1493.31156 1.74273
1491.26312 1.74316
1489.21469 1.74456
1487.16625 1.74124
1485.11781 1.73650
1483.06937 1.73378
1481.02093 1.73250
1478.97249 1.73145
1476.92406 1.73095
1474.87562 1.73179
1472.82718 1.73219
1470.77874 1.73016
1468.73030 1.72913
1466.68186 1.73084
1464.63343 1.73309
1462.58499 1.73250
1460.53655 1.73318
1458.48811 1.73917
1456.43967 1.74289
1454.39123 1.73855
1452.34280 1.73570
1450.29436 1.73554
1448.24592 1.73751
1446.19748 1.73869
1444.14904 1.73867
1442.10060 1.74013
1440.05217 1.74318
1438.00373 1.74740
1435.95529 1.75144
1433.90685 1.75186
1431.85841 1.75148
1429.80997 1.75211
1427.76154 1.75245
1425.71310 1.75294
1423.66466 1.75392
1421.61622 1.75457
1419.56778 1.75546
1417.51934 1.75699
1415.47091 1.75850
1413.42247 1.76043
1411.37403 1.76312
1409.32559 1.76540
1407.27715 1.76700
1405.22871 1.76951
1403.18028 1.77186
1401.13184 1.77287
1399.08340 1.77405
1397.03496 1.77573
1394.98652 1.77707
1392.93808 1.77695
1390.88965 1.77631
1388.84121 1.77717
1386.79277 1.77799
1384.74433 1.77658
1382.69589 1.77522
1380.64745 1.77495
1378.59901 1.77498
1376.55058 1.77547
1374.50214 1.77590
1372.45370 1.77417
1370.40526 1.77171
1368.35682 1.77015
1366.30838 1.76901
1364.25995 1.76832
1362.21151 1.76770
1360.16307 1.76586
1358.11463 1.76405
1356.06619 1.76356
1354.01775 1.76373
1351.96932 1.76407
1349.92088 1.76419
1347.87244 1.76352
1345.82400 1.76297
1343.77556 1.76411
1341.72712 1.76680
1339.67869 1.76887
1337.63025 1.76864
1335.58181 1.76819
1333.53337 1.76895
1331.48493 1.76996
1329.43649 1.77078
1327.38806 1.77186
1325.33962 1.77308
1323.29118 1.77430
1321.24274 1.77561
1319.19430 1.77640
1317.14586 1.77659
1315.09743 1.77650
1313.04899 1.77613
1311.00055 1.77605
1308.95211 1.77652
1306.90367 1.77681
1304.85523 1.77648
1302.80680 1.77662
1300.75836 1.77741
1298.70992 1.77789
1296.66148 1.77819
1294.61304 1.77864
1292.56460 1.77907
1290.51617 1.77905
1288.46773 1.77879
1286.41929 1.77921
1284.37085 1.77972
1282.32241 1.77939
1280.27397 1.77904
1278.22554 1.77938
1276.17710 1.78075
1274.12866 1.78308
1272.08022 1.78474
1270.03178 1.78472
1267.98334 1.78459
1265.93491 1.78527
1263.88647 1.78580
1261.83803 1.78602
1259.78959 1.78635
1257.74115 1.78690
1255.69271 1.78760
1253.64428 1.78801
1251.59584 1.78787
1249.54740 1.78706
1247.49896 1.78571
1245.45052 1.78476
1243.40208 1.78429
1241.35364 1.78398
1239.30521 1.78389
1237.25677 1.78306
1235.20833 1.78143
1233.15989 1.78010
1231.11145 1.77943
1229.06301 1.77929
1227.01458 1.77935
1224.96614 1.77904
1222.91770 1.77850
1220.86926 1.77905
1218.82082 1.78041
1216.77238 1.78087
1214.72395 1.78064
1212.67551 1.78065
1210.62707 1.78100
1208.57863 1.78168
1206.53019 1.78248
1204.48175 1.78334
1202.43332 1.78450
1200.38488 1.78613
1198.33644 1.78793
1196.28800 1.78923
1194.23956 1.79016
1192.19112 1.79106
1190.14269 1.79174
1188.09425 1.79276
1186.04581 1.79449
1183.99737 1.79606
1181.94893 1.79708
1179.90049 1.79840
1177.85206 1.80046
1175.80362 1.80228
1173.75518 1.80341
1171.70674 1.80498
1169.65830 1.80710
1167.60986 1.80886
1165.56143 1.81009
1163.51299 1.81133
1161.46455 1.81303
1159.41611 1.81527
1157.36767 1.81821
1155.31923 1.82120
1153.27080 1.82301
1151.22236 1.82382
1149.17392 1.82425
1147.12548 1.82572
1145.07704 1.82991
1143.02860 1.83549
1140.98017 1.84092
1138.93173 1.84728
1136.88329 1.85413
1134.83485 1.85968
1132.78641 1.86538
1130.73797 1.87248
1128.68954 1.87879
1126.64110 1.88268
1124.59266 1.88457
1122.54422 1.88529
1120.49578 1.88570
1118.44734 1.88610
1116.39891 1.88640
1114.35047 1.88618
1112.30203 1.88493
1110.25359 1.88277
1108.20515 1.88123
1106.15671 1.88140
1104.10827 1.88178
1102.05984 1.88142
1100.01140 1.88095
1097.96296 1.88064
1095.91452 1.88067
1093.86608 1.87985
1091.81764 1.87802
1089.76921 1.87704
1087.72077 1.87742
1085.67233 1.87887
1083.62389 1.88080
1081.57545 1.88304
1079.52701 1.88429
1077.47858 1.88339
1075.43014 1.88212
1073.38170 1.88112
1071.33326 1.88038
1069.28482 1.88022
1067.23638 1.88025
1065.18795 1.88032
1063.13951 1.88013
1061.09107 1.88034
1059.04263 1.88240
1056.99419 1.88489
1054.94575 1.88504
1052.89732 1.88309
1050.84888 1.88049
1048.80044 1.87787
1046.75200 1.87466
1044.70356 1.87043
1042.65512 1.86634
1040.60669 1.86199
1038.55825 1.85696
1036.50981 1.85236
1034.46137 1.84798
1032.41293 1.84405
1030.36449 1.84158
1028.31606 1.84012
1026.26762 1.83886
1024.21918 1.83707
1022.17074 1.83455
1020.12230 1.83268
1018.07386 1.83278
1016.02543 1.83341
1013.97699 1.83299
1011.92855 1.83312
1009.88011 1.83481
1007.83167 1.83710
1005.78323 1.83880
1003.73480 1.83959
1001.68636 1.84166
999.63792 1.84578
997.58948 1.84971
995.54104 1.85345
993.49260 1.85706
991.44417 1.85942
989.39573 1.86156
987.34729 1.86398
985.29885 1.86591
983.25041 1.86697
981.20197 1.86727
979.15354 1.86520
977.10510 1.86027
975.05666 1.85622
973.00822 1.85439
970.95978 1.85282
968.91134 1.85149
966.86290 1.85116
964.81447 1.85151
962.76603 1.85292
960.71759 1.85539
958.66915 1.85796
956.62071 1.86107
954.57227 1.86433
952.52384 1.86701
950.47540 1.87102
948.42696 1.87560
946.37852 1.87694
944.33008 1.87573
942.28164 1.87617
940.23321 1.87906
938.18477 1.88157
936.13633 1.88221
934.08789 1.88167
932.03945 1.88059
929.99101 1.87898
927.94258 1.87775
925.89414 1.87657
923.84570 1.87436
921.79726 1.87344
919.74882 1.87427
917.70038 1.87345
915.65195 1.87053
913.60351 1.86862
911.55507 1.86886
909.50663 1.86862
907.45819 1.86671
905.40975 1.86646
903.36132 1.86841
901.31288 1.86933
899.26444 1.87077
897.21600 1.87467
895.16756 1.87763
893.11912 1.87835
891.07069 1.87958
889.02225 1.88223
886.97381 1.88449
884.92537 1.88464
882.87693 1.88353
880.82849 1.88366
878.78006 1.88639
876.73162 1.89022
874.68318 1.89144
872.63474 1.88912
870.58630 1.88601
868.53786 1.88506
866.48943 1.88560
864.44099 1.88425
862.39255 1.88168
860.34411 1.88155
858.29567 1.88300
856.24723 1.88222
854.19880 1.87903
852.15036 1.87532
850.10192 1.87309
848.05348 1.87542
846.00504 1.88032
843.95660 1.88276
841.90817 1.88590
839.85973 1.89088
837.81129 1.89229
835.76285 1.89145
833.71441 1.89210
831.66597 1.89216
829.61753 1.89008
827.56910 1.88874
825.52066 1.88890
823.47222 1.89115
821.42378 1.89900
819.37534 1.91107
817.32690 1.92098
815.27847 1.92360
813.23003 1.91771
811.18159 1.90970
809.13315 1.90756
807.08471 1.91140
805.03627 1.91569
802.98784 1.91665
800.93940 1.91759
798.89096 1.92128
796.84252 1.92302
794.79408 1.92178
792.74564 1.92299
790.69721 1.92656
788.64877 1.92817
786.60033 1.92674
784.55189 1.92413
782.50345 1.92373
780.45501 1.92671
778.40658 1.93053
776.35814 1.93263
774.30970 1.93403
772.26126 1.93402
770.21282 1.93094
768.16438 1.92758
766.11595 1.92528
764.06751 1.92405
762.01907 1.92658
759.97063 1.93477
757.92219 1.94421
755.87375 1.95059
753.82532 1.95379
751.77688 1.95381
749.72844 1.95377
747.68000 1.95567
745.63156 1.95542
743.58312 1.95319
741.53469 1.95755
739.48625 1.96679
737.43781 1.97172
735.38937 1.97663
733.34093 1.98335
731.29249 1.98572
729.24406 1.98675
727.19562 1.98904
725.14718 1.99009
723.09874 1.98996
721.05030 1.99029
719.00186 1.99292
716.95343 1.99855
714.90499 2.00643
712.85655 2.01267
710.80811 2.01489
708.75967 2.01436
706.71123 2.01167
704.66280 2.01170
702.61436 2.02152
700.56592 2.03651
698.51748 2.03898
696.46904 2.02765
694.42060 2.02207
692.37216 2.02528
690.32373 2.02984
688.27529 2.03700
686.22685 2.04128
684.17841 2.04174
682.12997 2.04969
680.08153 2.06170
678.03310 2.06411
675.98466 2.06150
673.93622 2.06996
671.88778 2.07422
669.83934 2.05122
667.79090 2.03081
665.74247 2.04041
663.69403 2.03482
661.64559 2.01067
659.59715 2.00213
657.54871 2.01297
655.50027 2.00951
653.45184 1.99782
651.40340 2.01005
649.35496 2.03573
647.30652 2.04552
645.25808 2.04020
643.20964 2.02940
641.16121 2.01992
639.11277 2.01219
637.06433 2.01012
635.01589 2.02165
632.96745 2.02301
630.91901 2.00501
628.87058 1.99326
626.82214 1.99529
624.77370 2.00708
622.72526 1.99978
620.67682 1.95773
618.62838 1.94172
616.57995 1.96955
614.53151 1.96589
612.48307 1.93625
610.43463 1.96008
608.38619 2.01114
606.33775 1.99318
604.28932 1.95189
602.24088 1.97879
600.19244 2.04406
598.14400 2.07684
