3996.50324 1.66324
3994.45480 1.66569
3992.40636 1.66798
3990.35792 1.67056
3988.30948 1.67365
3986.26104 1.67665
3984.21261 1.68015
3982.16417 1.68442
3980.11573 1.68939
3978.06729 1.69525
3976.01885 1.70127
3973.97041 1.70541
3971.92198 1.70697
3969.87354 1.70705
3967.82510 1.70592
3965.77666 1.70363
3963.72822 1.70016
3961.67978 1.69613
3959.63135 1.69232
3957.58291 1.68842
3955.53447 1.68567
3953.48603 1.68506
3951.43759 1.68466
3949.38915 1.68414
3947.34072 1.68492
3945.29228 1.68587
3943.24384 1.68446
3941.19540 1.68115
3939.14696 1.68008
3937.09852 1.68160
3935.05009 1.68360
3933.00165 1.68611
3930.95321 1.69014
3928.90477 1.69459
3926.85633 1.69810
3924.80789 1.70185
3922.75946 1.70654
3920.71102 1.71088
3918.66258 1.71327
3916.61414 1.71175
3914.56570 1.70714
3912.51726 1.70190
3910.46883 1.69663
3908.42039 1.69297
3906.37195 1.69371
3904.32351 1.69931
3902.27507 1.70670
3900.22663 1.71496
3898.17820 1.72210
3896.12976 1.72694
3894.08132 1.73350
3892.03288 1.74378
3889.98444 1.75432
3887.93600 1.76291
3885.88756 1.77144
3883.83913 1.77784
3881.79069 1.78256
3879.74225 1.78642
3877.69381 1.78670
3875.64537 1.78481
3873.59693 1.78033
3871.54850 1.77218
3869.50006 1.75719
3867.45162 1.74246
3865.40318 1.73098
3863.35474 1.71954
3861.30630 1.71296
3859.25787 1.71089
3857.20943 1.71014
3855.16099 1.70883
3853.11255 1.70759
3851.06411 1.70690
3849.01567 1.70609
3846.96724 1.70706
3844.91880 1.71032
3842.87036 1.71368
3840.82192 1.71571
3838.77348 1.71809
3836.72504 1.71941
3834.67661 1.71898
3832.62817 1.71702
3830.57973 1.71420
3828.53129 1.71284
3826.48285 1.71253
3824.43441 1.71288
3822.38598 1.71322
3820.33754 1.70988
3818.28910 1.70494
3816.24066 1.69840
3814.19222 1.69037
3812.14378 1.68530
3810.09535 1.68292
3808.04691 1.68314
3805.99847 1.68585
3803.95003 1.68930
3801.90159 1.69031
3799.85315 1.68714
3797.80472 1.68428
3795.75628 1.68056
3793.70784 1.67645
3791.65940 1.67439
3789.61096 1.67391
3787.56252 1.67401
3785.51409 1.67369
3783.46565 1.67262
3781.41721 1.67189
3779.36877 1.67138
3777.32033 1.67087
3775.27189 1.67062
3773.22346 1.67101
3771.17502 1.67261
3769.12658 1.67423
3767.07814 1.67455
3765.02970 1.67472
3762.98126 1.67575
3760.93283 1.67771
3758.88439 1.67964
3756.83595 1.68041
3754.78751 1.68267
3752.73907 1.69016
3750.69063 1.70102
3748.64219 1.70476
3746.59376 1.70520
3744.54532 1.70577
3742.49688 1.70590
3740.44844 1.70623
3738.40000 1.70653
3736.35156 1.70766
3734.30313 1.71223
3732.25469 1.71400
3730.20625 1.71159
3728.15781 1.70968
3726.10937 1.70811
3724.06093 1.70589
3722.01250 1.70458
3719.96406 1.70503
3717.91562 1.70564
3715.86718 1.70563
3713.81874 1.70686
3711.77030 1.71103
3709.72187 1.71356
3707.67343 1.71117
3705.62499 1.70723
3703.57655 1.70261
3701.52811 1.69647
3699.47967 1.69061
3697.43124 1.68692
3695.38280 1.68568
3693.33436 1.68724
3691.28592 1.69117
3689.23748 1.69509
3687.18904 1.69775
3685.14061 1.70137
3683.09217 1.70637
3681.04373 1.71329
3678.99529 1.72332
3676.94685 1.73774
3674.89841 1.75123
3672.84998 1.75300
3670.80154 1.75129
3668.75310 1.74950
3666.70466 1.74810
3664.65622 1.74934
3662.60778 1.75379
3660.55935 1.75871
3658.51091 1.76160
3656.46247 1.76076
3654.41403 1.75652
3652.36559 1.75341
3650.31715 1.75219
3648.26872 1.74655
3646.22028 1.73772
3644.17184 1.73379
3642.12340 1.73398
3640.07496 1.73621
3638.02652 1.73965
3635.97809 1.74404
3633.92965 1.74825
3631.88121 1.75059
3629.83277 1.75131
3627.78433 1.75373
3625.73589 1.75738
3623.68746 1.76015
3621.63902 1.76304
3619.59058 1.76761
3617.54214 1.77364
3615.49370 1.77822
3613.44526 1.77980
3611.39682 1.78018
3609.34839 1.78346
3607.29995 1.78772
3605.25151 1.78882
3603.20307 1.79038
3601.15463 1.79418
3599.10619 1.79820
3597.05776 1.80330
3595.00932 1.81277
3592.96088 1.82628
3590.91244 1.83834
3588.86400 1.84907
3586.81556 1.85962
3584.76713 1.86479
3582.71869 1.86741
3580.67025 1.87388
3578.62181 1.88591
3576.57337 1.89989
3574.52493 1.91231
3572.47650 1.92060
3570.42806 1.92436
3568.37962 1.92505
3566.33118 1.92124
3564.28274 1.91370
3562.23430 1.90641
3560.18587 1.90073
3558.13743 1.89828
3556.08899 1.89911
3554.04055 1.90311
3551.99211 1.90957
3549.94367 1.91588
3547.89524 1.92282
3545.84680 1.92929
3543.79836 1.93117
3541.74992 1.93183
3539.70148 1.93522
3537.65304 1.94006
3535.60461 1.94460
3533.55617 1.94906
3531.50773 1.95479
3529.45929 1.96143
3527.41085 1.96695
3525.36241 1.97199
3523.31398 1.97656
3521.26554 1.98045
3519.21710 1.98415
3517.16866 1.98663
3515.12022 1.98856
3513.07178 1.99339
3511.02335 2.00291
3508.97491 2.01270
3506.92647 2.01736
3504.87803 2.01933
3502.82959 2.02114
3500.78115 2.02203
3498.73272 2.02306
3496.68428 2.02430
3494.63584 2.02447
3492.58740 2.02508
3490.53896 2.02679
3488.49052 2.02745
3486.44209 2.02892
3484.39365 2.03253
3482.34521 2.03464
3480.29677 2.03368
3478.24833 2.03119
3476.19989 2.02958
3474.15146 2.02945
3472.10302 2.02797
3470.05458 2.02588
3468.00614 2.02630
3465.95770 2.02663
3463.90926 2.02672
3461.86082 2.02825
3459.81239 2.02697
3457.76395 2.02306
3455.71551 2.02074
3453.66707 2.01949
3451.61863 2.01776
3449.57019 2.01623
3447.52176 2.01439
3445.47332 2.01197
3443.42488 2.01009
3441.37644 2.00842
3439.32800 2.01187
3437.27956 2.02605
3435.23113 2.04149
3433.18269 2.04732
3431.13425 2.04833
3429.08581 2.04887
3427.03737 2.04645
3424.98893 2.04222
3422.94050 2.03966
3420.89206 2.03724
3418.84362 2.03071
3416.79518 2.02081
3414.74674 2.01102
3412.69830 2.00276
3410.64987 1.99551
3408.60143 1.98730
3406.55299 1.97885
3404.50455 1.97524
3402.45611 1.97734
3400.40767 1.97839
3398.35924 1.97605
3396.31080 1.97551
3394.26236 1.97779
3392.21392 1.98067
3390.16548 1.98268
3388.11704 1.98256
3386.06861 1.98072
3384.02017 1.97966
3381.97173 1.98267
3379.92329 1.98927
3377.87485 1.99581
3375.82641 1.99971
3373.77798 2.00049
3371.72954 1.99955
3369.68110 1.99954
3367.63266 2.00163
3365.58422 2.00405
3363.53578 2.00292
3361.48735 1.99898
3359.43891 1.99810
3357.39047 1.99932
3355.34203 1.99796
3353.29359 1.99509
3351.24515 1.99319
3349.19672 1.99250
3347.14828 1.99103
3345.09984 1.98594
3343.05140 1.97796
3341.00296 1.97105
3338.95452 1.96745
3336.90609 1.96583
3334.85765 1.96430
3332.80921 1.96234
3330.76077 1.96031
3328.71233 1.95919
3326.66389 1.95795
3324.61545 1.95488
3322.56702 1.94991
3320.51858 1.94374
3318.47014 1.93749
3316.42170 1.93229
3314.37326 1.92922
3312.32482 1.92717
3310.27639 1.92535
3308.22795 1.92525
3306.17951 1.92629
3304.13107 1.92575
3302.08263 1.92260
3300.03419 1.91872
3297.98576 1.91609
3295.93732 1.91535
3293.88888 1.91701
3291.84044 1.92100
3289.79200 1.92525
3287.74356 1.92705
3285.69513 1.92722
3283.64669 1.92868
3281.59825 1.92830
3279.54981 1.92143
3277.50137 1.90963
3275.45293 1.89601
3273.40450 1.88382
3271.35606 1.87597
3269.30762 1.87227
3267.25918 1.86960
3265.21074 1.86557
3263.16230 1.86023
3261.11387 1.85401
3259.06543 1.84777
3257.01699 1.84225
3254.96855 1.83741
3252.92011 1.83399
3250.87167 1.83275
3248.82324 1.83314
3246.77480 1.83427
3244.72636 1.83297
3242.67792 1.82691
3240.62948 1.81826
3238.58104 1.80942
3236.53261 1.80282
3234.48417 1.79886
3232.43573 1.79514
3230.38729 1.79123
3228.33885 1.78823
3226.29041 1.78583
3224.24198 1.78286
3222.19354 1.77996
3220.14510 1.77827
3218.09666 1.77654
3216.04822 1.77413
3213.99978 1.77268
3211.95135 1.77130
3209.90291 1.76880
3207.85447 1.76708
3205.80603 1.76682
3203.75759 1.76684
3201.70915 1.76710
3199.66072 1.76898
3197.61228 1.77203
3195.56384 1.77437
3193.51540 1.77617
3191.46696 1.77640
3189.41852 1.77412
3187.37008 1.77227
3185.32165 1.77263
3183.27321 1.77333
3181.22477 1.77140
3179.17633 1.76670
3177.12789 1.76163
3175.07945 1.75617
3173.03102 1.74966
3170.98258 1.74384
3168.93414 1.73934
3166.88570 1.73527
3164.83726 1.73206
3162.78882 1.73010
3160.74039 1.72916
3158.69195 1.72932
3156.64351 1.73023
3154.59507 1.73173
3152.54663 1.73360
3150.49819 1.73545
3148.44976 1.73778
3146.40132 1.74011
3144.35288 1.74137
3142.30444 1.74144
3140.25600 1.73982
3138.20756 1.73718
3136.15913 1.73581
3134.11069 1.73539
3132.06225 1.73430
3130.01381 1.73362
3127.96537 1.73415
3125.91693 1.73469
3123.86850 1.73486
3121.82006 1.73491
3119.77162 1.73522
3117.72318 1.73647
3115.67474 1.73760
3113.62630 1.73740
3111.57787 1.73657
3109.52943 1.73590
3107.48099 1.73523
3105.43255 1.73467
3103.38411 1.73424
3101.33567 1.73284
3099.28724 1.73123
3097.23880 1.73083
3095.19036 1.73086
3093.14192 1.73169
3091.09348 1.73306
3089.04504 1.73299
3086.99661 1.73272
3084.94817 1.73368
3082.89973 1.73460
3080.85129 1.73577
3078.80285 1.73773
3076.75441 1.73922
3074.70598 1.74045
3072.65754 1.74186
3070.60910 1.74253
3068.56066 1.74354
3066.51222 1.74636
3064.46378 1.74936
3062.41535 1.75160
3060.36691 1.75394
3058.31847 1.75669
3056.27003 1.75928
3054.22159 1.76132
3052.17315 1.76430
3050.12471 1.76852
3048.07628 1.77245
3046.02784 1.77648
3043.97940 1.78136
3041.93096 1.78656
3039.88252 1.79230
3037.83408 1.80020
3035.78565 1.81054
3033.73721 1.82044
3031.68877 1.82742
3029.64033 1.83239
3027.59189 1.83789
3025.54345 1.84467
3023.49502 1.85147
3021.44658 1.85810
3019.39814 1.86538
3017.34970 1.87268
3015.30126 1.87906
3013.25282 1.88523
3011.20439 1.89248
3009.15595 1.90133
3007.10751 1.91058
3005.05907 1.91923
3003.01063 1.92762
3000.96219 1.93627
2998.91376 1.94560
2996.86532 1.95446
2994.81688 1.96112
2992.76844 1.96580
2990.72000 1.96981
2988.67156 1.97363
2986.62313 1.97864
2984.57469 1.98577
2982.52625 1.99301
2980.47781 1.99912
2978.42937 2.00409
2976.38093 2.00720
2974.33250 2.00882
2972.28406 2.01019
2970.23562 2.01111
2968.18718 2.01049
2966.13874 2.00918
2964.09030 2.01030
2962.04187 2.01397
2959.99343 2.01687
2957.94499 2.01791
2955.89655 2.01801
2953.84811 2.01745
2951.79967 2.01681
2949.75124 2.01839
2947.70280 2.02228
2945.65436 2.02462
2943.60592 2.02470
2941.55748 2.02435
2939.50904 2.02450
2937.46061 2.02665
2935.41217 2.02909
2933.36373 2.02875
2931.31529 2.02789
2929.26685 2.02873
2927.21841 2.02952
2925.16998 2.02932
2923.12154 2.02942
2921.07310 2.03095
2919.02466 2.03309
2916.97622 2.03413
2914.92778 2.03527
2912.87934 2.03808
2910.83091 2.04052
2908.78247 2.04243
2906.73403 2.04626
2904.68559 2.05019
2902.63715 2.05000
2900.58871 2.04624
2898.54028 2.04375
2896.49184 2.04476
2894.44340 2.04757
2892.39496 2.04982
2890.34652 2.04938
2888.29808 2.04788
2886.24965 2.04762
2884.20121 2.04719
2882.15277 2.04613
2880.10433 2.04393
2878.05589 2.03943
2876.00745 2.03417
2873.95902 2.02955
2871.91058 2.02487
2869.86214 2.01902
2867.81370 2.01114
2865.76526 2.00188
2863.71682 1.99368
2861.66839 1.98729
2859.61995 1.98235
2857.57151 1.97907
2855.52307 1.97773
2853.47463 1.97734
2851.42619 1.97523
2849.37776 1.97254
2847.32932 1.97180
2845.28088 1.97141
2843.23244 1.97085
2841.18400 1.97170
2839.13556 1.97422
2837.08713 1.97606
2835.03869 1.97519
2832.99025 1.97315
2830.94181 1.97019
2828.89337 1.96452
2826.84493 1.95539
2824.79650 1.94335
2822.74806 1.92934
2820.69962 1.91297
2818.65118 1.89575
2816.60274 1.87940
2814.55430 1.86265
2812.50587 1.84659
2810.45743 1.83336
2808.40899 1.82205
2806.36055 1.81104
2804.31211 1.80082
2802.26367 1.79299
2800.21524 1.78696
2798.16680 1.78140
2796.11836 1.77664
2794.06992 1.77258
2792.02148 1.76798
2789.97304 1.76327
2787.92461 1.75915
2785.87617 1.75447
2783.82773 1.74951
2781.77929 1.74580
2779.73085 1.74287
2777.68241 1.73989
2775.63397 1.73795
2773.58554 1.73764
2771.53710 1.73792
2769.48866 1.73760
2767.44022 1.73627
2765.39178 1.73494
2763.34334 1.73455
2761.29491 1.73504
2759.24647 1.73619
2757.19803 1.73782
2755.14959 1.73868
2753.10115 1.73730
2751.05271 1.73533
2749.00428 1.73488
2746.95584 1.73525
2744.90740 1.73554
2742.85896 1.73577
2740.81052 1.73599
2738.76208 1.73597
2736.71365 1.73604
2734.66521 1.73667
2732.61677 1.73740
2730.56833 1.73766
2728.51989 1.73754
2726.47145 1.73760
2724.42302 1.73815
2722.37458 1.73887
2720.32614 1.73950
2718.27770 1.73969
2716.22926 1.73909
2714.18082 1.73862
2712.13239 1.73934
2710.08395 1.74102
2708.03551 1.74299
2705.98707 1.74475
2703.93863 1.74634
2701.89019 1.74774
2699.84176 1.74954
2697.79332 1.75215
2695.74488 1.75436
2693.69644 1.75655
2691.64800 1.76034
2689.59956 1.76483
2687.55113 1.76830
2685.50269 1.77187
2683.45425 1.77733
2681.40581 1.78483
2679.35737 1.79373
2677.30893 1.80254
2675.26050 1.81133
2673.21206 1.82266
2671.16362 1.83617
2669.11518 1.84794
2667.06674 1.85708
2665.01830 1.86621
2662.96987 1.87498
2660.92143 1.88145
2658.87299 1.88760
2656.82455 1.89537
2654.77611 1.90311
2652.72767 1.90925
2650.67924 1.91496
2648.63080 1.92058
2646.58236 1.92507
2644.53392 1.92937
2642.48548 1.93455
2640.43704 1.94076
2638.38860 1.94689
2636.34017 1.95150
2634.29173 1.95619
2632.24329 1.96220
2630.19485 1.96782
2628.14641 1.97189
2626.09797 1.97601
2624.04954 1.98114
2622.00110 1.98626
2619.95266 1.99281
2617.90422 2.00182
2615.85578 2.00983
2613.80734 2.01494
2611.75891 2.01851
2609.71047 2.02213
2607.66203 2.02698
2605.61359 2.03192
2603.56515 2.03587
2601.51671 2.04035
2599.46828 2.04487
2597.41984 2.04691
2595.37140 2.04710
2593.32296 2.04709
2591.27452 2.04607
2589.22608 2.04354
2587.17765 2.04052
2585.12921 2.03788
2583.08077 2.03576
2581.03233 2.03352
2578.98389 2.03130
2576.93545 2.03079
2574.88702 2.03263
2572.83858 2.03577
2570.79014 2.03980
2568.74170 2.04371
2566.69326 2.04592
2564.64482 2.04739
2562.59639 2.04857
2560.54795 2.04918
2558.49951 2.05042
2556.45107 2.05282
2554.40263 2.05545
2552.35419 2.05725
2550.30576 2.05899
2548.25732 2.06102
2546.20888 2.06174
2544.16044 2.06198
2542.11200 2.06271
2540.06356 2.06297
2538.01513 2.06472
2535.96669 2.06833
2533.91825 2.07088
2531.86981 2.07113
2529.82137 2.06962
2527.77293 2.06869
2525.72450 2.06948
2523.67606 2.07094
2521.62762 2.07327
2519.57918 2.07623
2517.53074 2.07816
2515.48230 2.07857
2513.43387 2.07813
2511.38543 2.07715
2509.33699 2.07574
2507.28855 2.07488
2505.24011 2.07573
2503.19167 2.07635
2501.14324 2.07441
2499.09480 2.07113
2497.04636 2.06868
2494.99792 2.06816
2492.94948 2.06850
2490.90104 2.06799
2488.85260 2.06724
2486.80417 2.06591
2484.75573 2.06240
2482.70729 2.05649
2480.65885 2.04977
2478.61041 2.04501
2476.56197 2.04111
2474.51354 2.03528
2472.46510 2.02840
2470.41666 2.02133
2468.36822 2.01258
2466.31978 2.00101
2464.27134 1.98890
2462.22291 1.97813
2460.17447 1.96651
2458.12603 1.95207
2456.07759 1.93680
2454.02915 1.92317
2451.98071 1.91048
2449.93228 1.89858
2447.88384 1.88906
2445.83540 1.88161
2443.78696 1.87476
2441.73852 1.86801
2439.69008 1.86194
2437.64165 1.85746
2435.59321 1.85447
2433.54477 1.85149
2431.49633 1.84766
2429.44789 1.84317
2427.39945 1.83844
2425.35102 1.83490
2423.30258 1.83293
2421.25414 1.83137
2419.20570 1.82959
2417.15726 1.82660
2415.10882 1.82253
2413.06039 1.81918
2411.01195 1.81687
2408.96351 1.81536
2406.91507 1.81358
2404.86663 1.81008
2402.81819 1.80702
2400.76976 1.80643
2398.72132 1.80637
2396.67288 1.80490
2394.62444 1.80271
2392.57600 1.80160
2390.52756 1.80154
2388.47913 1.80147
2386.43069 1.80181
2384.38225 1.80244
2382.33381 1.80257
2380.28537 1.80239
2378.23693 1.80225
2376.18850 1.80345
2374.14006 1.80782
2372.09162 1.81309
2370.04318 1.81653
2367.99474 1.81879
2365.94630 1.81873
2363.89787 1.81794
2361.84943 1.82024
2359.80099 1.82291
2357.75255 1.82040
2355.70411 1.81449
2353.65567 1.81044
2351.60723 1.80880
2349.55880 1.80919
2347.51036 1.81163
2345.46192 1.81517
2343.41348 1.81678
2341.36504 1.81459
2339.31660 1.81224
2337.26817 1.81373
2335.21973 1.81731
2333.17129 1.81943
2331.12285 1.81743
2329.07441 1.81372
2327.02597 1.81439
2324.97754 1.81844
2322.92910 1.82138
2320.88066 1.82231
2318.83222 1.82401
2316.78378 1.82700
2314.73534 1.82807
2312.68691 1.82745
2310.63847 1.82795
2308.59003 1.82842
2306.54159 1.82694
2304.49315 1.82625
2302.44471 1.82923
2300.39628 1.83350
2298.34784 1.83639
2296.29940 1.83924
2294.25096 1.84235
2292.20252 1.84455
2290.15408 1.84679
2288.10565 1.84953
2286.05721 1.85174
2284.00877 1.85317
2281.96033 1.85412
2279.91189 1.85491
2277.86345 1.85585
2275.81502 1.85760
2273.76658 1.86061
2271.71814 1.86400
2269.66970 1.86730
2267.62126 1.87045
2265.57282 1.87272
2263.52439 1.87395
2261.47595 1.87480
2259.42751 1.87534
2257.37907 1.87458
2255.33063 1.87250
2253.28219 1.87059
2251.23376 1.86867
2249.18532 1.86600
2247.13688 1.86412
2245.08844 1.86373
2243.04000 1.86308
2240.99156 1.86200
2238.94313 1.86264
2236.89469 1.86525
2234.84625 1.86756
2232.79781 1.86844
2230.74937 1.86847
2228.70093 1.86866
2226.65250 1.86926
2224.60406 1.86940
2222.55562 1.86906
2220.50718 1.86902
2218.45874 1.87061
2216.41030 1.87453
2214.36186 1.87849
2212.31343 1.88080
2210.26499 1.88334
2208.21655 1.88757
2206.16811 1.89153
2204.11967 1.89166
2202.07123 1.88837
2200.02280 1.88646
2197.97436 1.88688
2195.92592 1.88596
2193.87748 1.88275
2191.82904 1.88005
2189.78060 1.87930
2187.73217 1.87877
2185.68373 1.87786
2183.63529 1.87802
2181.58685 1.87885
2179.53841 1.87918
2177.48997 1.87905
2175.44154 1.87904
2173.39310 1.87951
2171.34466 1.87899
2169.29622 1.87610
2167.24778 1.87272
2165.19934 1.87109
2163.15091 1.87061
2161.10247 1.86922
2159.05403 1.86625
2157.00559 1.86408
2154.95715 1.86402
2152.90871 1.86338
2150.86028 1.86069
2148.81184 1.85717
2146.76340 1.85326
2144.71496 1.84899
2142.66652 1.84590
2140.61808 1.84405
2138.56965 1.84123
2136.52121 1.83792
2134.47277 1.83585
2132.42433 1.83469
2130.37589 1.83309
2128.32745 1.83122
2126.27902 1.83043
2124.23058 1.82996
2122.18214 1.82988
2120.13370 1.83060
2118.08526 1.83032
2116.03682 1.82863
2113.98839 1.82787
2111.93995 1.82945
2109.89151 1.83122
2107.84307 1.83168
2105.79463 1.83236
2103.74619 1.83364
2101.69776 1.83396
2099.64932 1.83333
2097.60088 1.83336
2095.55244 1.83448
2093.50400 1.83556
2091.45556 1.83589
2089.40713 1.83629
2087.35869 1.83758
2085.31025 1.83941
2083.26181 1.84110
2081.21337 1.84293
2079.16493 1.84537
2077.11649 1.84765
2075.06806 1.84919
2073.01962 1.85052
2070.97118 1.85168
2068.92274 1.85348
2066.87430 1.85752
2064.82586 1.86217
2062.77743 1.86561
2060.72899 1.86857
2058.68055 1.87195
2056.63211 1.87608
2054.58367 1.88007
2052.53523 1.88301
2050.48680 1.88589
2048.43836 1.88951
2046.38992 1.89270
2044.34148 1.89469
2042.29304 1.89582
2040.24460 1.89627
2038.19617 1.89550
2036.14773 1.89310
2034.09929 1.89123
2032.05085 1.89115
2030.00241 1.89138
2027.95397 1.89205
2025.90554 1.89351
2023.85710 1.89459
2021.80866 1.89498
2019.76022 1.89589
2017.71178 1.89763
2015.66334 1.89889
2013.61491 1.90050
2011.56647 1.90381
2009.51803 1.90754
2007.46959 1.91033
2005.42115 1.91312
2003.37271 1.91714
2001.32428 1.92169
1999.27584 1.92540
1997.22740 1.92838
1995.17896 1.93284
1993.13052 1.93900
1991.08208 1.94401
1989.03365 1.94660
1986.98521 1.94859
1984.93677 1.95205
1982.88833 1.95702
1980.83989 1.96183
1978.79145 1.96592
1976.74302 1.96974
1974.69458 1.97373
1972.64614 1.97875
1970.59770 1.98500
1968.54926 1.99321
1966.50082 2.00309
1964.45239 2.01115
1962.40395 2.01675
1960.35551 2.02234
1958.30707 2.02923
1956.25863 2.03798
1954.21019 2.04809
1952.16176 2.05711
1950.11332 2.06452
1948.06488 2.07150
1946.01644 2.07916
1943.96800 2.08759
1941.91956 2.09386
1939.87112 2.09733
1937.82269 2.10115
1935.77425 2.10520
1933.72581 2.10798
1931.67737 2.10950
1929.62893 2.11029
1927.58049 2.11258
1925.53206 2.11751
1923.48362 2.12272
1921.43518 2.12751
1919.38674 2.13533
1917.33830 2.14612
1915.28986 2.15506
1913.24143 2.16107
1911.19299 2.16523
1909.14455 2.16861
1907.09611 2.17044
1905.04767 2.17030
1902.99923 2.17173
1900.95080 2.17444
1898.90236 2.17642
1896.85392 2.17890
1894.80548 2.18230
1892.75704 2.18590
1890.70860 2.18839
1888.66017 2.18913
1886.61173 2.19061
1884.56329 2.19433
1882.51485 2.19833
1880.46641 2.20007
1878.41797 2.19959
1876.36954 2.19899
1874.32110 2.19847
1872.27266 2.19916
1870.22422 2.20344
1868.17578 2.20679
1866.12734 2.20423
1864.07891 2.20175
1862.03047 2.20095
1859.98203 2.19938
1857.93359 2.19936
1855.88515 2.20145
1853.83671 2.20247
1851.78828 2.20313
1849.73984 2.20450
1847.69140 2.20528
1845.64296 2.20492
1843.59452 2.20348
1841.54608 2.20265
1839.49765 2.20466
1837.44921 2.20721
1835.40077 2.20753
1833.35233 2.20823
1831.30389 2.21066
1829.25545 2.21431
1827.20702 2.21891
1825.15858 2.22013
1823.11014 2.21587
1821.06170 2.21239
1819.01326 2.21226
1816.96482 2.21324
1814.91639 2.21372
1812.86795 2.21351
1810.81951 2.21226
1808.77107 2.21079
1806.72263 2.21144
1804.67419 2.21447
1802.62575 2.21784
1800.57732 2.22000
1798.52888 2.22189
1796.48044 2.22422
1794.43200 2.22759
1792.38356 2.23291
1790.33512 2.23472
1788.28669 2.23148
1786.23825 2.22808
1784.18981 2.22708
1782.14137 2.22904
1780.09293 2.23239
1778.04449 2.23423
1775.99606 2.23376
1773.94762 2.23369
1771.89918 2.23563
1769.85074 2.23505
1767.80230 2.23435
1765.75386 2.23491
1763.70543 2.23405
1761.65699 2.23310
1759.60855 2.23255
1757.56011 2.23186
1755.51167 2.23286
1753.46323 2.23610
1751.41480 2.24197
1749.36636 2.24494
1747.31792 2.24273
1745.26948 2.24574
1743.22104 2.25194
1741.17260 2.25361
1739.12417 2.25236
1737.07573 2.25441
1735.02729 2.26174
1732.97885 2.26776
1730.93041 2.26593
1728.88197 2.26509
1726.83354 2.26834
1724.78510 2.27251
1722.73666 2.27493
1720.68822 2.27852
1718.63978 2.28695
1716.59134 2.29723
1714.54291 2.30238
1712.49447 2.30584
1710.44603 2.30932
1708.39759 2.31472
1706.34915 2.32409
1704.30071 2.33311
1702.25228 2.34057
1700.20384 2.35141
1698.15540 2.35609
1696.10696 2.34909
1694.05852 2.34243
1692.01008 2.34282
1689.96165 2.34701
1687.91321 2.35131
1685.86477 2.35966
1683.81633 2.37828
1681.76789 2.38688
1679.71945 2.38541
1677.67102 2.38786
1675.62258 2.39709
1673.57414 2.40162
1671.52570 2.40123
1669.47726 2.40722
1667.42882 2.41037
1665.38038 2.41001
1663.33195 2.41639
1661.28351 2.42630
1659.23507 2.43394
1657.18663 2.44241
1655.13819 2.45526
1653.08975 2.46740
1651.04132 2.46822
1648.99288 2.47751
1646.94444 2.49397
1644.89600 2.49476
1642.84756 2.48917
1640.79912 2.49054
1638.75069 2.49571
1636.70225 2.50677
1634.65381 2.52475
1632.60537 2.53359
1630.55693 2.53523
1628.50849 2.53515
1626.46006 2.53712
1624.41162 2.54800
1622.36318 2.57177
1620.31474 2.59103
1618.26630 2.60642
1616.21786 2.62022
1614.16943 2.61996
1612.12099 2.61435
1610.07255 2.61456
1608.02411 2.62051
1605.97567 2.62870
1603.92723 2.63649
1601.87880 2.63958
1599.83036 2.63467
1597.78192 2.62411
1595.73348 2.60716
1593.68504 2.57483
1591.63660 2.52848
1589.58817 2.46443
1587.53973 2.38189
1585.49129 2.27950
1583.44285 2.15161
1581.39441 2.00991
1579.34597 1.88096
1577.29754 1.73963
1575.24910 1.59513
1573.20066 1.52641
1571.15222 1.49287
1569.10378 1.46099
1567.05534 1.43959
1565.00691 1.43053
1562.95847 1.42766
1560.91003 1.43122
1558.86159 1.45328
1556.81315 1.48382
1554.76471 1.51578
1552.71628 1.56582
1550.66784 1.63892
1548.61940 1.72698
1546.57096 1.80220
1544.52252 1.87328
1542.47408 1.95602
1540.42565 2.05144
1538.37721 2.12247
1536.32877 2.15303
1534.28033 2.19249
1532.23189 2.25285
1530.18345 2.29824
1528.13501 2.34128
1526.08658 2.39549
1524.03814 2.44573
1521.98970 2.49954
1519.94126 2.55886
1517.89282 2.60261
1515.84438 2.64581
1513.79595 2.68926
1511.74751 2.72894
1509.69907 2.78220
1507.65063 2.84575
1505.60219 2.94103
1503.55375 2.95630
1501.50532 2.94788
1499.45688 2.93348
1497.40844 2.88611
1495.36000 2.78475
1493.31156 2.68646
1491.26312 2.55717
1489.21469 2.33489
1487.16625 2.10135
1485.11781 1.91095
1483.06937 1.73630
1481.02093 1.57482
1478.97249 1.45948
1476.92406 1.38402
1474.87562 1.32157
1472.82718 1.24610
1470.77874 1.18173
1468.73030 1.15238
1466.68186 1.14252
1464.63343 1.15224
1462.58499 1.17554
1460.53655 1.19962
1458.48811 1.22708
1456.43967 1.25059
1454.39123 1.25277
1452.34280 1.25119
1450.29436 1.25031
1448.24592 1.24647
1446.19748 1.23338
1444.14904 1.20858
1442.10060 1.17254
1440.05217 1.13500
1438.00373 1.10208
1435.95529 1.07152
1433.90685 1.05270
1431.85841 1.04296
1429.80997 1.03541
1427.76154 1.02961
1425.71310 1.02712
1423.66466 1.02710
1421.61622 1.02923
1419.56778 1.03767
1417.51934 1.05471
1415.47091 1.07500
1413.42247 1.10249
1411.37403 1.14201
1409.32559 1.18940
1407.27715 1.23807
1405.22871 1.28907
1403.18028 1.33455
1401.13184 1.36898
1399.08340 1.40205
1397.03496 1.43269
1394.98652 1.45806
1392.93808 1.47943
1390.88965 1.49628
1388.84121 1.51234
1386.79277 1.52581
1384.74433 1.53178
1382.69589 1.53751
1380.64745 1.54793
1378.59901 1.56151
1376.55058 1.57567
1374.50214 1.59051
1372.45370 1.60316
1370.40526 1.61332
1368.35682 1.62423
1366.30838 1.63496
1364.25995 1.64624
1362.21151 1.65837
1360.16307 1.66764
1358.11463 1.67507
1356.06619 1.68439
1354.01775 1.69368
1351.96932 1.70074
1349.92088 1.70715
1347.87244 1.71446
1345.82400 1.72205
1343.77556 1.72904
1341.72712 1.73693
1339.67869 1.74618
1337.63025 1.75336
1335.58181 1.75754
1333.53337 1.76219
1331.48493 1.76750
1329.43649 1.77247
1327.38806 1.77637
1325.33962 1.78038
1323.29118 1.78574
1321.24274 1.79195
1319.19430 1.79846
1317.14586 1.80394
1315.09743 1.80807
1313.04899 1.81126
1311.00055 1.81453
1308.95211 1.81837
1306.90367 1.82301
1304.85523 1.82691
1302.80680 1.82997
1300.75836 1.83374
1298.70992 1.83795
1296.66148 1.84166
1294.61304 1.84476
1292.56460 1.84808
1290.51617 1.85225
1288.46773 1.85710
1286.41929 1.86062
1284.37085 1.86311
1282.32241 1.86624
1280.27397 1.87018
1278.22554 1.87384
1276.17710 1.87596
1274.12866 1.87786
1272.08022 1.88216
1270.03178 1.88759
1267.98334 1.89147
1265.93491 1.89456
1263.88647 1.89727
1261.83803 1.89959
1259.78959 1.90171
1257.74115 1.90415
1255.69271 1.90648
1253.64428 1.90754
1251.59584 1.90823
1249.54740 1.91026
1247.49896 1.91389
1245.45052 1.91811
1243.40208 1.92105
1241.35364 1.92287
1239.30521 1.92590
1237.25677 1.92915
1235.20833 1.93074
1233.15989 1.93151
1231.11145 1.93356
1229.06301 1.93701
1227.01458 1.94024
1224.96614 1.94327
1222.91770 1.94606
1220.86926 1.94689
1218.82082 1.94674
1216.77238 1.94853
1214.72395 1.95084
1212.67551 1.95176
1210.62707 1.95153
1208.57863 1.95178
1206.53019 1.95439
1204.48175 1.95788
1202.43332 1.96037
1200.38488 1.96250
1198.33644 1.96478
1196.28800 1.96724
1194.23956 1.96929
1192.19112 1.97086
1190.14269 1.97315
1188.09425 1.97528
1186.04581 1.97692
1183.99737 1.97894
1181.94893 1.98077
1179.90049 1.98200
1177.85206 1.98347
1175.80362 1.98607
1173.75518 1.98883
1171.70674 1.99097
1169.65830 1.99186
1167.60986 1.99138
1165.56143 1.99180
1163.51299 1.99375
1161.46455 1.99662
1159.41611 2.00032
1157.36767 2.00258
1155.31923 2.00276
1153.27080 2.00314
1151.22236 2.00445
1149.17392 2.00779
1147.12548 2.01299
1145.07704 2.01618
1143.02860 2.01648
1140.98017 2.01752
1138.93173 2.02115
1136.88329 2.02595
1134.83485 2.02904
1132.78641 2.02878
1130.73797 2.02807
1128.68954 2.03031
1126.64110 2.03448
1124.59266 2.03818
1122.54422 2.04146
1120.49578 2.04478
1118.44734 2.04781
1116.39891 2.05147
1114.35047 2.05647
1112.30203 2.06146
1110.25359 2.06561
1108.20515 2.06902
1106.15671 2.07263
1104.10827 2.07846
1102.05984 2.08618
1100.01140 2.09301
1097.96296 2.09562
1095.91452 2.09299
1093.86608 2.08751
1091.81764 2.08090
1089.76921 2.07552
1087.72077 2.07476
1085.67233 2.07896
1083.62389 2.08526
1081.57545 2.09135
1079.52701 2.09578
1077.47858 2.09869
1075.43014 2.10247
1073.38170 2.10779
1071.33326 2.11371
1069.28482 2.11845
1067.23638 2.12068
1065.18795 2.12114
1063.13951 2.12211
1061.09107 2.12539
1059.04263 2.13014
1056.99419 2.13455
1054.94575 2.13801
1052.89732 2.14049
1050.84888 2.14418
1048.80044 2.15113
1046.75200 2.15758
1044.70356 2.16140
1042.65512 2.16587
1040.60669 2.17113
1038.55825 2.17576
1036.50981 2.17939
1034.46137 2.18236
1032.41293 2.18860
1030.36449 2.19799
1028.31606 2.20683
1026.26762 2.21617
1024.21918 2.22540
1022.17074 2.23172
1020.12230 2.23672
1018.07386 2.24390
1016.02543 2.25261
1013.97699 2.26003
1011.92855 2.26600
1009.88011 2.27223
1007.83167 2.28107
1005.78323 2.29414
1003.73480 2.30744
1001.68636 2.31624
999.63792 2.32075
997.58948 2.32447
995.54104 2.33254
993.49260 2.34183
991.44417 2.34326
989.39573 2.33336
987.34729 2.31066
985.29885 2.27022
983.25041 2.21167
981.20197 2.13765
979.15354 2.05128
977.10510 1.96552
975.05666 1.89327
973.00822 1.83671
970.95978 1.79154
968.91134 1.75319
966.86290 1.71845
964.81447 1.68457
962.76603 1.65037
960.71759 1.61708
958.66915 1.58710
956.62071 1.56224
954.57227 1.54493
952.52384 1.53933
950.47540 1.54820
948.42696 1.57138
946.37852 1.60661
944.33008 1.64848
942.28164 1.69024
940.23321 1.72812
938.18477 1.76053
936.13633 1.78715
934.08789 1.81134
932.03945 1.83621
929.99101 1.86051
927.94258 1.88236
925.89414 1.90251
923.84570 1.92231
921.79726 1.94196
919.74882 1.96099
917.70038 1.97883
915.65195 1.99509
913.60351 2.00975
911.55507 2.02413
909.50663 2.04036
907.45819 2.05777
905.40975 2.07204
903.36132 2.08183
901.31288 2.09206
899.26444 2.10736
897.21600 2.12522
895.16756 2.14043
893.11912 2.15489
891.07069 2.17235
889.02225 2.19163
886.97381 2.21022
884.92537 2.22638
882.87693 2.24182
880.82849 2.25809
878.78006 2.27261
876.73162 2.28898
874.68318 2.31061
872.63474 2.32745
870.58630 2.32484
868.53786 2.29258
866.48943 2.22669
864.44099 2.12937
862.39255 2.01106
860.34411 1.89021
858.29567 1.78384
856.24723 1.70094
854.19880 1.64109
852.15036 1.59827
850.10192 1.56827
848.05348 1.54706
846.00504 1.52628
843.95660 1.49935
841.90817 1.47163
839.85973 1.45727
837.81129 1.46323
835.76285 1.48489
833.71441 1.51523
831.66597 1.54820
829.61753 1.58138
827.56910 1.61944
825.52066 1.66056
823.47222 1.69031
821.42378 1.70013
819.37534 1.69072
817.32690 1.66840
815.27847 1.65172
813.23003 1.65749
811.18159 1.68342
809.13315 1.71554
807.08471 1.74505
805.03627 1.77014
802.98784 1.78935
800.93940 1.80195
798.89096 1.81050
796.84252 1.81810
794.79408 1.82919
792.74564 1.84563
790.69721 1.86073
788.64877 1.87157
786.60033 1.88254
784.55189 1.89543
782.50345 1.91109
780.45501 1.92794
778.40658 1.94061
776.35814 1.94746
774.30970 1.94468
772.26126 1.92645
770.21282 1.90089
768.16438 1.88274
766.11595 1.87967
764.06751 1.88933
762.01907 1.90146
759.97063 1.91119
757.92219 1.92297
755.87375 1.93577
753.82532 1.94276
751.77688 1.94576
749.72844 1.95178
747.68000 1.96039
745.63156 1.96762
743.58312 1.97252
741.53469 1.97012
739.48625 1.95988
737.43781 1.95454
735.38937 1.95796
733.34093 1.96117
731.29249 1.96171
729.24406 1.96396
727.19562 1.96804
725.14718 1.97279
723.09874 1.97821
721.05030 1.98577
719.00186 1.99998
716.95343 2.01352
714.90499 2.01621
712.85655 2.01439
710.80811 2.01389
708.75967 2.01470
706.71123 2.01617
704.66280 2.01395
702.61436 2.00948
700.56592 2.01184
698.51748 2.02235
696.46904 2.03101
694.42060 2.02986
692.37216 2.02285
690.32373 2.02003
688.27529 2.02348
686.22685 2.03279
684.17841 2.05193
682.12997 2.06983
680.08153 2.06815
678.03310 2.05595
675.98466 2.05242
673.93622 2.05929
671.88778 2.07074
669.83934 2.08332
667.79090 2.08704
665.74247 2.07586
663.69403 2.06471
661.64559 2.06395
659.59715 2.07013
657.54871 2.06457
655.50027 2.05808
653.45184 2.06956
651.40340 2.08607
649.35496 2.08606
647.30652 2.08003
645.25808 2.08871
643.20964 2.09890
641.16121 2.09888
639.11277 2.09538
637.06433 2.09965
635.01589 2.12982
632.96745 2.16882
630.91901 2.16871
628.87058 2.16325
626.82214 2.19483
624.77370 2.21630
622.72526 2.20399
620.67682 2.16919
618.62838 2.14882
616.57995 2.18009
614.53151 2.20566
612.48307 2.18428
610.43463 2.16057
608.38619 2.14692
606.33775 2.10249
604.28932 2.04376
602.24088 2.03404
600.19244 2.10293
598.14400 2.19345
