3996.50324 1.95918
3994.45480 1.96528
3992.40636 1.97023
3990.35792 1.97712
3988.30948 1.98672
3986.26104 1.99760
3984.21261 2.01313
3982.16417 2.03392
3980.11573 2.05710
3978.06729 2.08167
3976.01885 2.10801
3973.97041 2.13389
3971.92198 2.15410
3969.87354 2.16786
3967.82510 2.17194
3965.77666 2.15942
3963.72822 2.13538
3961.67978 2.11237
3959.63135 2.09338
3957.58291 2.07637
3955.53447 2.06091
3953.48603 2.04384
3951.43759 2.02720
3949.38915 2.02089
3947.34072 2.02476
3945.29228 2.02077
3943.24384 2.01684
3941.19540 2.02822
3939.14696 2.03347
3937.09852 2.02798
3935.05009 2.02460
3933.00165 2.03322
3930.95321 2.06174
3928.90477 2.08828
3926.85633 2.09818
3924.80789 2.11564
3922.75946 2.14710
3920.71102 2.16666
3918.66258 2.18461
3916.61414 2.21204
3914.56570 2.21834
3912.51726 2.19913
3910.46883 2.17587
3908.42039 2.15198
3906.37195 2.12749
3904.32351 2.13099
3902.27507 2.17972
3900.22663 2.23753
3898.17820 2.27914
3896.12976 2.29417
3894.08132 2.29397
3892.03288 2.31371
3889.98444 2.35944
3887.93600 2.38441
3885.88756 2.40064
3883.83913 2.42854
3881.79069 2.44587
3879.74225 2.46322
3877.69381 2.46939
3875.64537 2.45928
3873.59693 2.45684
3871.54850 2.44925
3869.50006 2.41837
3867.45162 2.38018
3865.40318 2.34066
3863.35474 2.30935
3861.30630 2.28855
3859.25787 2.26330
3857.20943 2.23283
3855.16099 2.21276
3853.11255 2.26366
3851.06411 2.33685
3849.01567 2.33998
3846.96724 2.32364
3844.91880 2.31106
3842.87036 2.30581
3840.82192 2.30596
3838.77348 2.31199
3836.72504 2.32947
3834.67661 2.34112
3832.62817 2.34418
3830.57973 2.34749
3828.53129 2.34169
3826.48285 2.32675
3824.43441 2.30162
3822.38598 2.27365
3820.33754 2.27897
3818.28910 2.27081
3816.24066 2.23598
3814.19222 2.21474
3812.14378 2.18190
3810.09535 2.13426
3808.04691 2.10227
3805.99847 2.10542
3803.95003 2.09882
3801.90159 2.09433
3799.85315 2.12642
3797.80472 2.13028
3795.75628 2.12213
3793.70784 2.11468
3791.65940 2.09298
3789.61096 2.07032
3787.56252 2.05344
3785.51409 2.04630
3783.46565 2.04410
3781.41721 2.02995
3779.36877 2.02627
3777.32033 2.03959
3775.27189 2.03315
3773.22346 2.00992
3771.17502 1.99488
3769.12658 2.00674
3767.07814 2.02084
3765.02970 2.02552
3762.98126 2.02177
3760.93283 2.00308
3758.88439 2.00504
3756.83595 2.02493
3754.78751 2.01329
3752.73907 1.98861
3750.69063 2.02723
3748.64219 2.09543
3746.59376 2.08885
3744.54532 2.09979
3742.49688 2.15421
3740.44844 2.14901
3738.40000 2.10429
3736.35156 2.08920
3734.30313 2.14005
3732.25469 2.17835
3730.20625 2.16016
3728.15781 2.12290
3726.10937 2.10320
3724.06093 2.10883
3722.01250 2.11719
3719.96406 2.12210
3717.91562 2.12002
3715.86718 2.10638
3713.81874 2.08867
3711.77030 2.10473
3709.72187 2.16191
3707.67343 2.17591
3705.62499 2.14440
3703.57655 2.10105
3701.52811 2.07966
3699.47967 2.07209
3697.43124 2.05145
3695.38280 2.02580
3693.33436 1.99706
3691.28592 1.97900
3689.23748 2.02665
3687.18904 2.10553
3685.14061 2.12347
3683.09217 2.11942
3681.04373 2.12855
3678.99529 2.14566
3676.94685 2.17017
3674.89841 2.25112
3672.84998 2.30712
3670.80154 2.29701
3668.75310 2.31543
3666.70466 2.33330
3664.65622 2.32619
3662.60778 2.32968
3660.55935 2.34713
3658.51091 2.35613
3656.46247 2.35592
3654.41403 2.34617
3652.36559 2.31137
3650.31715 2.28975
3648.26872 2.34584
3646.22028 2.37862
3644.17184 2.36205
3642.12340 2.35271
3640.07496 2.36061
3638.02652 2.36638
3635.97809 2.36848
3633.92965 2.37435
3631.88121 2.37091
3629.83277 2.37189
3627.78433 2.42309
3625.73589 2.45772
3623.68746 2.45690
3621.63902 2.45578
3619.59058 2.47155
3617.54214 2.49281
3615.49370 2.48443
3613.44526 2.47543
3611.39682 2.49288
3609.34839 2.52236
3607.29995 2.55509
3605.25151 2.56646
3603.20307 2.56045
3601.15463 2.57100
3599.10619 2.59548
3597.05776 2.61145
3595.00932 2.62652
3592.96088 2.64854
3590.91244 2.67404
3588.86400 2.70240
3586.81556 2.72514
3584.76713 2.72145
3582.71869 2.71017
3580.67025 2.71132
3578.62181 2.71443
3576.57337 2.70734
3574.52493 2.70511
3572.47650 2.70715
3570.42806 2.70152
3568.37962 2.69642
3566.33118 2.70480
3564.28274 2.72589
3562.23430 2.74474
3560.18587 2.74703
3558.13743 2.73608
3556.08899 2.72572
3554.04055 2.71851
3551.99211 2.71365
3549.94367 2.71162
3547.89524 2.71816
3545.84680 2.73465
3543.79836 2.74486
3541.74992 2.73912
3539.70148 2.72718
3537.65304 2.72441
3535.60461 2.73106
3533.55617 2.73631
3531.50773 2.73497
3529.45929 2.73305
3527.41085 2.74530
3525.36241 2.76878
3523.31398 2.78481
3521.26554 2.78862
3519.21710 2.78531
3517.16866 2.77620
3515.12022 2.76647
3513.07178 2.76038
3511.02335 2.76091
3508.97491 2.76953
3506.92647 2.78084
3504.87803 2.78642
3502.82959 2.78181
3500.78115 2.77358
3498.73272 2.76477
3496.68428 2.75238
3494.63584 2.75050
3492.58740 2.76462
3490.53896 2.76646
3488.49052 2.75007
3486.44209 2.74305
3484.39365 2.75169
3482.34521 2.75654
3480.29677 2.75122
3478.24833 2.74878
3476.19989 2.75545
3474.15146 2.76973
3472.10302 2.77894
3470.05458 2.77836
3468.00614 2.76695
3465.95770 2.74479
3463.90926 2.73675
3461.86082 2.75037
3459.81239 2.76840
3457.76395 2.78507
3455.71551 2.79064
3453.66707 2.78092
3451.61863 2.77747
3449.57019 2.78565
3447.52176 2.78111
3445.47332 2.75999
3443.42488 2.74170
3441.37644 2.71562
3439.32800 2.67135
3437.27956 2.62202
3435.23113 2.58556
3433.18269 2.57438
3431.13425 2.59042
3429.08581 2.62128
3427.03737 2.64200
3424.98893 2.64887
3422.94050 2.66291
3420.89206 2.68364
3418.84362 2.69053
3416.79518 2.69290
3414.74674 2.70890
3412.69830 2.73030
3410.64987 2.74139
3408.60143 2.74075
3406.55299 2.73514
3404.50455 2.72003
3402.45611 2.70363
3400.40767 2.70168
3398.35924 2.70480
3396.31080 2.70415
3394.26236 2.70095
3392.21392 2.69885
3390.16548 2.70677
3388.11704 2.71857
3386.06861 2.71807
3384.02017 2.70987
3381.97173 2.71224
3379.92329 2.72147
3377.87485 2.71850
3375.82641 2.71005
3373.77798 2.71499
3371.72954 2.72870
3369.68110 2.73180
3367.63266 2.72641
3365.58422 2.73204
3363.53578 2.74172
3361.48735 2.73542
3359.43891 2.72714
3357.39047 2.73239
3355.34203 2.73572
3353.29359 2.73105
3351.24515 2.72764
3349.19672 2.72543
3347.14828 2.72338
3345.09984 2.72154
3343.05140 2.71578
3341.00296 2.70501
3338.95452 2.69728
3336.90609 2.70057
3334.85765 2.70982
3332.80921 2.71162
3330.76077 2.71229
3328.71233 2.72301
3326.66389 2.73132
3324.61545 2.72393
3322.56702 2.71355
3320.51858 2.71743
3318.47014 2.73022
3316.42170 2.73531
3314.37326 2.73012
3312.32482 2.72445
3310.27639 2.72191
3308.22795 2.72264
3306.17951 2.72418
3304.13107 2.72520
3302.08263 2.72756
3300.03419 2.72364
3297.98576 2.71756
3295.93732 2.71999
3293.88888 2.72500
3291.84044 2.72964
3289.79200 2.73301
3287.74356 2.73007
3285.69513 2.72250
3283.64669 2.72079
3281.59825 2.72867
3279.54981 2.72359
3277.50137 2.70743
3275.45293 2.70099
3273.40450 2.69366
3271.35606 2.68673
3269.30762 2.68954
3267.25918 2.69190
3265.21074 2.69049
3263.16230 2.69266
3261.11387 2.69686
3259.06543 2.69694
3257.01699 2.68901
3254.96855 2.67691
3252.92011 2.66599
3250.87167 2.65594
3248.82324 2.65488
3246.77480 2.65957
3244.72636 2.65753
3242.67792 2.64510
3240.62948 2.62483
3238.58104 2.61179
3236.53261 2.61078
3234.48417 2.60766
3232.43573 2.59909
3230.38729 2.59203
3228.33885 2.58627
3226.29041 2.57983
3224.24198 2.56852
3222.19354 2.55226
3220.14510 2.53794
3218.09666 2.53157
3216.04822 2.53595
3213.99978 2.54264
3211.95135 2.54021
3209.90291 2.53234
3207.85447 2.52945
3205.80603 2.53442
3203.75759 2.54044
3201.70915 2.54062
3199.66072 2.54216
3197.61228 2.55048
3195.56384 2.55841
3193.51540 2.56325
3191.46696 2.56568
3189.41852 2.56658
3187.37008 2.56491
3185.32165 2.55997
3183.27321 2.55878
3181.22477 2.55977
3179.17633 2.55732
3177.12789 2.55005
3175.07945 2.53157
3173.03102 2.50915
3170.98258 2.49585
3168.93414 2.48543
3166.88570 2.46906
3164.83726 2.45240
3162.78882 2.44071
3160.74039 2.43425
3158.69195 2.43860
3156.64351 2.45023
3154.59507 2.45225
3152.54663 2.44794
3150.49819 2.45344
3148.44976 2.46651
3146.40132 2.47675
3144.35288 2.47951
3142.30444 2.47763
3140.25600 2.47641
3138.20756 2.47606
3136.15913 2.47336
3134.11069 2.46508
3132.06225 2.45648
3130.01381 2.45298
3127.96537 2.45058
3125.91693 2.44895
3123.86850 2.45220
3121.82006 2.45983
3119.77162 2.46405
3117.72318 2.46082
3115.67474 2.45845
3113.62630 2.46032
3111.57787 2.46553
3109.52943 2.47074
3107.48099 2.46543
3105.43255 2.44943
3103.38411 2.43193
3101.33567 2.42394
3099.28724 2.42691
3097.23880 2.43205
3095.19036 2.43478
3093.14192 2.43277
3091.09348 2.42853
3089.04504 2.42546
3086.99661 2.42586
3084.94817 2.42933
3082.89973 2.43233
3080.85129 2.43851
3078.80285 2.44581
3076.75441 2.44740
3074.70598 2.44936
3072.65754 2.45496
3070.60910 2.45993
3068.56066 2.46439
3066.51222 2.46757
3064.46378 2.47091
3062.41535 2.47849
3060.36691 2.48646
3058.31847 2.49234
3056.27003 2.50119
3054.22159 2.51101
3052.17315 2.51629
3050.12471 2.52120
3048.07628 2.52758
3046.02784 2.53365
3043.97940 2.54233
3041.93096 2.55211
3039.88252 2.55806
3037.83408 2.56392
3035.78565 2.57707
3033.73721 2.59413
3031.68877 2.60399
3029.64033 2.60710
3027.59189 2.61378
3025.54345 2.62541
3023.49502 2.63733
3021.44658 2.64263
3019.39814 2.64401
3017.34970 2.65704
3015.30126 2.67726
3013.25282 2.69252
3011.20439 2.70436
3009.15595 2.70981
3007.10751 2.71716
3005.05907 2.73576
3003.01063 2.74884
3000.96219 2.74416
2998.91376 2.73483
2996.86532 2.73411
2994.81688 2.74368
2992.76844 2.75917
2990.72000 2.76891
2988.67156 2.76663
2986.62313 2.76349
2984.57469 2.75939
2982.52625 2.74677
2980.47781 2.74072
2978.42937 2.74780
2976.38093 2.75409
2974.33250 2.75813
2972.28406 2.76465
2970.23562 2.76598
2968.18718 2.75888
2966.13874 2.75604
2964.09030 2.76309
2962.04187 2.77216
2959.99343 2.77875
2957.94499 2.78278
2955.89655 2.78305
2953.84811 2.78073
2951.79967 2.77442
2949.75124 2.76033
2947.70280 2.75235
2945.65436 2.76097
2943.60592 2.77279
2941.55748 2.78499
2939.50904 2.81036
2937.46061 2.83807
2935.41217 2.84474
2933.36373 2.83346
2931.31529 2.82025
2929.26685 2.80843
2927.21841 2.79705
2925.16998 2.79953
2923.12154 2.81593
2921.07310 2.82080
2919.02466 2.80814
2916.97622 2.79815
2914.92778 2.79965
2912.87934 2.81038
2910.83091 2.83231
2908.78247 2.84885
2906.73403 2.84047
2904.68559 2.82382
2902.63715 2.82240
2900.58871 2.82528
2898.54028 2.81420
2896.49184 2.81534
2894.44340 2.84032
2892.39496 2.85115
2890.34652 2.82880
2888.29808 2.80409
2886.24965 2.80897
2884.20121 2.83677
2882.15277 2.85124
2880.10433 2.84455
2878.05589 2.84211
2876.00745 2.83318
2873.95902 2.80402
2871.91058 2.79873
2869.86214 2.84112
2867.81370 2.88884
2865.76526 2.89089
2863.71682 2.86572
2861.66839 2.85330
2859.61995 2.85937
2857.57151 2.88019
2855.52307 2.89782
2853.47463 2.89736
2851.42619 2.89119
2849.37776 2.87790
2847.32932 2.86124
2845.28088 2.85436
2843.23244 2.84397
2841.18400 2.81758
2839.13556 2.79754
2837.08713 2.80216
2835.03869 2.81516
2832.99025 2.82052
2830.94181 2.81732
2828.89337 2.80028
2826.84493 2.77395
2824.79650 2.74495
2822.74806 2.70855
2820.69962 2.67322
2818.65118 2.64736
2816.60274 2.61882
2814.55430 2.58115
2812.50587 2.54308
2810.45743 2.51399
2808.40899 2.49460
2806.36055 2.47532
2804.31211 2.45300
2802.26367 2.43344
2800.21524 2.41638
2798.16680 2.39957
2796.11836 2.38435
2794.06992 2.37073
2792.02148 2.35763
2789.97304 2.34375
2787.92461 2.32624
2785.87617 2.30478
2783.82773 2.28477
2781.77929 2.26940
2779.73085 2.25706
2777.68241 2.24614
2775.63397 2.23523
2773.58554 2.22484
2771.53710 2.21687
2769.48866 2.21227
2767.44022 2.21223
2765.39178 2.21552
2763.34334 2.21777
2761.29491 2.21885
2759.24647 2.22056
2757.19803 2.21947
2755.14959 2.21488
2753.10115 2.21089
2751.05271 2.20730
2749.00428 2.20215
2746.95584 2.19753
2744.90740 2.19533
2742.85896 2.19404
2740.81052 2.19193
2738.76208 2.18965
2736.71365 2.18821
2734.66521 2.18608
2732.61677 2.18406
2730.56833 2.18511
2728.51989 2.18661
2726.47145 2.18521
2724.42302 2.18247
2722.37458 2.17960
2720.32614 2.17671
2718.27770 2.17572
2716.22926 2.17807
2714.18082 2.18232
2712.13239 2.18628
2710.08395 2.18935
2708.03551 2.19145
2705.98707 2.19267
2703.93863 2.19484
2701.89019 2.19871
2699.84176 2.20269
2697.79332 2.20787
2695.74488 2.21511
2693.69644 2.22225
2691.64800 2.23095
2689.59956 2.24397
2687.55113 2.25861
2685.50269 2.27286
2683.45425 2.28988
2681.40581 2.31293
2679.35737 2.34024
2677.30893 2.36804
2675.26050 2.39437
2673.21206 2.41966
2671.16362 2.44863
2669.11518 2.48105
2667.06674 2.51059
2665.01830 2.53551
2662.96987 2.55566
2660.92143 2.57284
2658.87299 2.58974
2656.82455 2.60598
2654.77611 2.61645
2652.72767 2.61845
2650.67924 2.62299
2648.63080 2.63521
2646.58236 2.64818
2644.53392 2.66150
2642.48548 2.67604
2640.43704 2.69177
2638.38860 2.71108
2636.34017 2.72403
2634.29173 2.72504
2632.24329 2.72660
2630.19485 2.73294
2628.14641 2.74178
2626.09797 2.75268
2624.04954 2.76138
2622.00110 2.77049
2619.95266 2.78066
2617.90422 2.77859
2615.85578 2.76859
2613.80734 2.76862
2611.75891 2.77689
2609.71047 2.78221
2607.66203 2.78143
2605.61359 2.78065
2603.56515 2.78425
2601.51671 2.78453
2599.46828 2.77946
2597.41984 2.77644
2595.37140 2.77567
2593.32296 2.77365
2591.27452 2.77531
2589.22608 2.78444
2587.17765 2.78688
2585.12921 2.78054
2583.08077 2.77856
2581.03233 2.77983
2578.98389 2.78102
2576.93545 2.77652
2574.88702 2.77028
2572.83858 2.77461
2570.79014 2.78225
2568.74170 2.78562
2566.69326 2.78917
2564.64482 2.79198
2562.59639 2.78999
2560.54795 2.78424
2558.49951 2.78185
2556.45107 2.78693
2554.40263 2.79374
2552.35419 2.79567
2550.30576 2.79145
2548.25732 2.78515
2546.20888 2.78116
2544.16044 2.78016
2542.11200 2.78145
2540.06356 2.78074
2538.01513 2.77690
2535.96669 2.77855
2533.91825 2.78599
2531.86981 2.79033
2529.82137 2.79040
2527.77293 2.78811
2525.72450 2.78964
2523.67606 2.79746
2521.62762 2.79769
2519.57918 2.79115
2517.53074 2.79328
2515.48230 2.79614
2513.43387 2.79023
2511.38543 2.78394
2509.33699 2.77930
2507.28855 2.78094
2505.24011 2.79381
2503.19167 2.79759
2501.14324 2.78319
2499.09480 2.77818
2497.04636 2.78841
2494.99792 2.79256
2492.94948 2.78879
2490.90104 2.78470
2488.85260 2.78337
2486.80417 2.78770
2484.75573 2.79373
2482.70729 2.79305
2480.65885 2.78020
2478.61041 2.76881
2476.56197 2.77572
2474.51354 2.79273
2472.46510 2.79880
2470.41666 2.79256
2468.36822 2.78781
2466.31978 2.78127
2464.27134 2.77219
2462.22291 2.76553
2460.17447 2.75474
2458.12603 2.74555
2456.07759 2.74096
2454.02915 2.72921
2451.98071 2.70950
2449.93228 2.68969
2447.88384 2.67235
2445.83540 2.65270
2443.78696 2.62866
2441.73852 2.60203
2439.69008 2.57583
2437.64165 2.55932
2435.59321 2.55499
2433.54477 2.55051
2431.49633 2.53517
2429.44789 2.51411
2427.39945 2.49563
2425.35102 2.47847
2423.30258 2.46271
2421.25414 2.45119
2419.20570 2.44103
2417.15726 2.42585
2415.10882 2.40638
2413.06039 2.39011
2411.01195 2.37497
2408.96351 2.35725
2406.91507 2.34458
2404.86663 2.33897
2402.81819 2.33181
2400.76976 2.31954
2398.72132 2.30731
2396.67288 2.29706
2394.62444 2.28818
2392.57600 2.28557
2390.52756 2.28716
2388.47913 2.28464
2386.43069 2.27826
2384.38225 2.27227
2382.33381 2.26915
2380.28537 2.26721
2378.23693 2.26399
2376.18850 2.26175
2374.14006 2.26392
2372.09162 2.27088
2370.04318 2.27481
2367.99474 2.27214
2365.94630 2.27402
2363.89787 2.27784
2361.84943 2.27933
2359.80099 2.28975
2357.75255 2.29583
2355.70411 2.29282
2353.65567 2.29905
2351.60723 2.30074
2349.55880 2.28213
2347.51036 2.25784
2345.46192 2.24981
2343.41348 2.26354
2341.36504 2.27577
2339.31660 2.27797
2337.26817 2.28424
2335.21973 2.29483
2333.17129 2.29050
2331.12285 2.27506
2329.07441 2.26698
2327.02597 2.26757
2324.97754 2.27298
2322.92910 2.28408
2320.88066 2.30180
2318.83222 2.31846
2316.78378 2.32430
2314.73534 2.32162
2312.68691 2.32069
2310.63847 2.32187
2308.59003 2.31994
2306.54159 2.32086
2304.49315 2.32946
2302.44471 2.34006
2300.39628 2.34813
2298.34784 2.35716
2296.29940 2.37141
2294.25096 2.38660
2292.20252 2.39678
2290.15408 2.40598
2288.10565 2.41668
2286.05721 2.42301
2284.00877 2.42134
2281.96033 2.41533
2279.91189 2.41184
2277.86345 2.41316
2275.81502 2.41783
2273.76658 2.42207
2271.71814 2.42374
2269.66970 2.42641
2267.62126 2.43181
2265.57282 2.43842
2263.52439 2.44538
2261.47595 2.45174
2259.42751 2.45237
2257.37907 2.44401
2255.33063 2.43206
2253.28219 2.42153
2251.23376 2.41294
2249.18532 2.40622
2247.13688 2.40030
2245.08844 2.39550
2243.04000 2.39521
2240.99156 2.40182
2238.94313 2.41125
2236.89469 2.41504
2234.84625 2.41389
2232.79781 2.41342
2230.74937 2.41386
2228.70093 2.41397
2226.65250 2.41245
2224.60406 2.40990
2222.55562 2.40982
2220.50718 2.41538
2218.45874 2.42586
2216.41030 2.43743
2214.36186 2.44832
2212.31343 2.45852
2210.26499 2.46711
2208.21655 2.47383
2206.16811 2.47951
2204.11967 2.48244
2202.07123 2.48120
2200.02280 2.47836
2197.97436 2.47308
2195.92592 2.46283
2193.87748 2.45012
2191.82904 2.43880
2189.78060 2.43219
2187.73217 2.42925
2185.68373 2.42425
2183.63529 2.41704
2181.58685 2.41212
2179.53841 2.40811
2177.48997 2.40211
2175.44154 2.39583
2173.39310 2.39153
2171.34466 2.38975
2169.29622 2.38792
2167.24778 2.38305
2165.19934 2.37697
2163.15091 2.37170
2161.10247 2.36800
2159.05403 2.36721
2157.00559 2.36539
2154.95715 2.35985
2152.90871 2.35319
2150.86028 2.34222
2148.81184 2.32631
2146.76340 2.31205
2144.71496 2.29970
2142.66652 2.28288
2140.61808 2.26063
2138.56965 2.23892
2136.52121 2.21971
2134.47277 2.20088
2132.42433 2.18426
2130.37589 2.17254
2128.32745 2.16487
2126.27902 2.15859
2124.23058 2.15122
2122.18214 2.14450
2120.13370 2.14165
2118.08526 2.14164
2116.03682 2.14233
2113.98839 2.14129
2111.93995 2.13775
2109.89151 2.13429
2107.84307 2.13310
2105.79463 2.13477
2103.74619 2.13666
2101.69776 2.13673
2099.64932 2.13686
2097.60088 2.13722
2095.55244 2.13692
2093.50400 2.13700
2091.45556 2.13969
2089.40713 2.14510
2087.35869 2.14984
2085.31025 2.15254
2083.26181 2.15439
2081.21337 2.15843
2079.16493 2.16793
2077.11649 2.17927
2075.06806 2.18761
2073.01962 2.19579
2070.97118 2.20620
2068.92274 2.21766
2066.87430 2.23126
2064.82586 2.24829
2062.77743 2.26769
2060.72899 2.28744
2058.68055 2.30647
2056.63211 2.32588
2054.58367 2.34802
2052.53523 2.37113
2050.48680 2.38914
2048.43836 2.40117
2046.38992 2.41082
2044.34148 2.41828
2042.29304 2.42016
2040.24460 2.41633
2038.19617 2.41338
2036.14773 2.41545
2034.09929 2.41579
2032.05085 2.41014
2030.00241 2.40469
2027.95397 2.40089
2025.90554 2.39720
2023.85710 2.39770
2021.80866 2.40184
2019.76022 2.40485
2017.71178 2.41009
2015.66334 2.41948
2013.61491 2.42925
2011.56647 2.44075
2009.51803 2.45448
2007.46959 2.46805
2005.42115 2.48343
2003.37271 2.50100
2001.32428 2.51687
1999.27584 2.53037
1997.22740 2.54321
1995.17896 2.55818
1993.13052 2.57743
1991.08208 2.59509
1989.03365 2.60671
1986.98521 2.61940
1984.93677 2.63311
1982.88833 2.64639
1980.83989 2.66330
1978.79145 2.67679
1976.74302 2.68131
1974.69458 2.68422
1972.64614 2.69350
1970.59770 2.70478
1968.54926 2.71409
1966.50082 2.73056
1964.45239 2.75370
1962.40395 2.77657
1960.35551 2.79241
1958.30707 2.79828
1956.25863 2.80725
1954.21019 2.81777
1952.16176 2.82079
1950.11332 2.82675
1948.06488 2.83665
1946.01644 2.84007
1943.96800 2.84236
1941.91956 2.85392
1939.87112 2.86133
1937.82269 2.85298
1935.77425 2.84344
1933.72581 2.84635
1931.67737 2.85996
1929.62893 2.87054
1927.58049 2.87107
1925.53206 2.86914
1923.48362 2.86412
1921.43518 2.85778
1919.38674 2.86317
1917.33830 2.87771
1915.28986 2.88375
1913.24143 2.88073
1911.19299 2.87451
1909.14455 2.87019
1907.09611 2.87122
1905.04767 2.86710
1902.99923 2.85996
1900.95080 2.86119
1898.90236 2.87097
1896.85392 2.88194
1894.80548 2.88769
1892.75704 2.88822
1890.70860 2.88881
1888.66017 2.88753
1886.61173 2.87666
1884.56329 2.86693
1882.51485 2.86836
1880.46641 2.87427
1878.41797 2.88142
1876.36954 2.89324
1874.32110 2.89929
1872.27266 2.89580
1870.22422 2.89139
1868.17578 2.88727
1866.12734 2.88579
1864.07891 2.88319
1862.03047 2.87818
1859.98203 2.87070
1857.93359 2.86061
1855.88515 2.85606
1853.83671 2.86052
1851.78828 2.86980
1849.73984 2.87885
1847.69140 2.87710
1845.64296 2.86348
1843.59452 2.85781
1841.54608 2.86099
1839.49765 2.85940
1837.44921 2.85630
1835.40077 2.85545
1833.35233 2.85696
1831.30389 2.87135
1829.25545 2.89655
1827.20702 2.89794
1825.15858 2.88088
1823.11014 2.87067
1821.06170 2.87560
1819.01326 2.89382
1816.96482 2.90317
1814.91639 2.89858
1812.86795 2.89992
1810.81951 2.89589
1808.77107 2.88108
1806.72263 2.87506
1804.67419 2.88080
1802.62575 2.89091
1800.57732 2.89985
1798.52888 2.90160
1796.48044 2.90297
1794.43200 2.91099
1792.38356 2.92612
1790.33512 2.93218
1788.28669 2.91641
1786.23825 2.90523
1784.18981 2.90591
1782.14137 2.90002
1780.09293 2.89517
1778.04449 2.90402
1775.99606 2.91109
1773.94762 2.91106
1771.89918 2.91160
1769.85074 2.91479
1767.80230 2.92088
1765.75386 2.92504
1763.70543 2.92566
1761.65699 2.92899
1759.60855 2.93362
1757.56011 2.92591
1755.51167 2.91660
1753.46323 2.91758
1751.41480 2.92584
1749.36636 2.94175
1747.31792 2.95335
1745.26948 2.95462
1743.22104 2.95587
1741.17260 2.96946
1739.12417 2.97710
1737.07573 2.96232
1735.02729 2.94872
1732.97885 2.95334
1730.93041 2.95031
1728.88197 2.93673
1726.83354 2.92770
1724.78510 2.93076
1722.73666 2.94675
1720.68822 2.96426
1718.63978 2.98366
1716.59134 2.99256
1714.54291 2.97608
1712.49447 2.97426
1710.44603 2.98465
1708.39759 2.99083
1706.34915 2.98942
1704.30071 2.99244
1702.25228 3.01275
1700.20384 3.04794
1698.15540 3.04413
1696.10696 3.00857
1694.05852 2.98923
1692.01008 2.98144
1689.96165 2.99479
1687.91321 3.02270
1685.86477 3.03741
1683.81633 3.04829
1681.76789 3.04578
1679.71945 3.03246
1677.67102 3.04063
1675.62258 3.06652
1673.57414 3.05378
1671.52570 3.02008
1669.47726 3.01895
1667.42882 3.03728
1665.38038 3.03794
1663.33195 3.05265
1661.28351 3.08005
1659.23507 3.08143
1657.18663 3.07980
1655.13819 3.09849
1653.08975 3.12684
1651.04132 3.09589
1648.99288 3.06478
1646.94444 3.06147
1644.89600 3.08963
1642.84756 3.09596
1640.79912 3.09175
1638.75069 3.09372
1636.70225 3.12130
1634.65381 3.14725
1632.60537 3.13069
1630.55693 3.11144
1628.50849 3.10413
1626.46006 3.11202
1624.41162 3.10717
1622.36318 3.10072
1620.31474 3.10435
1618.26630 3.12098
1616.21786 3.12423
1614.16943 3.11015
1612.12099 3.09474
1610.07255 3.08529
1608.02411 3.08375
1605.97567 3.08544
1603.92723 3.09110
1601.87880 3.08732
1599.83036 3.08558
1597.78192 3.07043
1595.73348 3.03100
1593.68504 2.95777
1591.63660 2.86923
1589.58817 2.76460
1587.53973 2.64351
1585.49129 2.50686
1583.44285 2.36418
1581.39441 2.23536
1579.34597 2.13673
1577.29754 2.06104
1575.24910 2.00688
1573.20066 1.98916
1571.15222 1.98211
1569.10378 1.97093
1567.05534 1.95819
1565.00691 1.95112
1562.95847 1.94931
1560.91003 1.95224
1558.86159 1.96342
1556.81315 1.97032
1554.76471 1.97522
1552.71628 1.98218
1550.66784 1.99388
1548.61940 2.00718
1546.57096 2.02068
1544.52252 2.03489
1542.47408 2.05388
1540.42565 2.08352
1538.37721 2.10264
1536.32877 2.10894
1534.28033 2.12526
1532.23189 2.15779
1530.18345 2.18178
1528.13501 2.20572
1526.08658 2.23087
1524.03814 2.25365
1521.98970 2.28383
1519.94126 2.32516
1517.89282 2.35084
1515.84438 2.37446
1513.79595 2.39416
1511.74751 2.40753
1509.69907 2.43352
1507.65063 2.47706
1505.60219 2.52246
1503.55375 2.51497
1501.50532 2.51565
1499.45688 2.51847
1497.40844 2.53096
1495.36000 2.52225
1493.31156 2.48846
1491.26312 2.39276
1489.21469 2.15501
1487.16625 1.87761
1485.11781 1.65700
1483.06937 1.46737
1481.02093 1.30036
1478.97249 1.18104
1476.92406 1.09686
1474.87562 1.01950
1472.82718 0.92103
1470.77874 0.83781
1468.73030 0.79897
1466.68186 0.78416
1464.63343 0.79258
1462.58499 0.81474
1460.53655 0.83355
1458.48811 0.84842
1456.43967 0.85362
1454.39123 0.85013
1452.34280 0.84931
1450.29436 0.85007
1448.24592 0.84834
1446.19748 0.83803
1444.14904 0.81633
1442.10060 0.78198
1440.05217 0.74259
1438.00373 0.70207
1435.95529 0.65837
1433.90685 0.62979
1431.85841 0.61361
1429.80997 0.60016
1427.76154 0.59067
1425.71310 0.58780
1423.66466 0.59089
1421.61622 0.60020
1419.56778 0.62482
1417.51934 0.67145
1415.47091 0.72358
1413.42247 0.78797
1411.37403 0.88055
1409.32559 0.99974
1407.27715 1.12999
1405.22871 1.27056
1403.18028 1.40276
1401.13184 1.50416
1399.08340 1.59901
1397.03496 1.69048
1394.98652 1.76957
1392.93808 1.83567
1390.88965 1.88308
1388.84121 1.92133
1386.79277 1.95496
1384.74433 1.97064
1382.69589 1.98385
1380.64745 2.00214
1378.59901 2.02807
1376.55058 2.05547
1374.50214 2.08674
1372.45370 2.11559
1370.40526 2.13740
1368.35682 2.15840
1366.30838 2.17547
1364.25995 2.19426
1362.21151 2.21308
1360.16307 2.22991
1358.11463 2.24071
1356.06619 2.25591
1354.01775 2.27173
1351.96932 2.28677
1349.92088 2.29827
1347.87244 2.30651
1345.82400 2.31529
1343.77556 2.32601
1341.72712 2.33912
1339.67869 2.34760
1337.63025 2.35551
1335.58181 2.36351
1333.53337 2.37587
1331.48493 2.38211
1329.43649 2.38302
1327.38806 2.38336
1325.33962 2.38962
1323.29118 2.39656
1321.24274 2.39983
1319.19430 2.40705
1317.14586 2.41562
1315.09743 2.42308
1313.04899 2.42732
1311.00055 2.43302
1308.95211 2.43476
1306.90367 2.43650
1304.85523 2.43924
1302.80680 2.44665
1300.75836 2.45517
1298.70992 2.46020
1296.66148 2.46450
1294.61304 2.47000
1292.56460 2.47913
1290.51617 2.48452
1288.46773 2.48654
1286.41929 2.48905
1284.37085 2.49646
1282.32241 2.49942
1280.27397 2.49829
1278.22554 2.49780
1276.17710 2.50101
1274.12866 2.50589
1272.08022 2.50862
1270.03178 2.51439
1267.98334 2.52149
1265.93491 2.52289
1263.88647 2.51617
1261.83803 2.51381
1259.78959 2.51596
1257.74115 2.52113
1255.69271 2.52932
1253.64428 2.53667
1251.59584 2.53982
1249.54740 2.54336
1247.49896 2.54971
1245.45052 2.55347
1243.40208 2.55313
1241.35364 2.55041
1239.30521 2.55153
1237.25677 2.55331
1235.20833 2.55287
1233.15989 2.55015
1231.11145 2.55168
1229.06301 2.55883
1227.01458 2.56558
1224.96614 2.56982
1222.91770 2.57186
1220.86926 2.57048
1218.82082 2.56641
1216.77238 2.56317
1214.72395 2.56018
1212.67551 2.56649
1210.62707 2.57994
1208.57863 2.58815
1206.53019 2.59055
1204.48175 2.58972
1202.43332 2.58486
1200.38488 2.57768
1198.33644 2.57416
1196.28800 2.57983
1194.23956 2.59444
1192.19112 2.60701
1190.14269 2.60901
1188.09425 2.60739
1186.04581 2.61141
1183.99737 2.61721
1181.94893 2.62017
1179.90049 2.61729
1177.85206 2.60877
1175.80362 2.60207
1173.75518 2.60171
1171.70674 2.60785
1169.65830 2.61593
1167.60986 2.61951
1165.56143 2.61909
1163.51299 2.61861
1161.46455 2.61938
1159.41611 2.62229
1157.36767 2.62647
1155.31923 2.63304
1153.27080 2.63839
1151.22236 2.63369
1149.17392 2.62516
1147.12548 2.62470
1145.07704 2.62920
1143.02860 2.63277
1140.98017 2.63685
1138.93173 2.64019
1136.88329 2.64294
1134.83485 2.64748
1132.78641 2.65126
1130.73797 2.65560
1128.68954 2.66256
1126.64110 2.66627
1124.59266 2.66454
1122.54422 2.66252
1120.49578 2.66520
1118.44734 2.67332
1116.39891 2.68128
1114.35047 2.68521
1112.30203 2.68657
1110.25359 2.68492
1108.20515 2.68402
1106.15671 2.68879
1104.10827 2.69525
1102.05984 2.69377
1100.01140 2.69159
1097.96296 2.70074
1095.91452 2.70381
1093.86608 2.68915
1091.81764 2.67329
1089.76921 2.66719
1087.72077 2.66924
1085.67233 2.67604
1083.62389 2.68193
1081.57545 2.68656
1079.52701 2.69100
1077.47858 2.68858
1075.43014 2.68031
1073.38170 2.67982
1071.33326 2.68776
1069.28482 2.69299
1067.23638 2.70158
1065.18795 2.71180
1063.13951 2.71052
1061.09107 2.70653
1059.04263 2.71400
1056.99419 2.72768
1054.94575 2.73566
1052.89732 2.73249
1050.84888 2.73229
1048.80044 2.74335
1046.75200 2.74468
1044.70356 2.74372
1042.65512 2.75233
1040.60669 2.75579
1038.55825 2.75497
1036.50981 2.75840
1034.46137 2.76666
1032.41293 2.77690
1030.36449 2.78307
1028.31606 2.78458
1026.26762 2.78382
1024.21918 2.78107
1022.17074 2.77870
1020.12230 2.78193
1018.07386 2.79700
1016.02543 2.80891
1013.97699 2.80251
1011.92855 2.79290
1009.88011 2.79783
1007.83167 2.81398
1005.78323 2.82259
1003.73480 2.81862
1001.68636 2.81621
999.63792 2.82531
997.58948 2.84105
995.54104 2.84541
993.49260 2.83012
991.44417 2.81450
989.39573 2.80259
987.34729 2.78472
985.29885 2.74826
983.25041 2.66687
981.20197 2.53931
979.15354 2.38939
977.10510 2.23872
975.05666 2.10312
973.00822 1.99051
970.95978 1.89936
968.91134 1.82235
966.86290 1.75119
964.81447 1.68031
962.76603 1.60863
960.71759 1.53946
958.66915 1.47782
956.62071 1.42946
954.57227 1.40150
952.52384 1.40034
950.47540 1.43000
948.42696 1.49122
946.37852 1.57882
944.33008 1.67982
942.28164 1.77828
940.23321 1.86310
938.18477 1.93069
936.13633 1.98624
934.08789 2.03847
932.03945 2.08884
929.99101 2.13389
927.94258 2.17563
925.89414 2.21788
923.84570 2.25655
921.79726 2.28606
919.74882 2.31030
917.70038 2.33555
915.65195 2.35895
913.60351 2.37622
911.55507 2.39350
909.50663 2.41470
907.45819 2.43194
905.40975 2.44452
903.36132 2.46116
901.31288 2.48228
899.26444 2.50039
897.21600 2.51077
895.16756 2.51843
893.11912 2.53272
891.07069 2.55155
889.02225 2.56635
886.97381 2.57800
884.92537 2.58899
882.87693 2.60023
880.82849 2.61018
878.78006 2.61534
876.73162 2.62456
874.68318 2.64657
872.63474 2.67206
870.58630 2.68199
868.53786 2.67109
866.48943 2.64317
864.44099 2.57190
862.39255 2.42911
860.34411 2.24126
858.29567 2.05238
856.24723 1.89124
854.19880 1.76727
852.15036 1.67686
850.10192 1.61570
848.05348 1.58042
846.00504 1.56483
843.95660 1.56131
841.90817 1.56763
839.85973 1.58958
837.81129 1.63399
835.76285 1.70144
833.71441 1.78397
831.66597 1.87123
829.61753 1.96300
827.56910 2.06412
825.52066 2.15849
823.47222 2.21290
821.42378 2.21878
819.37534 2.17771
817.32690 2.10406
815.27847 2.04958
813.23003 2.05067
811.18159 2.09799
809.13315 2.15899
807.08471 2.21451
805.03627 2.26619
802.98784 2.31386
800.93940 2.34590
798.89096 2.36266
796.84252 2.37663
794.79408 2.38897
792.74564 2.40261
790.69721 2.42335
788.64877 2.44476
786.60033 2.45532
784.55189 2.45707
782.50345 2.47079
780.45501 2.51016
778.40658 2.55314
776.35814 2.55919
774.30970 2.52904
772.26126 2.49095
770.21282 2.45181
768.16438 2.41669
766.11595 2.40603
764.06751 2.42018
762.01907 2.44192
759.97063 2.47406
757.92219 2.51065
755.87375 2.53027
753.82532 2.53442
751.77688 2.52938
749.72844 2.52627
747.68000 2.53482
745.63156 2.54534
743.58312 2.54942
741.53469 2.53863
739.48625 2.51414
737.43781 2.49337
735.38937 2.48299
733.34093 2.48581
731.29249 2.50660
729.24406 2.53092
727.19562 2.54085
725.14718 2.54974
723.09874 2.56713
721.05030 2.57471
719.00186 2.56726
716.95343 2.56669
714.90499 2.58005
712.85655 2.58039
710.80811 2.55633
708.75967 2.54069
706.71123 2.55482
704.66280 2.57414
702.61436 2.58022
700.56592 2.60645
698.51748 2.63630
696.46904 2.62106
694.42060 2.60278
692.37216 2.61292
690.32373 2.64074
688.27529 2.66396
686.22685 2.66509
684.17841 2.65969
682.12997 2.66256
680.08153 2.67641
678.03310 2.67404
675.98466 2.67531
673.93622 2.71525
671.88778 2.70238
669.83934 2.58264
667.79090 2.50635
665.74247 2.58251
663.69403 2.66258
661.64559 2.66392
659.59715 2.62362
657.54871 2.61235
655.50027 2.69676
653.45184 2.82995
651.40340 2.82665
649.35496 2.73245
647.30652 2.69478
645.25808 2.72522
643.20964 2.72659
641.16121 2.65500
639.11277 2.55704
637.06433 2.48834
635.01589 2.50658
632.96745 2.57134
630.91901 2.56925
628.87058 2.53312
626.82214 2.51971
624.77370 2.50539
622.72526 2.49128
620.67682 2.49832
618.62838 2.50960
616.57995 2.48784
614.53151 2.46555
612.48307 2.48803
610.43463 2.50148
608.38619 2.50230
606.33775 2.59660
604.28932 2.88162
602.24088 5.00000
600.19244 5.00000
598.14400 5.00000
