3996.50324 1.72878
3994.45480 1.72908
3992.40636 1.73054
3990.35792 1.73139
3988.30948 1.73088
3986.26104 1.73059
3984.21261 1.73188
3982.16417 1.73318
3980.11573 1.73263
3978.06729 1.73148
3976.01885 1.73076
3973.97041 1.73026
3971.92198 1.72947
3969.87354 1.72769
3967.82510 1.72625
3965.77666 1.72570
3963.72822 1.72560
3961.67978 1.72676
3959.63135 1.72858
3957.58291 1.73006
3955.53447 1.73062
3953.48603 1.73010
3951.43759 1.72991
3949.38915 1.73079
3947.34072 1.73060
3945.29228 1.72970
3943.24384 1.73039
3941.19540 1.73098
3939.14696 1.73053
3937.09852 1.73044
3935.05009 1.73066
3933.00165 1.73115
3930.95321 1.73221
3928.90477 1.73297
3926.85633 1.73349
3924.80789 1.73400
3922.75946 1.73408
3920.71102 1.73485
3918.66258 1.73620
3916.61414 1.73564
3914.56570 1.73335
3912.51726 1.73222
3910.46883 1.73209
3908.42039 1.73206
3906.37195 1.73338
3904.32351 1.73608
3902.27507 1.73764
3900.22663 1.73780
3898.17820 1.73758
3896.12976 1.73683
3894.08132 1.73660
3892.03288 1.73835
3889.98444 1.74020
3887.93600 1.73925
3885.88756 1.73649
3883.83913 1.73542
3881.79069 1.73623
3879.74225 1.73602
3877.69381 1.73577
3875.64537 1.73809
3873.59693 1.74203
3871.54850 1.74408
3869.50006 1.74317
3867.45162 1.74102
3865.40318 1.74116
3863.35474 1.74271
3861.30630 1.74092
3859.25787 1.73919
3857.20943 1.74130
3855.16099 1.74535
3853.11255 1.74475
3851.06411 1.74004
3849.01567 1.73830
3846.96724 1.73899
3844.91880 1.74142
3842.87036 1.74467
3840.82192 1.74722
3838.77348 1.74832
3836.72504 1.74730
3834.67661 1.74456
3832.62817 1.74106
3830.57973 1.73764
3828.53129 1.73606
3826.48285 1.73610
3824.43441 1.73579
3822.38598 1.73624
3820.33754 1.73797
3818.28910 1.73729
3816.24066 1.73551
3814.19222 1.73391
3812.14378 1.73248
3810.09535 1.73235
3808.04691 1.73458
3805.99847 1.73656
3803.95003 1.73652
3801.90159 1.73682
3799.85315 1.73563
3797.80472 1.73412
3795.75628 1.73390
3793.70784 1.73334
3791.65940 1.73264
3789.61096 1.73153
3787.56252 1.73055
3785.51409 1.73158
3783.46565 1.73338
3781.41721 1.73494
3779.36877 1.73593
3777.32033 1.73485
3775.27189 1.73309
3773.22346 1.73212
3771.17502 1.73407
3769.12658 1.73848
3767.07814 1.73988
3765.02970 1.73821
3762.98126 1.73679
3760.93283 1.73694
3758.88439 1.73671
3756.83595 1.73604
3754.78751 1.73773
3752.73907 1.74456
3750.69063 1.75494
3748.64219 1.75409
3746.59376 1.74928
3744.54532 1.74740
3742.49688 1.74443
3740.44844 1.74107
3738.40000 1.74015
3736.35156 1.74240
3734.30313 1.74393
3732.25469 1.74228
3730.20625 1.74152
3728.15781 1.74239
3726.10937 1.74292
3724.06093 1.74092
3722.01250 1.73781
3719.96406 1.73595
3717.91562 1.73498
3715.86718 1.73503
3713.81874 1.73776
3711.77030 1.74357
3709.72187 1.74539
3707.67343 1.74157
3705.62499 1.73869
3703.57655 1.73869
3701.52811 1.73865
3699.47967 1.73596
3697.43124 1.73400
3695.38280 1.73374
3693.33436 1.73385
3691.28592 1.73562
3689.23748 1.73816
3687.18904 1.73713
3685.14061 1.73611
3683.09217 1.73670
3681.04373 1.73809
3678.99529 1.74026
3676.94685 1.74351
3674.89841 1.74511
3672.84998 1.74522
3670.80154 1.74697
3668.75310 1.74481
3666.70466 1.74016
3664.65622 1.73892
3662.60778 1.73997
3660.55935 1.74012
3658.51091 1.73997
3656.46247 1.74146
3654.41403 1.74253
3652.36559 1.74386
3650.31715 1.74879
3648.26872 1.75326
3646.22028 1.74935
3644.17184 1.74426
3642.12340 1.74184
3640.07496 1.74196
3638.02652 1.74365
3635.97809 1.74670
3633.92965 1.75031
3631.88121 1.75344
3629.83277 1.75753
3627.78433 1.75893
3625.73589 1.75585
3623.68746 1.75539
3621.63902 1.75863
3619.59058 1.76371
3617.54214 1.76766
3615.49370 1.76986
3613.44526 1.77078
3611.39682 1.77056
3609.34839 1.77102
3607.29995 1.77262
3605.25151 1.77478
3603.20307 1.77864
3601.15463 1.78457
3599.10619 1.79096
3597.05776 1.79811
3595.00932 1.80735
3592.96088 1.81608
3590.91244 1.82324
3588.86400 1.83317
3586.81556 1.84113
3584.76713 1.83701
3582.71869 1.83018
3580.67025 1.82699
3578.62181 1.82580
3576.57337 1.82471
3574.52493 1.82574
3572.47650 1.82951
3570.42806 1.83542
3568.37962 1.84620
3566.33118 1.85818
3564.28274 1.85759
3562.23430 1.85033
3560.18587 1.84462
3558.13743 1.84128
3556.08899 1.83886
3554.04055 1.83741
3551.99211 1.83607
3549.94367 1.83387
3547.89524 1.83264
3545.84680 1.83221
3543.79836 1.83083
3541.74992 1.83041
3539.70148 1.83205
3537.65304 1.83397
3535.60461 1.83548
3533.55617 1.83618
3531.50773 1.83547
3529.45929 1.83483
3527.41085 1.83451
3525.36241 1.83408
3523.31398 1.83540
3521.26554 1.83841
3519.21710 1.84041
3517.16866 1.84006
3515.12022 1.83916
3513.07178 1.83971
3511.02335 1.84091
3508.97491 1.84223
3506.92647 1.84394
3504.87803 1.84581
3502.82959 1.84740
3500.78115 1.84864
3498.73272 1.85030
3496.68428 1.85224
3494.63584 1.85387
3492.58740 1.85580
3490.53896 1.85763
3488.49052 1.85810
3486.44209 1.85843
3484.39365 1.85998
3482.34521 1.86079
3480.29677 1.85993
3478.24833 1.86095
3476.19989 1.86347
3474.15146 1.86456
3472.10302 1.86505
3470.05458 1.86538
3468.00614 1.86573
3465.95770 1.86728
3463.90926 1.87014
3461.86082 1.87369
3459.81239 1.87755
3457.76395 1.87970
3455.71551 1.87941
3453.66707 1.87945
3451.61863 1.88076
3449.57019 1.88247
3447.52176 1.88413
3445.47332 1.88596
3443.42488 1.88809
3441.37644 1.88930
3439.32800 1.88960
3437.27956 1.89170
3435.23113 1.89503
3433.18269 1.89725
3431.13425 1.89939
3429.08581 1.90209
3427.03737 1.90561
3424.98893 1.90991
3422.94050 1.91418
3420.89206 1.91732
3418.84362 1.91908
3416.79518 1.92214
3414.74674 1.92549
3412.69830 1.92586
3410.64987 1.92598
3408.60143 1.92804
3406.55299 1.92860
3404.50455 1.92669
3402.45611 1.92500
3400.40767 1.92428
3398.35924 1.92382
3396.31080 1.92475
3394.26236 1.92726
3392.21392 1.92832
3390.16548 1.92658
3388.11704 1.92387
3386.06861 1.92253
3384.02017 1.92396
3381.97173 1.92543
3379.92329 1.92438
3377.87485 1.92430
3375.82641 1.92593
3373.77798 1.92514
3371.72954 1.92156
3369.68110 1.91826
3367.63266 1.91850
3365.58422 1.92034
3363.53578 1.91927
3361.48735 1.91690
3359.43891 1.91615
3357.39047 1.91584
3355.34203 1.91445
3353.29359 1.91305
3351.24515 1.91216
3349.19672 1.91118
3347.14828 1.91022
3345.09984 1.90905
3343.05140 1.90808
3341.00296 1.90719
3338.95452 1.90603
3336.90609 1.90636
3334.85765 1.90828
3332.80921 1.90868
3330.76077 1.90705
3328.71233 1.90648
3326.66389 1.90754
3324.61545 1.90845
3322.56702 1.90906
3320.51858 1.90897
3318.47014 1.90730
3316.42170 1.90588
3314.37326 1.90506
3312.32482 1.90342
3310.27639 1.90212
3308.22795 1.90162
3306.17951 1.90120
3304.13107 1.90133
3302.08263 1.90285
3300.03419 1.90425
3297.98576 1.90386
3295.93732 1.90385
3293.88888 1.90532
3291.84044 1.90575
3289.79200 1.90343
3287.74356 1.90113
3285.69513 1.89962
3283.64669 1.89651
3281.59825 1.89482
3279.54981 1.89730
3277.50137 1.90068
3275.45293 1.90175
3273.40450 1.90040
3271.35606 1.89737
3269.30762 1.89411
3267.25918 1.89151
3265.21074 1.89030
3263.16230 1.89133
3261.11387 1.89264
3259.06543 1.89295
3257.01699 1.89225
3254.96855 1.88967
3252.92011 1.88612
3250.87167 1.88268
3248.82324 1.88008
3246.77480 1.87939
3244.72636 1.87906
3242.67792 1.87749
3240.62948 1.87604
3238.58104 1.87535
3236.53261 1.87459
3234.48417 1.87367
3232.43573 1.87250
3230.38729 1.87130
3228.33885 1.87042
3226.29041 1.86937
3224.24198 1.86913
3222.19354 1.86992
3220.14510 1.86923
3218.09666 1.86667
3216.04822 1.86508
3213.99978 1.86536
3211.95135 1.86620
3209.90291 1.86679
3207.85447 1.86601
3205.80603 1.86381
3203.75759 1.86212
3201.70915 1.86278
3199.66072 1.86369
3197.61228 1.86156
3195.56384 1.85962
3193.51540 1.85990
3191.46696 1.85977
3189.41852 1.85855
3187.37008 1.85585
3185.32165 1.85241
3183.27321 1.85028
3181.22477 1.84948
3179.17633 1.84960
3177.12789 1.84966
3175.07945 1.84909
3173.03102 1.84903
3170.98258 1.84901
3168.93414 1.84793
3166.88570 1.84618
3164.83726 1.84407
3162.78882 1.84179
3160.74039 1.84007
3158.69195 1.83926
3156.64351 1.83880
3154.59507 1.83828
3152.54663 1.83735
3150.49819 1.83622
3148.44976 1.83555
3146.40132 1.83478
3144.35288 1.83369
3142.30444 1.83309
3140.25600 1.83230
3138.20756 1.83030
3136.15913 1.82816
3134.11069 1.82694
3132.06225 1.82615
3130.01381 1.82498
3127.96537 1.82316
3125.91693 1.82091
3123.86850 1.81923
3121.82006 1.81892
3119.77162 1.81913
3117.72318 1.81838
3115.67474 1.81609
3113.62630 1.81404
3111.57787 1.81364
3109.52943 1.81277
3107.48099 1.81032
3105.43255 1.80947
3103.38411 1.81149
3101.33567 1.81296
3099.28724 1.81179
3097.23880 1.80909
3095.19036 1.80661
3093.14192 1.80584
3091.09348 1.80641
3089.04504 1.80655
3086.99661 1.80549
3084.94817 1.80383
3082.89973 1.80263
3080.85129 1.80235
3078.80285 1.80115
3076.75441 1.79836
3074.70598 1.79596
3072.65754 1.79486
3070.60910 1.79510
3068.56066 1.79627
3066.51222 1.79643
3064.46378 1.79408
3062.41535 1.79093
3060.36691 1.78952
3058.31847 1.78965
3056.27003 1.78966
3054.22159 1.78891
3052.17315 1.78803
3050.12471 1.78729
3048.07628 1.78637
3046.02784 1.78557
3043.97940 1.78496
3041.93096 1.78395
3039.88252 1.78287
3037.83408 1.78246
3035.78565 1.78212
3033.73721 1.78074
3031.68877 1.77899
3029.64033 1.77808
3027.59189 1.77801
3025.54345 1.77801
3023.49502 1.77764
3021.44658 1.77691
3019.39814 1.77607
3017.34970 1.77574
3015.30126 1.77577
3013.25282 1.77527
3011.20439 1.77427
3009.15595 1.77324
3007.10751 1.77248
3005.05907 1.77236
3003.01063 1.77157
3000.96219 1.76973
2998.91376 1.76883
2996.86532 1.76872
2994.81688 1.76896
2992.76844 1.76993
2990.72000 1.77055
2988.67156 1.76988
2986.62313 1.76835
2984.57469 1.76718
2982.52625 1.76744
2980.47781 1.76810
2978.42937 1.76788
2976.38093 1.76782
2974.33250 1.76864
2972.28406 1.76858
2970.23562 1.76731
2968.18718 1.76712
2966.13874 1.76762
2964.09030 1.76771
2962.04187 1.76898
2959.99343 1.77083
2957.94499 1.77156
2955.89655 1.77163
2953.84811 1.77112
2951.79967 1.76970
2949.75124 1.76835
2947.70280 1.76802
2945.65436 1.76815
2943.60592 1.76790
2941.55748 1.76698
2939.50904 1.76643
2937.46061 1.76707
2935.41217 1.76688
2933.36373 1.76554
2931.31529 1.76548
2929.26685 1.76645
2927.21841 1.76689
2925.16998 1.76663
2923.12154 1.76657
2921.07310 1.76712
2919.02466 1.76718
2916.97622 1.76536
2914.92778 1.76300
2912.87934 1.76305
2910.83091 1.76381
2908.78247 1.76271
2906.73403 1.76125
2904.68559 1.76096
2902.63715 1.76126
2900.58871 1.76095
2898.54028 1.76022
2896.49184 1.75970
2894.44340 1.75936
2892.39496 1.75845
2890.34652 1.75684
2888.29808 1.75626
2886.24965 1.75701
2884.20121 1.75790
2882.15277 1.75873
2880.10433 1.75926
2878.05589 1.75891
2876.00745 1.75767
2873.95902 1.75627
2871.91058 1.75524
2869.86214 1.75482
2867.81370 1.75514
2865.76526 1.75576
2863.71682 1.75627
2861.66839 1.75710
2859.61995 1.75784
2857.57151 1.75729
2855.52307 1.75592
2853.47463 1.75484
2851.42619 1.75440
2849.37776 1.75417
2847.32932 1.75299
2845.28088 1.75150
2843.23244 1.75084
2841.18400 1.75051
2839.13556 1.75026
2837.08713 1.74982
2835.03869 1.74894
2832.99025 1.74832
2830.94181 1.74842
2828.89337 1.74892
2826.84493 1.74864
2824.79650 1.74730
2822.74806 1.74575
2820.69962 1.74467
2818.65118 1.74431
2816.60274 1.74428
2814.55430 1.74444
2812.50587 1.74450
2810.45743 1.74373
2808.40899 1.74247
2806.36055 1.74192
2804.31211 1.74206
2802.26367 1.74207
2800.21524 1.74224
2798.16680 1.74256
2796.11836 1.74221
2794.06992 1.74144
2792.02148 1.74107
2789.97304 1.74114
2787.92461 1.74117
2785.87617 1.74072
2783.82773 1.73991
2781.77929 1.73881
2779.73085 1.73745
2777.68241 1.73692
2775.63397 1.73729
2773.58554 1.73703
2771.53710 1.73565
2769.48866 1.73445
2767.44022 1.73385
2765.39178 1.73332
2763.34334 1.73340
2761.29491 1.73395
2759.24647 1.73359
2757.19803 1.73243
2755.14959 1.73220
2753.10115 1.73271
2751.05271 1.73181
2749.00428 1.73016
2746.95584 1.72969
2744.90740 1.72960
2742.85896 1.72906
2740.81052 1.72868
2738.76208 1.72798
2736.71365 1.72661
2734.66521 1.72572
2732.61677 1.72572
2730.56833 1.72612
2728.51989 1.72658
2726.47145 1.72701
2724.42302 1.72718
2722.37458 1.72627
2720.32614 1.72450
2718.27770 1.72308
2716.22926 1.72245
2714.18082 1.72243
2712.13239 1.72255
2710.08395 1.72295
2708.03551 1.72389
2705.98707 1.72456
2703.93863 1.72407
2701.89019 1.72315
2699.84176 1.72315
2697.79332 1.72361
2695.74488 1.72409
2693.69644 1.72519
2691.64800 1.72666
2689.59956 1.72749
2687.55113 1.72690
2685.50269 1.72555
2683.45425 1.72464
2681.40581 1.72417
2679.35737 1.72403
2677.30893 1.72426
2675.26050 1.72428
2673.21206 1.72374
2671.16362 1.72383
2669.11518 1.72544
2667.06674 1.72650
2665.01830 1.72564
2662.96987 1.72515
2660.92143 1.72631
2658.87299 1.72758
2656.82455 1.72739
2654.77611 1.72612
2652.72767 1.72598
2650.67924 1.72734
2648.63080 1.72803
2646.58236 1.72743
2644.53392 1.72675
2642.48548 1.72646
2640.43704 1.72650
2638.38860 1.72696
2636.34017 1.72764
2634.29173 1.72808
2632.24329 1.72822
2630.19485 1.72808
2628.14641 1.72754
2626.09797 1.72701
2624.04954 1.72708
2622.00110 1.72743
2619.95266 1.72763
2617.90422 1.72825
2615.85578 1.72978
2613.80734 1.73105
2611.75891 1.73078
2609.71047 1.72968
2607.66203 1.72881
2605.61359 1.72841
2603.56515 1.72819
2601.51671 1.72800
2599.46828 1.72798
2597.41984 1.72811
2595.37140 1.72817
2593.32296 1.72820
2591.27452 1.72835
2589.22608 1.72862
2587.17765 1.72916
2585.12921 1.72945
2583.08077 1.72913
2581.03233 1.72885
2578.98389 1.72888
2576.93545 1.72889
2574.88702 1.72882
2572.83858 1.72921
2570.79014 1.73036
2568.74170 1.73178
2566.69326 1.73277
2564.64482 1.73275
2562.59639 1.73156
2560.54795 1.73085
2558.49951 1.73166
2556.45107 1.73214
2554.40263 1.73197
2552.35419 1.73284
2550.30576 1.73387
2548.25732 1.73335
2546.20888 1.73262
2544.16044 1.73278
2542.11200 1.73318
2540.06356 1.73392
2538.01513 1.73507
2535.96669 1.73632
2533.91825 1.73716
2531.86981 1.73683
2529.82137 1.73586
2527.77293 1.73551
2525.72450 1.73630
2523.67606 1.73756
2521.62762 1.73776
2519.57918 1.73723
2517.53074 1.73771
2515.48230 1.73849
2513.43387 1.73844
2511.38543 1.73827
2509.33699 1.73833
2507.28855 1.73804
2505.24011 1.73712
2503.19167 1.73592
2501.14324 1.73509
2499.09480 1.73480
2497.04636 1.73492
2494.99792 1.73535
2492.94948 1.73554
2490.90104 1.73497
2488.85260 1.73427
2486.80417 1.73394
2484.75573 1.73353
2482.70729 1.73323
2480.65885 1.73351
2478.61041 1.73415
2476.56197 1.73448
2474.51354 1.73377
2472.46510 1.73249
2470.41666 1.73162
2468.36822 1.73132
2466.31978 1.73112
2464.27134 1.73065
2462.22291 1.72996
2460.17447 1.72979
2458.12603 1.73014
2456.07759 1.73013
2454.02915 1.73000
2451.98071 1.73022
2449.93228 1.73000
2447.88384 1.72907
2445.83540 1.72844
2443.78696 1.72820
2441.73852 1.72800
2439.69008 1.72784
2437.64165 1.72759
2435.59321 1.72705
2433.54477 1.72633
2431.49633 1.72627
2429.44789 1.72671
2427.39945 1.72679
2425.35102 1.72705
2423.30258 1.72802
2421.25414 1.72808
2419.20570 1.72621
2417.15726 1.72435
2415.10882 1.72432
2413.06039 1.72561
2411.01195 1.72679
2408.96351 1.72676
2406.91507 1.72597
2404.86663 1.72596
2402.81819 1.72639
2400.76976 1.72622
2398.72132 1.72615
2396.67288 1.72653
2394.62444 1.72637
2392.57600 1.72585
2390.52756 1.72573
2388.47913 1.72570
2386.43069 1.72542
2384.38225 1.72520
2382.33381 1.72553
2380.28537 1.72657
2378.23693 1.72834
2376.18850 1.73013
2374.14006 1.73187
2372.09162 1.73490
2370.04318 1.73833
2367.99474 1.74173
2365.94630 1.74592
2363.89787 1.74674
2361.84943 1.74238
2359.80099 1.73984
2357.75255 1.74113
2355.70411 1.74082
2353.65567 1.73802
2351.60723 1.73525
2349.55880 1.73327
2347.51036 1.73214
2345.46192 1.73336
2343.41348 1.73659
2341.36504 1.73722
2339.31660 1.73477
2337.26817 1.73146
2335.21973 1.72866
2333.17129 1.72775
2331.12285 1.72859
2329.07441 1.72887
2327.02597 1.72812
2324.97754 1.72812
2322.92910 1.72777
2320.88066 1.72537
2318.83222 1.72395
2316.78378 1.72468
2314.73534 1.72454
2312.68691 1.72236
2310.63847 1.71898
2308.59003 1.71608
2306.54159 1.71489
2304.49315 1.71386
2302.44471 1.71201
2300.39628 1.71078
2298.34784 1.71030
2296.29940 1.70986
2294.25096 1.71018
2292.20252 1.71063
2290.15408 1.70945
2288.10565 1.70754
2286.05721 1.70702
2284.00877 1.70740
2281.96033 1.70742
2279.91189 1.70777
2277.86345 1.70823
2275.81502 1.70743
2273.76658 1.70626
2271.71814 1.70644
2269.66970 1.70776
2267.62126 1.70837
2265.57282 1.70783
2263.52439 1.70717
2261.47595 1.70644
2259.42751 1.70532
2257.37907 1.70469
2255.33063 1.70529
2253.28219 1.70584
2251.23376 1.70521
2249.18532 1.70463
2247.13688 1.70515
2245.08844 1.70591
2243.04000 1.70607
2240.99156 1.70542
2238.94313 1.70473
2236.89469 1.70496
2234.84625 1.70504
2232.79781 1.70491
2230.74937 1.70604
2228.70093 1.70731
2226.65250 1.70694
2224.60406 1.70555
2222.55562 1.70484
2220.50718 1.70539
2218.45874 1.70615
2216.41030 1.70631
2214.36186 1.70613
2212.31343 1.70576
2210.26499 1.70535
2208.21655 1.70522
2206.16811 1.70506
2204.11967 1.70471
2202.07123 1.70473
2200.02280 1.70543
2197.97436 1.70624
2195.92592 1.70664
2193.87748 1.70654
2191.82904 1.70566
2189.78060 1.70469
2187.73217 1.70438
2185.68373 1.70435
2183.63529 1.70461
2181.58685 1.70513
2179.53841 1.70526
2177.48997 1.70507
2175.44154 1.70473
2173.39310 1.70433
2171.34466 1.70438
2169.29622 1.70448
2167.24778 1.70425
2165.19934 1.70393
2163.15091 1.70355
2161.10247 1.70308
2159.05403 1.70282
2157.00559 1.70335
2154.95715 1.70427
2152.90871 1.70484
2150.86028 1.70489
2148.81184 1.70480
2146.76340 1.70479
2144.71496 1.70452
2142.66652 1.70420
2140.61808 1.70458
2138.56965 1.70556
2136.52121 1.70544
2134.47277 1.70431
2132.42433 1.70423
2130.37589 1.70505
2128.32745 1.70574
2126.27902 1.70657
2124.23058 1.70714
2122.18214 1.70667
2120.13370 1.70629
2118.08526 1.70716
2116.03682 1.70843
2113.98839 1.70902
2111.93995 1.70912
2109.89151 1.70937
2107.84307 1.71006
2105.79463 1.71028
2103.74619 1.70937
2101.69776 1.70930
2099.64932 1.71097
2097.60088 1.71175
2095.55244 1.71101
2093.50400 1.71081
2091.45556 1.71163
2089.40713 1.71226
2087.35869 1.71216
2085.31025 1.71226
2083.26181 1.71277
2081.21337 1.71314
2079.16493 1.71364
2077.11649 1.71447
2075.06806 1.71473
2073.01962 1.71413
2070.97118 1.71393
2068.92274 1.71453
2066.87430 1.71482
2064.82586 1.71445
2062.77743 1.71432
2060.72899 1.71476
2058.68055 1.71528
2056.63211 1.71580
2054.58367 1.71624
2052.53523 1.71599
2050.48680 1.71523
2048.43836 1.71474
2046.38992 1.71475
2044.34148 1.71525
2042.29304 1.71560
2040.24460 1.71533
2038.19617 1.71476
2036.14773 1.71404
2034.09929 1.71385
2032.05085 1.71484
2030.00241 1.71612
2027.95397 1.71673
2025.90554 1.71657
2023.85710 1.71587
2021.80866 1.71565
2019.76022 1.71697
2017.71178 1.71873
2015.66334 1.71935
2013.61491 1.71946
2011.56647 1.71999
2009.51803 1.72091
2007.46959 1.72185
2005.42115 1.72239
2003.37271 1.72305
2001.32428 1.72419
1999.27584 1.72508
1997.22740 1.72565
1995.17896 1.72651
1993.13052 1.72781
1991.08208 1.72933
1989.03365 1.73022
1986.98521 1.72976
1984.93677 1.72892
1982.88833 1.72902
1980.83989 1.72950
1978.79145 1.72966
1976.74302 1.72986
1974.69458 1.72992
1972.64614 1.73034
1970.59770 1.73185
1968.54926 1.73291
1966.50082 1.73241
1964.45239 1.73180
1962.40395 1.73178
1960.35551 1.73212
1958.30707 1.73269
1956.25863 1.73297
1954.21019 1.73247
1952.16176 1.73164
1950.11332 1.73126
1948.06488 1.73102
1946.01644 1.73038
1943.96800 1.72966
1941.91956 1.72945
1939.87112 1.73005
1937.82269 1.73048
1935.77425 1.73014
1933.72581 1.73014
1931.67737 1.73043
1929.62893 1.73012
1927.58049 1.72977
1925.53206 1.72994
1923.48362 1.73048
1921.43518 1.73120
1919.38674 1.73154
1917.33830 1.73114
1915.28986 1.73123
1913.24143 1.73240
1911.19299 1.73346
1909.14455 1.73379
1907.09611 1.73363
1905.04767 1.73280
1902.99923 1.73165
1900.95080 1.73151
1898.90236 1.73245
1896.85392 1.73281
1894.80548 1.73235
1892.75704 1.73227
1890.70860 1.73225
1888.66017 1.73156
1886.61173 1.73075
1884.56329 1.72990
1882.51485 1.72891
1880.46641 1.72831
1878.41797 1.72806
1876.36954 1.72809
1874.32110 1.72854
1872.27266 1.72863
1870.22422 1.72825
1868.17578 1.72844
1866.12734 1.72890
1864.07891 1.72936
1862.03047 1.72994
1859.98203 1.73007
1857.93359 1.73009
1855.88515 1.73031
1853.83671 1.73032
1851.78828 1.73005
1849.73984 1.73029
1847.69140 1.73164
1845.64296 1.73317
1843.59452 1.73286
1841.54608 1.73100
1839.49765 1.73030
1837.44921 1.73064
1835.40077 1.73021
1833.35233 1.72952
1831.30389 1.72990
1829.25545 1.73041
1827.20702 1.72923
1825.15858 1.72768
1823.11014 1.72682
1821.06170 1.72610
1819.01326 1.72639
1816.96482 1.72742
1814.91639 1.72772
1812.86795 1.72771
1810.81951 1.72741
1808.77107 1.72687
1806.72263 1.72668
1804.67419 1.72698
1802.62575 1.72776
1800.57732 1.72800
1798.52888 1.72744
1796.48044 1.72700
1794.43200 1.72664
1792.38356 1.72687
1790.33512 1.72713
1788.28669 1.72615
1786.23825 1.72532
1784.18981 1.72532
1782.14137 1.72578
1780.09293 1.72633
1778.04449 1.72671
1775.99606 1.72723
1773.94762 1.72789
1771.89918 1.72931
1769.85074 1.73043
1767.80230 1.72934
1765.75386 1.72754
1763.70543 1.72686
1761.65699 1.72739
1759.60855 1.72814
1757.56011 1.72859
1755.51167 1.72838
1753.46323 1.72806
1751.41480 1.72948
1749.36636 1.73242
1747.31792 1.73281
1745.26948 1.73148
1743.22104 1.73058
1741.17260 1.73025
1739.12417 1.73022
1737.07573 1.72996
1735.02729 1.73143
1732.97885 1.73547
1730.93041 1.73546
1728.88197 1.73306
1726.83354 1.73198
1724.78510 1.73220
1722.73666 1.73279
1720.68822 1.73357
1718.63978 1.73501
1716.59134 1.73682
1714.54291 1.73670
1712.49447 1.73545
1710.44603 1.73409
1708.39759 1.73339
1706.34915 1.73439
1704.30071 1.73592
1702.25228 1.73656
1700.20384 1.73952
1698.15540 1.74378
1696.10696 1.74227
1694.05852 1.73796
1692.01008 1.73609
1689.96165 1.73641
1687.91321 1.73725
1685.86477 1.73787
1683.81633 1.73811
1681.76789 1.73751
1679.71945 1.73747
1677.67102 1.73833
1675.62258 1.73949
1673.57414 1.73977
1671.52570 1.73969
1669.47726 1.73884
1667.42882 1.73608
1665.38038 1.73449
1663.33195 1.73480
1661.28351 1.73431
1659.23507 1.73328
1657.18663 1.73357
1655.13819 1.73417
1653.08975 1.73458
1651.04132 1.73610
1648.99288 1.73726
1646.94444 1.73534
1644.89600 1.73090
1642.84756 1.72864
1640.79912 1.72715
1638.75069 1.72591
1636.70225 1.72589
1634.65381 1.72542
1632.60537 1.72325
1630.55693 1.72174
1628.50849 1.72172
1626.46006 1.72252
1624.41162 1.72266
1622.36318 1.72053
1620.31474 1.71793
1618.26630 1.71736
1616.21786 1.71693
1614.16943 1.71405
1612.12099 1.71122
1610.07255 1.70971
1608.02411 1.70852
1605.97567 1.70671
1603.92723 1.70486
1601.87880 1.70312
1599.83036 1.70107
1597.78192 1.69897
1595.73348 1.69765
1593.68504 1.69690
1591.63660 1.69548
1589.58817 1.69360
1587.53973 1.69200
1585.49129 1.69111
1583.44285 1.69138
1581.39441 1.69228
1579.34597 1.69390
1577.29754 1.69677
1575.24910 1.69660
1573.20066 1.69368
1571.15222 1.69362
1569.10378 1.69612
1567.05534 1.69718
1565.00691 1.69745
1562.95847 1.69857
1560.91003 1.70182
1558.86159 1.70916
1556.81315 1.71008
1554.76471 1.70772
1552.71628 1.70691
1550.66784 1.70759
1548.61940 1.70940
1546.57096 1.71287
1544.52252 1.71984
1542.47408 1.72865
1540.42565 1.73136
1538.37721 1.72774
1536.32877 1.72747
1534.28033 1.73082
1532.23189 1.73470
1530.18345 1.73657
1528.13501 1.73927
1526.08658 1.74309
1524.03814 1.74648
1521.98970 1.75095
1519.94126 1.75472
1517.89282 1.75609
1515.84438 1.75505
1513.79595 1.75272
1511.74751 1.75232
1509.69907 1.75460
1507.65063 1.75684
1505.60219 1.75072
1503.55375 1.74555
1501.50532 1.74443
1499.45688 1.74545
1497.40844 1.74583
1495.36000 1.74281
1493.31156 1.74064
1491.26312 1.74202
1489.21469 1.74286
1487.16625 1.73840
1485.11781 1.73435
1483.06937 1.73294
1481.02093 1.73219
1478.97249 1.73091
1476.92406 1.73039
1474.87562 1.73156
1472.82718 1.73233
1470.77874 1.72966
1468.73030 1.72741
1466.68186 1.72776
1464.63343 1.72931
1462.58499 1.72986
1460.53655 1.73154
1458.48811 1.73736
1456.43967 1.74182
1454.39123 1.73778
1452.34280 1.73408
1450.29436 1.73341
1448.24592 1.73549
1446.19748 1.73737
1444.14904 1.73808
1442.10060 1.73964
1440.05217 1.74251
1438.00373 1.74661
1435.95529 1.75072
1433.90685 1.75146
1431.85841 1.75093
1429.80997 1.75089
1427.76154 1.75075
1425.71310 1.75119
1423.66466 1.75279
1421.61622 1.75498
1419.56778 1.75880
1417.51934 1.76129
1415.47091 1.76006
1413.42247 1.75992
1411.37403 1.76212
1409.32559 1.76455
1407.27715 1.76675
1405.22871 1.76926
1403.18028 1.77080
1401.13184 1.77185
1399.08340 1.77359
1397.03496 1.77532
1394.98652 1.77614
1392.93808 1.77556
1390.88965 1.77475
1388.84121 1.77492
1386.79277 1.77532
1384.74433 1.77476
1382.69589 1.77399
1380.64745 1.77390
1378.59901 1.77491
1376.55058 1.77622
1374.50214 1.77583
1372.45370 1.77337
1370.40526 1.77141
1368.35682 1.77040
1366.30838 1.76917
1364.25995 1.76817
1362.21151 1.76744
1360.16307 1.76565
1358.11463 1.76384
1356.06619 1.76290
1354.01775 1.76271
1351.96932 1.76328
1349.92088 1.76397
1347.87244 1.76461
1345.82400 1.76537
1343.77556 1.76579
1341.72712 1.76651
1339.67869 1.76825
1337.63025 1.76910
1335.58181 1.76843
1333.53337 1.76782
1331.48493 1.76768
1329.43649 1.76783
1327.38806 1.76810
1325.33962 1.76844
1323.29118 1.76919
1321.24274 1.77093
1319.19430 1.77262
1317.14586 1.77292
1315.09743 1.77295
1313.04899 1.77344
1311.00055 1.77350
1308.95211 1.77310
1306.90367 1.77239
1304.85523 1.77122
1302.80680 1.77024
1300.75836 1.77009
1298.70992 1.77053
1296.66148 1.77133
1294.61304 1.77253
1292.56460 1.77350
1290.51617 1.77327
1288.46773 1.77264
1286.41929 1.77269
1284.37085 1.77346
1282.32241 1.77472
1280.27397 1.77577
1278.22554 1.77640
1276.17710 1.77674
1274.12866 1.77717
1272.08022 1.77844
1270.03178 1.77937
1267.98334 1.77899
1265.93491 1.77921
1263.88647 1.78047
1261.83803 1.78131
1259.78959 1.78139
1257.74115 1.78091
1255.69271 1.78020
1253.64428 1.77976
1251.59584 1.77947
1249.54740 1.77884
1247.49896 1.77869
1245.45052 1.77878
1243.40208 1.77750
1241.35364 1.77591
1239.30521 1.77552
1237.25677 1.77561
1235.20833 1.77524
1233.15989 1.77481
1231.11145 1.77458
1229.06301 1.77451
1227.01458 1.77481
1224.96614 1.77497
1222.91770 1.77425
1220.86926 1.77309
1218.82082 1.77291
1216.77238 1.77390
1214.72395 1.77485
1212.67551 1.77554
1210.62707 1.77639
1208.57863 1.77727
1206.53019 1.77791
1204.48175 1.77822
1202.43332 1.77936
1200.38488 1.78192
1198.33644 1.78370
1196.28800 1.78471
1194.23956 1.78686
1192.19112 1.78857
1190.14269 1.78830
1188.09425 1.78804
1186.04581 1.78934
1183.99737 1.79164
1181.94893 1.79403
1179.90049 1.79589
1177.85206 1.79770
1175.80362 1.79956
1173.75518 1.80071
1171.70674 1.80152
1169.65830 1.80279
1167.60986 1.80452
1165.56143 1.80648
1163.51299 1.80877
1161.46455 1.81079
1159.41611 1.81188
1157.36767 1.81234
1155.31923 1.81293
1153.27080 1.81479
1151.22236 1.81736
1149.17392 1.81874
1147.12548 1.81941
1145.07704 1.82139
1143.02860 1.82627
1140.98017 1.83349
1138.93173 1.84016
1136.88329 1.84573
1134.83485 1.85229
1132.78641 1.85980
1130.73797 1.86635
1128.68954 1.87082
1126.64110 1.87331
1124.59266 1.87455
1122.54422 1.87480
1120.49578 1.87466
1118.44734 1.87530
1116.39891 1.87622
1114.35047 1.87626
1112.30203 1.87526
1110.25359 1.87369
1108.20515 1.87249
1106.15671 1.87208
1104.10827 1.87196
1102.05984 1.87130
1100.01140 1.87065
1097.96296 1.87075
1095.91452 1.86984
1093.86608 1.86716
1091.81764 1.86468
1089.76921 1.86420
1087.72077 1.86608
1085.67233 1.86909
1083.62389 1.87154
1081.57545 1.87255
1079.52701 1.87263
1077.47858 1.87219
1075.43014 1.87107
1073.38170 1.87014
1071.33326 1.86997
1069.28482 1.86937
1067.23638 1.86838
1065.18795 1.86817
1063.13951 1.86859
1061.09107 1.86932
1059.04263 1.87021
1056.99419 1.87098
1054.94575 1.87095
1052.89732 1.87032
1050.84888 1.86981
1048.80044 1.86797
1046.75200 1.86368
1044.70356 1.85868
1042.65512 1.85425
1040.60669 1.84978
1038.55825 1.84562
1036.50981 1.84197
1034.46137 1.83783
1032.41293 1.83411
1030.36449 1.83177
1028.31606 1.82987
1026.26762 1.82792
1024.21918 1.82637
1022.17074 1.82527
1020.12230 1.82441
1018.07386 1.82422
1016.02543 1.82471
1013.97699 1.82482
1011.92855 1.82438
1009.88011 1.82412
1007.83167 1.82509
1005.78323 1.82776
1003.73480 1.83111
1001.68636 1.83511
999.63792 1.83945
997.58948 1.84269
995.54104 1.84555
993.49260 1.84980
991.44417 1.85431
989.39573 1.85666
987.34729 1.85710
985.29885 1.85684
983.25041 1.85665
981.20197 1.85716
979.15354 1.85677
977.10510 1.85368
975.05666 1.85006
973.00822 1.84796
970.95978 1.84630
968.91134 1.84516
966.86290 1.84543
964.81447 1.84628
962.76603 1.84774
960.71759 1.85031
958.66915 1.85323
956.62071 1.85649
954.57227 1.85963
952.52384 1.86232
950.47540 1.86530
948.42696 1.86797
946.37852 1.87063
944.33008 1.87379
942.28164 1.87607
940.23321 1.87646
938.18477 1.87589
936.13633 1.87595
934.08789 1.87575
932.03945 1.87378
929.99101 1.87155
927.94258 1.87157
925.89414 1.87272
923.84570 1.87265
921.79726 1.87156
919.74882 1.86885
917.70038 1.86534
915.65195 1.86471
913.60351 1.86688
911.55507 1.86873
909.50663 1.86884
907.45819 1.86742
905.40975 1.86581
903.36132 1.86575
901.31288 1.86653
899.26444 1.86662
897.21600 1.86795
895.16756 1.87195
893.11912 1.87468
891.07069 1.87458
889.02225 1.87501
886.97381 1.87532
884.92537 1.87494
882.87693 1.87627
880.82849 1.87848
878.78006 1.87908
876.73162 1.87849
874.68318 1.87871
872.63474 1.88027
870.58630 1.88193
868.53786 1.88166
866.48943 1.87999
864.44099 1.87827
862.39255 1.87526
860.34411 1.87151
858.29567 1.86988
856.24723 1.87006
854.19880 1.87052
852.15036 1.87112
850.10192 1.87201
848.05348 1.87518
846.00504 1.87842
843.95660 1.87872
841.90817 1.87976
839.85973 1.88191
837.81129 1.88328
835.76285 1.88480
833.71441 1.88562
831.66597 1.88428
829.61753 1.88171
827.56910 1.88098
825.52066 1.88321
823.47222 1.88568
821.42378 1.88828
819.37534 1.89594
817.32690 1.90771
815.27847 1.91441
813.23003 1.91238
811.18159 1.90624
809.13315 1.90243
807.08471 1.90537
805.03627 1.91248
802.98784 1.91721
800.93940 1.91670
798.89096 1.91498
796.84252 1.91637
794.79408 1.91685
792.74564 1.91485
790.69721 1.91451
788.64877 1.91479
786.60033 1.91593
784.55189 1.91851
782.50345 1.91897
780.45501 1.91903
778.40658 1.92238
776.35814 1.92854
774.30970 1.93419
772.26126 1.93444
770.21282 1.93034
768.16438 1.92706
766.11595 1.92556
764.06751 1.92503
762.01907 1.92597
759.97063 1.92915
757.92219 1.93267
755.87375 1.93566
753.82532 1.94141
751.77688 1.94889
749.72844 1.95370
747.68000 1.95593
745.63156 1.95847
743.58312 1.96212
741.53469 1.96393
739.48625 1.96443
737.43781 1.96941
735.38937 1.97961
733.34093 1.98672
731.29249 1.98514
729.24406 1.98142
727.19562 1.97904
725.14718 1.97610
723.09874 1.98005
721.05030 1.99197
719.00186 1.99676
716.95343 1.99422
714.90499 1.99864
712.85655 2.00932
710.80811 2.01915
708.75967 2.02726
706.71123 2.03205
704.66280 2.02818
702.61436 2.01656
700.56592 2.01050
698.51748 2.01428
696.46904 2.02260
694.42060 2.03412
692.37216 2.04102
690.32373 2.03955
688.27529 2.03714
686.22685 2.03360
684.17841 2.02803
682.12997 2.02979
680.08153 2.04082
678.03310 2.04771
675.98466 2.04138
673.93622 2.03123
671.88778 2.03254
669.83934 2.04537
667.79090 2.05399
665.74247 2.04463
663.69403 2.03078
661.64559 2.01640
659.59715 2.00084
657.54871 1.99568
655.50027 2.00833
653.45184 2.02910
651.40340 2.04577
649.35496 2.04243
647.30652 2.02544
645.25808 2.01708
643.20964 2.01631
641.16121 2.01255
639.11277 2.00271
637.06433 1.99706
635.01589 1.99744
632.96745 1.98529
630.91901 1.96974
628.87058 1.97364
626.82214 1.98849
624.77370 1.99386
622.72526 1.99518
620.67682 1.98881
618.62838 1.95612
616.57995 1.94853
614.53151 1.98887
612.48307 1.98548
610.43463 1.92742
608.38619 1.89316
606.33775 1.88803
604.28932 1.88815
602.24088 1.88079
600.19244 1.87401
598.14400 1.89538
