3996.50324 1.80224
3994.45480 1.80594
3992.40636 1.80859
3990.35792 1.80844
3988.30948 1.80737
3986.26104 1.80836
3984.21261 1.81120
3982.16417 1.81394
3980.11573 1.81692
3978.06729 1.82093
3976.01885 1.82521
3973.97041 1.82864
3971.92198 1.83064
3969.87354 1.83232
3967.82510 1.83287
3965.77666 1.83109
3963.72822 1.82916
3961.67978 1.82702
3959.63135 1.82341
3957.58291 1.82019
3955.53447 1.81864
3953.48603 1.81827
3951.43759 1.81878
3949.38915 1.81977
3947.34072 1.81949
3945.29228 1.81801
3943.24384 1.81768
3941.19540 1.81748
3939.14696 1.81674
3937.09852 1.81739
3935.05009 1.81833
3933.00165 1.82079
3930.95321 1.82577
3928.90477 1.82740
3926.85633 1.82650
3924.80789 1.82919
3922.75946 1.83423
3920.71102 1.83620
3918.66258 1.83701
3916.61414 1.84060
3914.56570 1.84424
3912.51726 1.84316
3910.46883 1.83892
3908.42039 1.83573
3906.37195 1.83549
3904.32351 1.84029
3902.27507 1.84782
3900.22663 1.85411
3898.17820 1.86022
3896.12976 1.86317
3894.08132 1.86409
3892.03288 1.86901
3889.98444 1.87618
3887.93600 1.87956
3885.88756 1.88488
3883.83913 1.89153
3881.79069 1.89313
3879.74225 1.89459
3877.69381 1.89436
3875.64537 1.89251
3873.59693 1.89270
3871.54850 1.88974
3869.50006 1.88272
3867.45162 1.87830
3865.40318 1.87506
3863.35474 1.87047
3861.30630 1.86435
3859.25787 1.85899
3857.20943 1.85449
3855.16099 1.85019
3853.11255 1.85721
3851.06411 1.87028
3849.01567 1.87134
3846.96724 1.86684
3844.91880 1.86372
3842.87036 1.86475
3840.82192 1.86697
3838.77348 1.87242
3836.72504 1.88064
3834.67661 1.88170
3832.62817 1.87841
3830.57973 1.87614
3828.53129 1.87518
3826.48285 1.87572
3824.43441 1.87455
3822.38598 1.86946
3820.33754 1.86738
3818.28910 1.86581
3816.24066 1.86213
3814.19222 1.86055
3812.14378 1.85564
3810.09535 1.84739
3808.04691 1.84277
3805.99847 1.84483
3803.95003 1.84348
3801.90159 1.84330
3799.85315 1.85145
3797.80472 1.85265
3795.75628 1.84864
3793.70784 1.84432
3791.65940 1.83951
3789.61096 1.83649
3787.56252 1.83552
3785.51409 1.83512
3783.46565 1.83506
3781.41721 1.83500
3779.36877 1.83711
3777.32033 1.83870
3775.27189 1.83511
3773.22346 1.83031
3771.17502 1.82890
3769.12658 1.83314
3767.07814 1.83696
3765.02970 1.83721
3762.98126 1.83648
3760.93283 1.83614
3758.88439 1.84068
3756.83595 1.84575
3754.78751 1.84413
3752.73907 1.84126
3750.69063 1.85138
3748.64219 1.86514
3746.59376 1.86541
3744.54532 1.86648
3742.49688 1.87208
3740.44844 1.87090
3738.40000 1.86657
3736.35156 1.86897
3734.30313 1.87861
3732.25469 1.87928
3730.20625 1.87282
3728.15781 1.86840
3726.10937 1.86976
3724.06093 1.87251
3722.01250 1.87137
3719.96406 1.86903
3717.91562 1.86650
3715.86718 1.86420
3713.81874 1.86711
3711.77030 1.88110
3709.72187 1.89178
3707.67343 1.88818
3705.62499 1.88210
3703.57655 1.87748
3701.52811 1.87566
3699.47967 1.87288
3697.43124 1.86670
3695.38280 1.86290
3693.33436 1.86457
3691.28592 1.87342
3689.23748 1.89143
3687.18904 1.89959
3685.14061 1.89450
3683.09217 1.89013
3681.04373 1.89190
3678.99529 1.89866
3676.94685 1.90981
3674.89841 1.92639
3672.84998 1.93423
3670.80154 1.93818
3668.75310 1.94507
3666.70466 1.94479
3664.65622 1.94126
3662.60778 1.94120
3660.55935 1.94335
3658.51091 1.94415
3656.46247 1.94796
3654.41403 1.95397
3652.36559 1.95323
3650.31715 1.95523
3648.26872 1.97541
3646.22028 1.98257
3644.17184 1.97688
3642.12340 1.97389
3640.07496 1.97560
3638.02652 1.97869
3635.97809 1.98193
3633.92965 1.98674
3631.88121 1.99166
3629.83277 1.99839
3627.78433 2.01442
3625.73589 2.02143
3623.68746 2.01745
3621.63902 2.01471
3619.59058 2.02277
3617.54214 2.03401
3615.49370 2.03515
3613.44526 2.03667
3611.39682 2.04305
3609.34839 2.04660
3607.29995 2.04706
3605.25151 2.04721
3603.20307 2.04799
3601.15463 2.05089
3599.10619 2.05522
3597.05776 2.06050
3595.00932 2.06752
3592.96088 2.07045
3590.91244 2.06940
3588.86400 2.07454
3586.81556 2.08746
3584.76713 2.09445
3582.71869 2.09419
3580.67025 2.09273
3578.62181 2.09400
3576.57337 2.09650
3574.52493 2.09862
3572.47650 2.10377
3570.42806 2.11267
3568.37962 2.12212
3566.33118 2.12620
3564.28274 2.12226
3562.23430 2.11768
3560.18587 2.11526
3558.13743 2.11266
3556.08899 2.10863
3554.04055 2.10641
3551.99211 2.10828
3549.94367 2.11197
3547.89524 2.11605
3545.84680 2.12050
3543.79836 2.12527
3541.74992 2.12758
3539.70148 2.12552
3537.65304 2.12161
3535.60461 2.11969
3533.55617 2.12075
3531.50773 2.12146
3529.45929 2.12061
3527.41085 2.12178
3525.36241 2.12646
3523.31398 2.13144
3521.26554 2.13480
3519.21710 2.13709
3517.16866 2.13828
3515.12022 2.13945
3513.07178 2.14301
3511.02335 2.14737
3508.97491 2.14898
3506.92647 2.14781
3504.87803 2.14634
3502.82959 2.14508
3500.78115 2.14327
3498.73272 2.14462
3496.68428 2.14956
3494.63584 2.15278
3492.58740 2.15117
3490.53896 2.14510
3488.49052 2.13952
3486.44209 2.14026
3484.39365 2.14632
3482.34521 2.15236
3480.29677 2.15433
3478.24833 2.15348
3476.19989 2.15143
3474.15146 2.14850
3472.10302 2.14837
3470.05458 2.15000
3468.00614 2.14982
3465.95770 2.14957
3463.90926 2.14897
3461.86082 2.14817
3459.81239 2.15029
3457.76395 2.15158
3455.71551 2.14677
3453.66707 2.14097
3451.61863 2.13983
3449.57019 2.13963
3447.52176 2.13797
3445.47332 2.13734
3443.42488 2.13688
3441.37644 2.13530
3439.32800 2.13883
3437.27956 2.15305
3435.23113 2.16967
3433.18269 2.17883
3431.13425 2.18113
3429.08581 2.18011
3427.03737 2.17775
3424.98893 2.17350
3422.94050 2.16853
3420.89206 2.16377
3418.84362 2.15744
3416.79518 2.15191
3414.74674 2.14889
3412.69830 2.14679
3410.64987 2.14687
3408.60143 2.14783
3406.55299 2.14893
3404.50455 2.15057
3402.45611 2.14745
3400.40767 2.14371
3398.35924 2.14732
3396.31080 2.15176
3394.26236 2.15112
3392.21392 2.14951
3390.16548 2.14762
3388.11704 2.14670
3386.06861 2.14812
3384.02017 2.14790
3381.97173 2.14745
3379.92329 2.14921
3377.87485 2.15136
3375.82641 2.15200
3373.77798 2.15037
3371.72954 2.15036
3369.68110 2.15407
3367.63266 2.15679
3365.58422 2.15702
3363.53578 2.15768
3361.48735 2.15808
3359.43891 2.15656
3357.39047 2.15427
3355.34203 2.15291
3353.29359 2.15340
3351.24515 2.15507
3349.19672 2.15524
3347.14828 2.15436
3345.09984 2.15568
3343.05140 2.15694
3341.00296 2.15576
3338.95452 2.15561
3336.90609 2.15676
3334.85765 2.15571
3332.80921 2.15423
3330.76077 2.15641
3328.71233 2.15917
3326.66389 2.15778
3324.61545 2.15364
3322.56702 2.14897
3320.51858 2.14721
3318.47014 2.14964
3316.42170 2.15023
3314.37326 2.14579
3312.32482 2.14192
3310.27639 2.14305
3308.22795 2.14440
3306.17951 2.14277
3304.13107 2.14338
3302.08263 2.14661
3300.03419 2.14607
3297.98576 2.14226
3295.93732 2.14178
3293.88888 2.14523
3291.84044 2.14651
3289.79200 2.14542
3287.74356 2.14571
3285.69513 2.14407
3283.64669 2.14094
3281.59825 2.14069
3279.54981 2.14207
3277.50137 2.14496
3275.45293 2.14763
3273.40450 2.14559
3271.35606 2.14213
3269.30762 2.14079
3267.25918 2.13861
3265.21074 2.13574
3263.16230 2.13668
3261.11387 2.13839
3259.06543 2.13483
3257.01699 2.13164
3254.96855 2.13308
3252.92011 2.13337
3250.87167 2.13132
3248.82324 2.13145
3246.77480 2.13230
3244.72636 2.12996
3242.67792 2.12650
3240.62948 2.12568
3238.58104 2.12842
3236.53261 2.13062
3234.48417 2.12986
3232.43573 2.12984
3230.38729 2.12989
3228.33885 2.12649
3226.29041 2.12432
3224.24198 2.12881
3222.19354 2.13262
3220.14510 2.12785
3218.09666 2.12059
3216.04822 2.11745
3213.99978 2.11809
3211.95135 2.12066
3209.90291 2.12223
3207.85447 2.12191
3205.80603 2.12261
3203.75759 2.12555
3201.70915 2.12705
3199.66072 2.12483
3197.61228 2.12196
3195.56384 2.12012
3193.51540 2.11832
3191.46696 2.11652
3189.41852 2.11627
3187.37008 2.11733
3185.32165 2.11832
3183.27321 2.12066
3181.22477 2.12401
3179.17633 2.12456
3177.12789 2.12132
3175.07945 2.11807
3173.03102 2.11711
3170.98258 2.11558
3168.93414 2.11123
3166.88570 2.10791
3164.83726 2.10970
3162.78882 2.11506
3160.74039 2.11822
3158.69195 2.11655
3156.64351 2.11384
3154.59507 2.11158
3152.54663 2.10961
3150.49819 2.10910
3148.44976 2.10953
3146.40132 2.11024
3144.35288 2.11071
3142.30444 2.11018
3140.25600 2.10924
3138.20756 2.10786
3136.15913 2.10519
3134.11069 2.10454
3132.06225 2.10740
3130.01381 2.10919
3127.96537 2.10888
3125.91693 2.10975
3123.86850 2.10980
3121.82006 2.10733
3119.77162 2.10733
3117.72318 2.10943
3115.67474 2.10920
3113.62630 2.10812
3111.57787 2.10797
3109.52943 2.10740
3107.48099 2.10815
3105.43255 2.11076
3103.38411 2.11185
3101.33567 2.11050
3099.28724 2.10829
3097.23880 2.10706
3095.19036 2.10623
3093.14192 2.10487
3091.09348 2.10326
3089.04504 2.10301
3086.99661 2.10486
3084.94817 2.10519
3082.89973 2.10233
3080.85129 2.09961
3078.80285 2.10006
3076.75441 2.10138
3074.70598 2.10159
3072.65754 2.10403
3070.60910 2.10923
3068.56066 2.11157
3066.51222 2.10946
3064.46378 2.10779
3062.41535 2.10713
3060.36691 2.10582
3058.31847 2.10516
3056.27003 2.10480
3054.22159 2.10327
3052.17315 2.10374
3050.12471 2.10854
3048.07628 2.11229
3046.02784 2.11289
3043.97940 2.11473
3041.93096 2.11588
3039.88252 2.11298
3037.83408 2.11100
3035.78565 2.11277
3033.73721 2.11488
3031.68877 2.11624
3029.64033 2.11773
3027.59189 2.11864
3025.54345 2.11962
3023.49502 2.12070
3021.44658 2.12141
3019.39814 2.12448
3017.34970 2.12833
3015.30126 2.12893
3013.25282 2.12752
3011.20439 2.12735
3009.15595 2.12991
3007.10751 2.13370
3005.05907 2.13583
3003.01063 2.13636
3000.96219 2.13872
2998.91376 2.14210
2996.86532 2.14381
2994.81688 2.14515
2992.76844 2.14663
2990.72000 2.14719
2988.67156 2.14776
2986.62313 2.14932
2984.57469 2.15122
2982.52625 2.15263
2980.47781 2.15187
2978.42937 2.14988
2976.38093 2.15056
2974.33250 2.15247
2972.28406 2.15030
2970.23562 2.14644
2968.18718 2.14662
2966.13874 2.14834
2964.09030 2.14856
2962.04187 2.14922
2959.99343 2.15075
2957.94499 2.15061
2955.89655 2.14908
2953.84811 2.14948
2951.79967 2.15190
2949.75124 2.15462
2947.70280 2.15493
2945.65436 2.15185
2943.60592 2.15054
2941.55748 2.15252
2939.50904 2.15350
2937.46061 2.15396
2935.41217 2.15524
2933.36373 2.15390
2931.31529 2.15016
2929.26685 2.14963
2927.21841 2.15334
2925.16998 2.15689
2923.12154 2.15809
2921.07310 2.15744
2919.02466 2.15622
2916.97622 2.15390
2914.92778 2.15170
2912.87934 2.15382
2910.83091 2.15827
2908.78247 2.16214
2906.73403 2.16537
2904.68559 2.16577
2902.63715 2.16287
2900.58871 2.15968
2898.54028 2.15875
2896.49184 2.15996
2894.44340 2.16072
2892.39496 2.15895
2890.34652 2.15854
2888.29808 2.16254
2886.24965 2.16421
2884.20121 2.15961
2882.15277 2.15529
2880.10433 2.15444
2878.05589 2.15313
2876.00745 2.15140
2873.95902 2.15267
2871.91058 2.15445
2869.86214 2.15239
2867.81370 2.14877
2865.76526 2.14721
2863.71682 2.14629
2861.66839 2.14516
2859.61995 2.14600
2857.57151 2.14877
2855.52307 2.15098
2853.47463 2.15127
2851.42619 2.15014
2849.37776 2.14825
2847.32932 2.14472
2845.28088 2.14159
2843.23244 2.14268
2841.18400 2.14487
2839.13556 2.14355
2837.08713 2.14009
2835.03869 2.13827
2832.99025 2.14033
2830.94181 2.14374
2828.89337 2.14450
2826.84493 2.14211
2824.79650 2.13826
2822.74806 2.13356
2820.69962 2.12899
2818.65118 2.12660
2816.60274 2.12287
2814.55430 2.11575
2812.50587 2.10953
2810.45743 2.10543
2808.40899 2.10261
2806.36055 2.10043
2804.31211 2.09729
2802.26367 2.09404
2800.21524 2.09264
2798.16680 2.09205
2796.11836 2.09067
2794.06992 2.08869
2792.02148 2.08677
2789.97304 2.08568
2787.92461 2.08569
2785.87617 2.08361
2783.82773 2.07795
2781.77929 2.07385
2779.73085 2.07314
2777.68241 2.07313
2775.63397 2.07360
2773.58554 2.07430
2771.53710 2.07445
2769.48866 2.07471
2767.44022 2.07452
2765.39178 2.07279
2763.34334 2.07044
2761.29491 2.06895
2759.24647 2.06907
2757.19803 2.06954
2755.14959 2.06914
2753.10115 2.06819
2751.05271 2.06674
2749.00428 2.06573
2746.95584 2.06609
2744.90740 2.06713
2742.85896 2.06778
2740.81052 2.06652
2738.76208 2.06408
2736.71365 2.06345
2734.66521 2.06362
2732.61677 2.06229
2730.56833 2.06045
2728.51989 2.06049
2726.47145 2.06283
2724.42302 2.06442
2722.37458 2.06307
2720.32614 2.06097
2718.27770 2.06133
2716.22926 2.06242
2714.18082 2.06218
2712.13239 2.06169
2710.08395 2.06118
2708.03551 2.06105
2705.98707 2.06131
2703.93863 2.06175
2701.89019 2.06299
2699.84176 2.06450
2697.79332 2.06473
2695.74488 2.06407
2693.69644 2.06299
2691.64800 2.06245
2689.59956 2.06471
2687.55113 2.06778
2685.50269 2.06975
2683.45425 2.07155
2681.40581 2.07283
2679.35737 2.07403
2677.30893 2.07617
2675.26050 2.07890
2673.21206 2.08212
2671.16362 2.08588
2669.11518 2.08916
2667.06674 2.09118
2665.01830 2.09283
2662.96987 2.09579
2660.92143 2.09970
2658.87299 2.10095
2656.82455 2.09788
2654.77611 2.09544
2652.72767 2.09690
2650.67924 2.09957
2648.63080 2.10240
2646.58236 2.10616
2644.53392 2.10898
2642.48548 2.10937
2640.43704 2.10938
2638.38860 2.11044
2636.34017 2.11147
2634.29173 2.11151
2632.24329 2.11094
2630.19485 2.11111
2628.14641 2.11228
2626.09797 2.11454
2624.04954 2.11896
2622.00110 2.12360
2619.95266 2.12553
2617.90422 2.12523
2615.85578 2.12469
2613.80734 2.12630
2611.75891 2.13048
2609.71047 2.13269
2607.66203 2.13149
2605.61359 2.13274
2603.56515 2.13721
2601.51671 2.13932
2599.46828 2.13826
2597.41984 2.13722
2595.37140 2.13759
2593.32296 2.13793
2591.27452 2.13635
2589.22608 2.13316
2587.17765 2.13086
2585.12921 2.13048
2583.08077 2.13132
2581.03233 2.13275
2578.98389 2.13287
2576.93545 2.13164
2574.88702 2.13195
2572.83858 2.13461
2570.79014 2.13818
2568.74170 2.13987
2566.69326 2.13798
2564.64482 2.13633
2562.59639 2.13794
2560.54795 2.14012
2558.49951 2.14195
2556.45107 2.14523
2554.40263 2.14617
2552.35419 2.14252
2550.30576 2.14075
2548.25732 2.14250
2546.20888 2.14351
2544.16044 2.14396
2542.11200 2.14531
2540.06356 2.14701
2538.01513 2.14809
2535.96669 2.14794
2533.91825 2.14911
2531.86981 2.15200
2529.82137 2.15245
2527.77293 2.15051
2525.72450 2.14955
2523.67606 2.15028
2521.62762 2.15295
2519.57918 2.15743
2517.53074 2.15995
2515.48230 2.15863
2513.43387 2.15626
2511.38543 2.15510
2509.33699 2.15516
2507.28855 2.15534
2505.24011 2.15503
2503.19167 2.15516
2501.14324 2.15577
2499.09480 2.15502
2497.04636 2.15305
2494.99792 2.15096
2492.94948 2.14790
2490.90104 2.14286
2488.85260 2.13812
2486.80417 2.13571
2484.75573 2.13249
2482.70729 2.12671
2480.65885 2.12176
2478.61041 2.11902
2476.56197 2.11587
2474.51354 2.11196
2472.46510 2.10843
2470.41666 2.10467
2468.36822 2.10138
2466.31978 2.09925
2464.27134 2.09671
2462.22291 2.09277
2460.17447 2.08863
2458.12603 2.08470
2456.07759 2.07944
2454.02915 2.07352
2451.98071 2.06960
2449.93228 2.06780
2447.88384 2.06539
2445.83540 2.06123
2443.78696 2.05781
2441.73852 2.05656
2439.69008 2.05557
2437.64165 2.05333
2435.59321 2.05025
2433.54477 2.04673
2431.49633 2.04313
2429.44789 2.04261
2427.39945 2.04541
2425.35102 2.04618
2423.30258 2.04415
2421.25414 2.04202
2419.20570 2.03981
2417.15726 2.03793
2415.10882 2.03672
2413.06039 2.03502
2411.01195 2.03299
2408.96351 2.03131
2406.91507 2.03006
2404.86663 2.02947
2402.81819 2.02745
2400.76976 2.02391
2398.72132 2.02188
2396.67288 2.02121
2394.62444 2.02096
2392.57600 2.02127
2390.52756 2.02100
2388.47913 2.01979
2386.43069 2.01903
2384.38225 2.01934
2382.33381 2.02037
2380.28537 2.02197
2378.23693 2.02521
2376.18850 2.02858
2374.14006 2.02804
2372.09162 2.02761
2370.04318 2.03037
2367.99474 2.03087
2365.94630 2.02839
2363.89787 2.02412
2361.84943 2.01966
2359.80099 2.02032
2357.75255 2.02734
2355.70411 2.03456
2353.65567 2.03531
2351.60723 2.03139
2349.55880 2.02743
2347.51036 2.02316
2345.46192 2.01889
2343.41348 2.01853
2341.36504 2.02155
2339.31660 2.02420
2337.26817 2.02410
2335.21973 2.02331
2333.17129 2.02850
2331.12285 2.03603
2329.07441 2.03826
2327.02597 2.03901
2324.97754 2.04059
2322.92910 2.04034
2320.88066 2.03790
2318.83222 2.03560
2316.78378 2.03579
2314.73534 2.03684
2312.68691 2.03617
2310.63847 2.03498
2308.59003 2.03456
2306.54159 2.03535
2304.49315 2.03763
2302.44471 2.03834
2300.39628 2.03640
2298.34784 2.03587
2296.29940 2.03807
2294.25096 2.04064
2292.20252 2.04209
2290.15408 2.04294
2288.10565 2.04339
2286.05721 2.04313
2284.00877 2.04302
2281.96033 2.04399
2279.91189 2.04496
2277.86345 2.04458
2275.81502 2.04431
2273.76658 2.04449
2271.71814 2.04492
2269.66970 2.04695
2267.62126 2.04962
2265.57282 2.05069
2263.52439 2.04999
2261.47595 2.05049
2259.42751 2.05292
2257.37907 2.05349
2255.33063 2.05177
2253.28219 2.05108
2251.23376 2.05163
2249.18532 2.05104
2247.13688 2.04989
2245.08844 2.05037
2243.04000 2.05141
2240.99156 2.05071
2238.94313 2.04995
2236.89469 2.05152
2234.84625 2.05354
2232.79781 2.05379
2230.74937 2.05215
2228.70093 2.04999
2226.65250 2.04948
2224.60406 2.04983
2222.55562 2.04907
2220.50718 2.04829
2218.45874 2.04918
2216.41030 2.05033
2214.36186 2.05120
2212.31343 2.05361
2210.26499 2.05593
2208.21655 2.05685
2206.16811 2.05743
2204.11967 2.05599
2202.07123 2.05356
2200.02280 2.05416
2197.97436 2.05619
2195.92592 2.05641
2193.87748 2.05543
2191.82904 2.05448
2189.78060 2.05505
2187.73217 2.05750
2185.68373 2.05838
2183.63529 2.05638
2181.58685 2.05482
2179.53841 2.05450
2177.48997 2.05437
2175.44154 2.05424
2173.39310 2.05253
2171.34466 2.05044
2169.29622 2.05050
2167.24778 2.05042
2165.19934 2.04812
2163.15091 2.04575
2161.10247 2.04526
2159.05403 2.04611
2157.00559 2.04721
2154.95715 2.04729
2152.90871 2.04520
2150.86028 2.04261
2148.81184 2.04149
2146.76340 2.04076
2144.71496 2.03897
2142.66652 2.03623
2140.61808 2.03411
2138.56965 2.03304
2136.52121 2.03250
2134.47277 2.03283
2132.42433 2.03354
2130.37589 2.03343
2128.32745 2.03232
2126.27902 2.03196
2124.23058 2.03293
2122.18214 2.03257
2120.13370 2.03061
2118.08526 2.02935
2116.03682 2.02907
2113.98839 2.02961
2111.93995 2.03042
2109.89151 2.03030
2107.84307 2.02974
2105.79463 2.02883
2103.74619 2.02658
2101.69776 2.02356
2099.64932 2.02322
2097.60088 2.02672
2095.55244 2.02890
2093.50400 2.02786
2091.45556 2.02767
2089.40713 2.02974
2087.35869 2.03173
2085.31025 2.03193
2083.26181 2.03107
2081.21337 2.03084
2079.16493 2.03145
2077.11649 2.03228
2075.06806 2.03447
2073.01962 2.03735
2070.97118 2.03828
2068.92274 2.03792
2066.87430 2.03862
2064.82586 2.04075
2062.77743 2.04252
2060.72899 2.04403
2058.68055 2.04673
2056.63211 2.04977
2054.58367 2.05192
2052.53523 2.05279
2050.48680 2.05278
2048.43836 2.05292
2046.38992 2.05370
2044.34148 2.05444
2042.29304 2.05593
2040.24460 2.05780
2038.19617 2.05730
2036.14773 2.05630
2034.09929 2.05740
2032.05085 2.05865
2030.00241 2.05843
2027.95397 2.05755
2025.90554 2.05703
2023.85710 2.05793
2021.80866 2.06022
2019.76022 2.06196
2017.71178 2.06336
2015.66334 2.06453
2013.61491 2.06573
2011.56647 2.06926
2009.51803 2.07265
2007.46959 2.07277
2005.42115 2.07174
2003.37271 2.07239
2001.32428 2.07593
1999.27584 2.08108
1997.22740 2.08497
1995.17896 2.08698
1993.13052 2.08948
1991.08208 2.09264
1989.03365 2.09428
1986.98521 2.09582
1984.93677 2.09842
1982.88833 2.10008
1980.83989 2.10011
1978.79145 2.09895
1976.74302 2.09803
1974.69458 2.09973
1972.64614 2.10270
1970.59770 2.10549
1968.54926 2.10916
1966.50082 2.11327
1964.45239 2.11708
1962.40395 2.12035
1960.35551 2.12312
1958.30707 2.12606
1956.25863 2.12889
1954.21019 2.13198
1952.16176 2.13749
1950.11332 2.14375
1948.06488 2.14823
1946.01644 2.15228
1943.96800 2.15732
1941.91956 2.16314
1939.87112 2.16770
1937.82269 2.16967
1935.77425 2.16865
1933.72581 2.16675
1931.67737 2.16720
1929.62893 2.17009
1927.58049 2.17462
1925.53206 2.17922
1923.48362 2.18250
1921.43518 2.18500
1919.38674 2.18827
1917.33830 2.19374
1915.28986 2.19936
1913.24143 2.20208
1911.19299 2.20278
1909.14455 2.20400
1907.09611 2.20663
1905.04767 2.20945
1902.99923 2.20953
1900.95080 2.20747
1898.90236 2.20887
1896.85392 2.21421
1894.80548 2.22000
1892.75704 2.22428
1890.70860 2.22550
1888.66017 2.22576
1886.61173 2.22725
1884.56329 2.22819
1882.51485 2.23029
1880.46641 2.23334
1878.41797 2.23527
1876.36954 2.23758
1874.32110 2.23921
1872.27266 2.24010
1870.22422 2.24304
1868.17578 2.24648
1866.12734 2.24725
1864.07891 2.24857
1862.03047 2.25089
1859.98203 2.25195
1857.93359 2.25295
1855.88515 2.25225
1853.83671 2.24894
1851.78828 2.24724
1849.73984 2.24816
1847.69140 2.24855
1845.64296 2.24578
1843.59452 2.24052
1841.54608 2.23835
1839.49765 2.24120
1837.44921 2.24393
1835.40077 2.24182
1833.35233 2.23867
1831.30389 2.23911
1829.25545 2.24164
1827.20702 2.24283
1825.15858 2.24257
1823.11014 2.24031
1821.06170 2.23698
1819.01326 2.23453
1816.96482 2.23414
1814.91639 2.23501
1812.86795 2.23643
1810.81951 2.23681
1808.77107 2.23489
1806.72263 2.23312
1804.67419 2.23304
1802.62575 2.23491
1800.57732 2.23800
1798.52888 2.24121
1796.48044 2.24407
1794.43200 2.24543
1792.38356 2.24409
1790.33512 2.24184
1788.28669 2.24250
1786.23825 2.24650
1784.18981 2.25030
1782.14137 2.25055
1780.09293 2.24860
1778.04449 2.24631
1775.99606 2.24454
1773.94762 2.24347
1771.89918 2.24189
1769.85074 2.23795
1767.80230 2.23585
1765.75386 2.23708
1763.70543 2.23806
1761.65699 2.23969
1759.60855 2.24384
1757.56011 2.24834
1755.51167 2.24949
1753.46323 2.24561
1751.41480 2.24204
1749.36636 2.24603
1747.31792 2.25304
1745.26948 2.25471
1743.22104 2.25436
1741.17260 2.25766
1739.12417 2.26273
1737.07573 2.26269
1735.02729 2.25981
1732.97885 2.26483
1730.93041 2.27150
1728.88197 2.27309
1726.83354 2.27394
1724.78510 2.27579
1722.73666 2.27817
1720.68822 2.28114
1718.63978 2.28688
1716.59134 2.29648
1714.54291 2.30019
1712.49447 2.29871
1710.44603 2.29888
1708.39759 2.30241
1706.34915 2.31022
1704.30071 2.31947
1702.25228 2.32749
1700.20384 2.33936
1698.15540 2.34871
1696.10696 2.35283
1694.05852 2.35035
1692.01008 2.34384
1689.96165 2.34144
1687.91321 2.34531
1685.86477 2.35587
1683.81633 2.37359
1681.76789 2.38047
1679.71945 2.38213
1677.67102 2.38538
1675.62258 2.38912
1673.57414 2.39329
1671.52570 2.39876
1669.47726 2.40964
1667.42882 2.41991
1665.38038 2.42451
1663.33195 2.42705
1661.28351 2.42507
1659.23507 2.42395
1657.18663 2.42583
1655.13819 2.42584
1653.08975 2.43396
1651.04132 2.44814
1648.99288 2.45060
1646.94444 2.45711
1644.89600 2.46927
1642.84756 2.47326
1640.79912 2.47585
1638.75069 2.48312
1636.70225 2.49591
1634.65381 2.50210
1632.60537 2.49959
1630.55693 2.49932
1628.50849 2.50652
1626.46006 2.51963
1624.41162 2.53022
1622.36318 2.53251
1620.31474 2.52703
1618.26630 2.52578
1616.21786 2.53850
1614.16943 2.54767
1612.12099 2.54379
1610.07255 2.53793
1608.02411 2.53382
1605.97567 2.53691
1603.92723 2.54555
1601.87880 2.54866
1599.83036 2.54479
1597.78192 2.53648
1595.73348 2.52257
1593.68504 2.50156
1591.63660 2.46831
1589.58817 2.41518
1587.53973 2.34507
1585.49129 2.25880
1583.44285 2.15462
1581.39441 2.04163
1579.34597 1.93880
1577.29754 1.82754
1575.24910 1.71197
1573.20066 1.65530
1571.15222 1.62638
1569.10378 1.59828
1567.05534 1.58062
1565.00691 1.57425
1562.95847 1.57262
1560.91003 1.57728
1558.86159 1.60095
1556.81315 1.63153
1554.76471 1.66497
1552.71628 1.71712
1550.66784 1.79022
1548.61940 1.87474
1546.57096 1.94372
1544.52252 2.00563
1542.47408 2.07407
1540.42565 2.15653
1538.37721 2.22074
1536.32877 2.24156
1534.28033 2.26602
1532.23189 2.30739
1530.18345 2.33843
1528.13501 2.36681
1526.08658 2.40307
1524.03814 2.43920
1521.98970 2.47884
1519.94126 2.51533
1517.89282 2.54236
1515.84438 2.57326
1513.79595 2.60224
1511.74751 2.63257
1509.69907 2.66896
1507.65063 2.69166
1505.60219 2.71927
1503.55375 2.72959
1501.50532 2.73152
1499.45688 2.72647
1497.40844 2.71088
1495.36000 2.66497
1493.31156 2.60479
1491.26312 2.51843
1489.21469 2.36106
1487.16625 2.17824
1485.11781 2.01827
1483.06937 1.86683
1481.02093 1.72338
1478.97249 1.61759
1476.92406 1.54490
1474.87562 1.48175
1472.82718 1.40471
1470.77874 1.34035
1468.73030 1.31195
1466.68186 1.30299
1464.63343 1.31364
1462.58499 1.33850
1460.53655 1.36448
1458.48811 1.39361
1456.43967 1.41691
1454.39123 1.41770
1452.34280 1.41495
1450.29436 1.41306
1448.24592 1.40842
1446.19748 1.39410
1444.14904 1.36731
1442.10060 1.32953
1440.05217 1.29151
1438.00373 1.25909
1435.95529 1.22885
1433.90685 1.20968
1431.85841 1.19963
1429.80997 1.19191
1427.76154 1.18589
1425.71310 1.18301
1423.66466 1.18239
1421.61622 1.18419
1419.56778 1.19252
1417.51934 1.20885
1415.47091 1.22799
1413.42247 1.25424
1411.37403 1.29236
1409.32559 1.33805
1407.27715 1.38468
1405.22871 1.43359
1403.18028 1.47753
1401.13184 1.51105
1399.08340 1.54317
1397.03496 1.57300
1394.98652 1.59802
1392.93808 1.61835
1390.88965 1.63411
1388.84121 1.64971
1386.79277 1.66282
1384.74433 1.66861
1382.69589 1.67390
1380.64745 1.68319
1378.59901 1.69540
1376.55058 1.70827
1374.50214 1.72191
1372.45370 1.73355
1370.40526 1.74270
1368.35682 1.75333
1366.30838 1.76448
1364.25995 1.77584
1362.21151 1.78846
1360.16307 1.79878
1358.11463 1.80602
1356.06619 1.81335
1354.01775 1.82058
1351.96932 1.82718
1349.92088 1.83456
1347.87244 1.84332
1345.82400 1.85136
1343.77556 1.85768
1341.72712 1.86440
1339.67869 1.87193
1337.63025 1.87813
1335.58181 1.88242
1333.53337 1.88639
1331.48493 1.89049
1329.43649 1.89489
1327.38806 1.89839
1325.33962 1.90111
1323.29118 1.90501
1321.24274 1.91106
1319.19430 1.91752
1317.14586 1.92235
1315.09743 1.92681
1313.04899 1.93086
1311.00055 1.93388
1308.95211 1.93658
1306.90367 1.94086
1304.85523 1.94592
1302.80680 1.94913
1300.75836 1.95065
1298.70992 1.95253
1296.66148 1.95523
1294.61304 1.95811
1292.56460 1.96145
1290.51617 1.96536
1288.46773 1.96874
1286.41929 1.96983
1284.37085 1.97082
1282.32241 1.97414
1280.27397 1.97872
1278.22554 1.98205
1276.17710 1.98431
1274.12866 1.98769
1272.08022 1.99178
1270.03178 1.99569
1267.98334 1.99890
1265.93491 2.00065
1263.88647 2.00172
1261.83803 2.00286
1259.78959 2.00299
1257.74115 2.00357
1255.69271 2.00637
1253.64428 2.01002
1251.59584 2.01347
1249.54740 2.01727
1247.49896 2.02067
1245.45052 2.02288
1243.40208 2.02508
1241.35364 2.02695
1239.30521 2.02847
1237.25677 2.03039
1235.20833 2.03239
1233.15989 2.03420
1231.11145 2.03571
1229.06301 2.03651
1227.01458 2.03690
1224.96614 2.03722
1222.91770 2.03843
1220.86926 2.04148
1218.82082 2.04447
1216.77238 2.04601
1214.72395 2.04662
1212.67551 2.04716
1210.62707 2.04774
1208.57863 2.04809
1206.53019 2.04823
1204.48175 2.04833
1202.43332 2.05027
1200.38488 2.05429
1198.33644 2.05709
1196.28800 2.05761
1194.23956 2.05784
1192.19112 2.05889
1190.14269 2.06070
1188.09425 2.06309
1186.04581 2.06633
1183.99737 2.07031
1181.94893 2.07331
1179.90049 2.07342
1177.85206 2.07219
1175.80362 2.07327
1173.75518 2.07622
1171.70674 2.07784
1169.65830 2.07846
1167.60986 2.08049
1165.56143 2.08410
1163.51299 2.08757
1161.46455 2.08922
1159.41611 2.08942
1157.36767 2.08972
1155.31923 2.09093
1153.27080 2.09348
1151.22236 2.09690
1149.17392 2.10001
1147.12548 2.10282
1145.07704 2.10463
1143.02860 2.10421
1140.98017 2.10399
1138.93173 2.10622
1136.88329 2.10968
1134.83485 2.11316
1132.78641 2.11672
1130.73797 2.11967
1128.68954 2.12030
1126.64110 2.11937
1124.59266 2.11897
1122.54422 2.12136
1120.49578 2.12801
1118.44734 2.13438
1116.39891 2.13781
1114.35047 2.14196
1112.30203 2.14730
1110.25359 2.15236
1108.20515 2.15750
1106.15671 2.16201
1104.10827 2.16524
1102.05984 2.16814
1100.01140 2.17337
1097.96296 2.18020
1095.91452 2.18222
1093.86608 2.17810
1091.81764 2.17278
1089.76921 2.16887
1087.72077 2.16676
1085.67233 2.16793
1083.62389 2.17172
1081.57545 2.17529
1079.52701 2.17907
1077.47858 2.18376
1075.43014 2.18828
1073.38170 2.19323
1071.33326 2.19924
1069.28482 2.20384
1067.23638 2.20587
1065.18795 2.21042
1063.13951 2.21820
1061.09107 2.22243
1059.04263 2.22114
1056.99419 2.21803
1054.94575 2.21919
1052.89732 2.22721
1050.84888 2.23663
1048.80044 2.24144
1046.75200 2.24385
1044.70356 2.24890
1042.65512 2.25378
1040.60669 2.25639
1038.55825 2.26063
1036.50981 2.26865
1034.46137 2.27904
1032.41293 2.28907
1030.36449 2.29611
1028.31606 2.29930
1026.26762 2.30279
1024.21918 2.31091
1022.17074 2.32212
1020.12230 2.33113
1018.07386 2.33571
1016.02543 2.33914
1013.97699 2.34666
1011.92855 2.35733
1009.88011 2.36393
1007.83167 2.36617
1005.78323 2.37174
1003.73480 2.38224
1001.68636 2.39087
999.63792 2.39626
997.58948 2.40161
995.54104 2.40608
993.49260 2.40791
991.44417 2.40621
989.39573 2.39789
987.34729 2.37734
985.29885 2.33919
983.25041 2.28236
981.20197 2.21235
979.15354 2.13666
977.10510 2.06085
975.05666 1.99128
973.00822 1.93570
970.95978 1.89465
968.91134 1.86045
966.86290 1.82862
964.81447 1.79854
962.76603 1.76798
960.71759 1.73728
958.66915 1.70985
956.62071 1.68772
954.57227 1.67261
952.52384 1.66785
950.47540 1.67614
948.42696 1.69825
946.37852 1.73261
944.33008 1.77372
942.28164 1.81475
940.23321 1.85083
938.18477 1.87950
936.13633 1.90292
934.08789 1.92644
932.03945 1.95197
929.99101 1.97620
927.94258 1.99706
925.89414 2.01513
923.84570 2.03243
921.79726 2.05069
919.74882 2.06682
917.70038 2.07936
915.65195 2.09295
913.60351 2.10870
911.55507 2.12304
909.50663 2.13596
907.45819 2.14812
905.40975 2.15860
903.36132 2.16904
901.31288 2.18071
899.26444 2.19206
897.21600 2.20460
895.16756 2.22192
893.11912 2.24012
891.07069 2.25381
889.02225 2.26564
886.97381 2.27740
884.92537 2.29042
882.87693 2.30770
880.82849 2.32446
878.78006 2.33790
876.73162 2.34978
874.68318 2.35958
872.63474 2.36362
870.58630 2.35776
868.53786 2.33909
866.48943 2.29096
864.44099 2.20747
862.39255 2.10369
860.34411 1.99598
858.29567 1.90048
856.24723 1.82525
854.19880 1.76899
852.15036 1.72808
850.10192 1.70005
848.05348 1.68011
846.00504 1.65874
843.95660 1.63043
841.90817 1.60287
839.85973 1.58820
837.81129 1.59202
835.76285 1.61253
833.71441 1.64299
831.66597 1.67646
829.61753 1.71106
827.56910 1.74976
825.52066 1.78838
823.47222 1.81256
821.42378 1.81582
819.37534 1.80145
817.32690 1.77740
815.27847 1.76023
813.23003 1.76377
811.18159 1.78688
809.13315 1.81792
807.08471 1.84651
805.03627 1.87022
802.98784 1.89091
800.93940 1.90623
798.89096 1.91339
796.84252 1.91849
794.79408 1.92890
792.74564 1.94457
790.69721 1.96035
788.64877 1.97044
786.60033 1.97865
784.55189 1.98976
782.50345 1.99946
780.45501 2.00987
778.40658 2.02373
776.35814 2.03289
774.30970 2.02865
772.26126 2.01006
770.21282 1.98636
768.16438 1.97017
766.11595 1.96647
764.06751 1.97310
762.01907 1.98713
759.97063 2.00359
757.92219 2.01617
755.87375 2.02084
753.82532 2.02119
751.77688 2.02385
749.72844 2.02623
747.68000 2.02973
745.63156 2.03872
743.58312 2.04528
741.53469 2.04063
739.48625 2.02980
737.43781 2.02215
735.38937 2.02082
733.34093 2.02420
731.29249 2.02581
729.24406 2.02749
727.19562 2.03423
725.14718 2.03975
723.09874 2.04451
721.05030 2.05145
719.00186 2.04976
716.95343 2.04110
714.90499 2.03983
712.85655 2.04501
710.80811 2.05159
708.75967 2.05751
706.71123 2.05882
704.66280 2.06075
702.61436 2.06752
700.56592 2.07449
698.51748 2.07986
696.46904 2.08044
694.42060 2.07810
692.37216 2.08102
690.32373 2.08536
688.27529 2.08496
686.22685 2.08008
684.17841 2.07318
682.12997 2.07416
680.08153 2.08439
678.03310 2.08487
675.98466 2.07386
673.93622 2.07126
671.88778 2.07796
669.83934 2.08162
667.79090 2.07826
665.74247 2.07214
663.69403 2.06325
661.64559 2.06144
659.59715 2.08077
657.54871 2.10703
655.50027 2.11799
653.45184 2.11524
651.40340 2.09627
649.35496 2.07807
647.30652 2.08626
645.25808 2.10541
643.20964 2.12462
641.16121 2.15026
639.11277 2.16858
637.06433 2.17561
635.01589 2.18082
632.96745 2.16167
630.91901 2.14031
628.87058 2.15872
626.82214 2.16992
624.77370 2.13775
622.72526 2.10855
620.67682 2.11464
618.62838 2.15490
616.57995 2.19245
614.53151 2.19490
612.48307 2.18372
610.43463 2.19961
608.38619 2.26298
606.33775 2.30116
604.28932 2.26377
602.24088 2.20237
600.19244 2.13880
598.14400 2.12377
