3996.50324 2.05770
3994.45480 2.06051
3992.40636 2.06225
3990.35792 2.06603
3988.30948 2.07124
3986.26104 2.07701
3984.21261 2.08571
3982.16417 2.09817
3980.11573 2.11205
3978.06729 2.12593
3976.01885 2.13995
3973.97041 2.15226
3971.92198 2.15787
3969.87354 2.15693
3967.82510 2.15401
3965.77666 2.14828
3963.72822 2.13786
3961.67978 2.12821
3959.63135 2.12174
3957.58291 2.11438
3955.53447 2.10618
3953.48603 2.09928
3951.43759 2.09357
3949.38915 2.09028
3947.34072 2.09029
3945.29228 2.09039
3943.24384 2.09288
3941.19540 2.09768
3939.14696 2.09804
3937.09852 2.09540
3935.05009 2.09515
3933.00165 2.10151
3930.95321 2.11180
3928.90477 2.11898
3926.85633 2.12629
3924.80789 2.14010
3922.75946 2.15296
3920.71102 2.15744
3918.66258 2.16009
3916.61414 2.16524
3914.56570 2.17076
3912.51726 2.17180
3910.46883 2.16487
3908.42039 2.15128
3906.37195 2.14290
3904.32351 2.15362
3902.27507 2.17871
3900.22663 2.20412
3898.17820 2.22392
3896.12976 2.23125
3894.08132 2.23345
3892.03288 2.24907
3889.98444 2.27270
3887.93600 2.28103
3885.88756 2.28984
3883.83913 2.30534
3881.79069 2.31597
3879.74225 2.33489
3877.69381 2.34525
3875.64537 2.33430
3873.59693 2.31766
3871.54850 2.30724
3869.50006 2.29359
3867.45162 2.26747
3865.40318 2.24263
3863.35474 2.22804
3861.30630 2.21634
3859.25787 2.20528
3857.20943 2.19642
3855.16099 2.18744
3853.11255 2.20044
3851.06411 2.22715
3849.01567 2.22965
3846.96724 2.22186
3844.91880 2.21716
3842.87036 2.22017
3840.82192 2.22352
3838.77348 2.22797
3836.72504 2.23911
3834.67661 2.24055
3832.62817 2.23273
3830.57973 2.22721
3828.53129 2.22312
3826.48285 2.21809
3824.43441 2.20919
3822.38598 2.19896
3820.33754 2.19449
3818.28910 2.18246
3816.24066 2.16505
3814.19222 2.15158
3812.14378 2.13841
3810.09535 2.12858
3808.04691 2.13030
3805.99847 2.13774
3803.95003 2.13183
3801.90159 2.12999
3799.85315 2.14120
3797.80472 2.13732
3795.75628 2.12693
3793.70784 2.11960
3791.65940 2.11174
3789.61096 2.10443
3787.56252 2.09965
3785.51409 2.09785
3783.46565 2.09797
3781.41721 2.09895
3779.36877 2.10176
3777.32033 2.09967
3775.27189 2.09289
3773.22346 2.09087
3771.17502 2.09630
3769.12658 2.10214
3767.07814 2.10079
3765.02970 2.10027
3762.98126 2.09981
3760.93283 2.09722
3758.88439 2.10345
3756.83595 2.11081
3754.78751 2.10659
3752.73907 2.10277
3750.69063 2.12475
3748.64219 2.14812
3746.59376 2.14705
3744.54532 2.15807
3742.49688 2.17628
3740.44844 2.17514
3738.40000 2.16626
3736.35156 2.16186
3734.30313 2.17187
3732.25469 2.18347
3730.20625 2.18163
3728.15781 2.17269
3726.10937 2.16783
3724.06093 2.16667
3722.01250 2.16613
3719.96406 2.16850
3717.91562 2.16808
3715.86718 2.16594
3713.81874 2.16957
3711.77030 2.18688
3709.72187 2.20189
3707.67343 2.19595
3705.62499 2.17973
3703.57655 2.16114
3701.52811 2.15230
3699.47967 2.15186
3697.43124 2.14658
3695.38280 2.13707
3693.33436 2.12853
3691.28592 2.13057
3689.23748 2.15721
3687.18904 2.18373
3685.14061 2.19121
3683.09217 2.19601
3681.04373 2.20693
3678.99529 2.22127
3676.94685 2.24076
3674.89841 2.28055
3672.84998 2.29683
3670.80154 2.29374
3668.75310 2.30365
3666.70466 2.30846
3664.65622 2.30828
3662.60778 2.31563
3660.55935 2.32995
3658.51091 2.34448
3656.46247 2.35203
3654.41403 2.34309
3652.36559 2.33347
3650.31715 2.35248
3648.26872 2.38716
3646.22028 2.37172
3644.17184 2.34884
3642.12340 2.34574
3640.07496 2.35888
3638.02652 2.37022
3635.97809 2.37508
3633.92965 2.37977
3631.88121 2.38020
3629.83277 2.38521
3627.78433 2.41901
3625.73589 2.43954
3623.68746 2.43750
3621.63902 2.43528
3619.59058 2.44547
3617.54214 2.46353
3615.49370 2.47919
3613.44526 2.49121
3611.39682 2.48982
3609.34839 2.49179
3607.29995 2.51588
3605.25151 2.53141
3603.20307 2.52979
3601.15463 2.53485
3599.10619 2.54877
3597.05776 2.55834
3595.00932 2.56604
3592.96088 2.57970
3590.91244 2.59604
3588.86400 2.61456
3586.81556 2.62590
3584.76713 2.62343
3582.71869 2.62470
3580.67025 2.63286
3578.62181 2.64733
3576.57337 2.66288
3574.52493 2.67729
3572.47650 2.69035
3570.42806 2.69665
3568.37962 2.71092
3566.33118 2.73207
3564.28274 2.72110
3562.23430 2.70529
3560.18587 2.70105
3558.13743 2.70399
3556.08899 2.72449
3554.04055 2.75531
3551.99211 2.77379
3549.94367 2.77938
3547.89524 2.77240
3545.84680 2.76392
3543.79836 2.76706
3541.74992 2.76028
3539.70148 2.74982
3537.65304 2.75769
3535.60461 2.77320
3533.55617 2.78209
3531.50773 2.79126
3529.45929 2.80178
3527.41085 2.81816
3525.36241 2.83628
3523.31398 2.83587
3521.26554 2.82824
3519.21710 2.83828
3517.16866 2.86942
3515.12022 2.89501
3513.07178 2.89445
3511.02335 2.89012
3508.97491 2.89069
3506.92647 2.88793
3504.87803 2.89561
3502.82959 2.90997
3500.78115 2.90930
3498.73272 2.90578
3496.68428 2.91792
3494.63584 2.93387
3492.58740 2.92487
3490.53896 2.89837
3488.49052 2.88981
3486.44209 2.91079
3484.39365 2.92591
3482.34521 2.91650
3480.29677 2.91347
3478.24833 2.93221
3476.19989 2.96769
3474.15146 2.99238
3472.10302 2.97734
3470.05458 2.95504
3468.00614 2.95720
3465.95770 2.96723
3463.90926 2.96102
3461.86082 2.94772
3459.81239 2.95599
3457.76395 2.97897
3455.71551 2.98017
3453.66707 2.97462
3451.61863 2.97925
3449.57019 2.95698
3447.52176 2.91797
3445.47332 2.91634
3443.42488 2.94907
3441.37644 2.97992
3439.32800 2.97970
3437.27956 2.95852
3435.23113 2.96146
3433.18269 2.98720
3431.13425 2.99187
3429.08581 2.97072
3427.03737 2.95631
3424.98893 2.96613
3422.94050 2.99057
3420.89206 3.00997
3418.84362 3.02441
3416.79518 3.03004
3414.74674 3.01068
3412.69830 2.98183
3410.64987 2.95826
3408.60143 2.93651
3406.55299 2.92601
3404.50455 2.93201
3402.45611 2.94015
3400.40767 2.95138
3398.35924 2.97293
3396.31080 2.98846
3394.26236 2.98656
3392.21392 2.96669
3390.16548 2.94563
3388.11704 2.95793
3386.06861 3.00248
3384.02017 3.01737
3381.97173 2.98839
3379.92329 2.97390
3377.87485 2.98663
3375.82641 3.00937
3373.77798 3.01411
3371.72954 2.99042
3369.68110 2.96335
3367.63266 2.94427
3365.58422 2.94450
3363.53578 2.96825
3361.48735 2.98992
3359.43891 2.98917
3357.39047 2.97298
3355.34203 2.95298
3353.29359 2.94278
3351.24515 2.94758
3349.19672 2.95160
3347.14828 2.95322
3345.09984 2.96656
3343.05140 2.97760
3341.00296 2.96911
3338.95452 2.95796
3336.90609 2.96093
3334.85765 2.96728
3332.80921 2.95733
3330.76077 2.93762
3328.71233 2.92521
3326.66389 2.92111
3324.61545 2.91851
3322.56702 2.91591
3320.51858 2.92122
3318.47014 2.94018
3316.42170 2.95619
3314.37326 2.95134
3312.32482 2.93931
3310.27639 2.92949
3308.22795 2.92413
3306.17951 2.94066
3304.13107 2.96555
3302.08263 2.95122
3300.03419 2.91073
3297.98576 2.88250
3295.93732 2.87374
3293.88888 2.89522
3291.84044 2.92396
3289.79200 2.91874
3287.74356 2.90747
3285.69513 2.91281
3283.64669 2.90351
3281.59825 2.86914
3279.54981 2.84964
3277.50137 2.87023
3275.45293 2.90400
3273.40450 2.90436
3271.35606 2.86854
3269.30762 2.83433
3267.25918 2.82786
3265.21074 2.84199
3263.16230 2.85530
3261.11387 2.85655
3259.06543 2.85079
3257.01699 2.84260
3254.96855 2.82623
3252.92011 2.80330
3250.87167 2.78462
3248.82324 2.77402
3246.77480 2.77304
3244.72636 2.78745
3242.67792 2.80156
3240.62948 2.79798
3238.58104 2.78002
3236.53261 2.74981
3234.48417 2.72592
3232.43573 2.72609
3230.38729 2.74327
3228.33885 2.75260
3226.29041 2.74472
3224.24198 2.74380
3222.19354 2.74613
3220.14510 2.73067
3218.09666 2.71600
3216.04822 2.71234
3213.99978 2.70950
3211.95135 2.70325
3209.90291 2.69495
3207.85447 2.69332
3205.80603 2.69053
3203.75759 2.67964
3201.70915 2.68141
3199.66072 2.69834
3197.61228 2.70038
3195.56384 2.68761
3193.51540 2.68228
3191.46696 2.67638
3189.41852 2.66641
3187.37008 2.66239
3185.32165 2.66292
3183.27321 2.66191
3181.22477 2.66062
3179.17633 2.65901
3177.12789 2.64762
3175.07945 2.63577
3173.03102 2.63510
3170.98258 2.63308
3168.93414 2.62579
3166.88570 2.61859
3164.83726 2.61051
3162.78882 2.60401
3160.74039 2.59676
3158.69195 2.59373
3156.64351 2.59839
3154.59507 2.59426
3152.54663 2.58307
3150.49819 2.58096
3148.44976 2.59071
3146.40132 2.60323
3144.35288 2.60378
3142.30444 2.59340
3140.25600 2.58664
3138.20756 2.58580
3136.15913 2.58499
3134.11069 2.58209
3132.06225 2.57845
3130.01381 2.58035
3127.96537 2.58305
3125.91693 2.57694
3123.86850 2.57271
3121.82006 2.57568
3119.77162 2.57306
3117.72318 2.56732
3115.67474 2.57012
3113.62630 2.57289
3111.57787 2.56379
3109.52943 2.55242
3107.48099 2.55323
3105.43255 2.56188
3103.38411 2.56410
3101.33567 2.55673
3099.28724 2.54855
3097.23880 2.54653
3095.19036 2.54969
3093.14192 2.55387
3091.09348 2.55475
3089.04504 2.55004
3086.99661 2.54274
3084.94817 2.54120
3082.89973 2.54370
3080.85129 2.54064
3078.80285 2.53836
3076.75441 2.54414
3074.70598 2.55052
3072.65754 2.54905
3070.60910 2.53991
3068.56066 2.53220
3066.51222 2.53153
3064.46378 2.53358
3062.41535 2.53800
3060.36691 2.54532
3058.31847 2.54814
3056.27003 2.55045
3054.22159 2.55719
3052.17315 2.55867
3050.12471 2.55484
3048.07628 2.55097
3046.02784 2.54971
3043.97940 2.55591
3041.93096 2.56584
3039.88252 2.57045
3037.83408 2.57147
3035.78565 2.57758
3033.73721 2.58309
3031.68877 2.58171
3029.64033 2.58285
3027.59189 2.58829
3025.54345 2.59213
3023.49502 2.59582
3021.44658 2.60472
3019.39814 2.61541
3017.34970 2.61760
3015.30126 2.61365
3013.25282 2.61515
3011.20439 2.62196
3009.15595 2.62765
3007.10751 2.63400
3005.05907 2.63850
3003.01063 2.63476
3000.96219 2.62880
2998.91376 2.62880
2996.86532 2.63485
2994.81688 2.64314
2992.76844 2.65044
2990.72000 2.65423
2988.67156 2.65692
2986.62313 2.66749
2984.57469 2.68133
2982.52625 2.68742
2980.47781 2.69356
2978.42937 2.70728
2976.38093 2.72444
2974.33250 2.73806
2972.28406 2.75077
2970.23562 2.76814
2968.18718 2.77726
2966.13874 2.77754
2964.09030 2.78409
2962.04187 2.79649
2959.99343 2.80759
2957.94499 2.80841
2955.89655 2.80162
2953.84811 2.80556
2951.79967 2.81681
2949.75124 2.81064
2947.70280 2.79600
2945.65436 2.80174
2943.60592 2.82039
2941.55748 2.83013
2939.50904 2.83683
2937.46061 2.84694
2935.41217 2.85239
2933.36373 2.86489
2931.31529 2.88951
2929.26685 2.90113
2927.21841 2.89613
2925.16998 2.88289
2923.12154 2.87047
2921.07310 2.87354
2919.02466 2.88244
2916.97622 2.88526
2914.92778 2.88502
2912.87934 2.88156
2910.83091 2.87711
2908.78247 2.88135
2906.73403 2.89144
2904.68559 2.89373
2902.63715 2.88409
2900.58871 2.86530
2898.54028 2.84821
2896.49184 2.83877
2894.44340 2.83162
2892.39496 2.82781
2890.34652 2.82984
2888.29808 2.82836
2886.24965 2.81947
2884.20121 2.81332
2882.15277 2.81137
2880.10433 2.80490
2878.05589 2.79355
2876.00745 2.79243
2873.95902 2.80439
2871.91058 2.80747
2869.86214 2.79647
2867.81370 2.78545
2865.76526 2.78287
2863.71682 2.79168
2861.66839 2.80282
2859.61995 2.80699
2857.57151 2.80838
2855.52307 2.81053
2853.47463 2.80980
2851.42619 2.79930
2849.37776 2.78194
2847.32932 2.76390
2845.28088 2.74183
2843.23244 2.72392
2841.18400 2.71574
2839.13556 2.70250
2837.08713 2.68702
2835.03869 2.68785
2832.99025 2.69742
2830.94181 2.69388
2828.89337 2.68171
2826.84493 2.67160
2824.79650 2.65617
2822.74806 2.63541
2820.69962 2.62012
2818.65118 2.60991
2816.60274 2.59476
2814.55430 2.57633
2812.50587 2.56096
2810.45743 2.54862
2808.40899 2.53805
2806.36055 2.52398
2804.31211 2.50909
2802.26367 2.50017
2800.21524 2.49328
2798.16680 2.48414
2796.11836 2.47511
2794.06992 2.46743
2792.02148 2.45934
2789.97304 2.45131
2787.92461 2.44149
2785.87617 2.43066
2783.82773 2.42285
2781.77929 2.41544
2779.73085 2.40624
2777.68241 2.39637
2775.63397 2.38865
2773.58554 2.38561
2771.53710 2.38304
2769.48866 2.37813
2767.44022 2.37632
2765.39178 2.37991
2763.34334 2.38502
2761.29491 2.38808
2759.24647 2.38626
2757.19803 2.38026
2755.14959 2.37656
2753.10115 2.37664
2751.05271 2.37365
2749.00428 2.36955
2746.95584 2.36917
2744.90740 2.36892
2742.85896 2.36832
2740.81052 2.36705
2738.76208 2.36310
2736.71365 2.35989
2734.66521 2.35999
2732.61677 2.36166
2730.56833 2.36190
2728.51989 2.35792
2726.47145 2.35258
2724.42302 2.35243
2722.37458 2.35395
2720.32614 2.35146
2718.27770 2.35015
2716.22926 2.35077
2714.18082 2.34901
2712.13239 2.34680
2710.08395 2.34633
2708.03551 2.34701
2705.98707 2.34735
2703.93863 2.34709
2701.89019 2.34865
2699.84176 2.35042
2697.79332 2.34902
2695.74488 2.34894
2693.69644 2.35298
2691.64800 2.35821
2689.59956 2.36400
2687.55113 2.37006
2685.50269 2.37650
2683.45425 2.38333
2681.40581 2.39000
2679.35737 2.39872
2677.30893 2.41147
2675.26050 2.42759
2673.21206 2.44650
2671.16362 2.46610
2669.11518 2.48322
2667.06674 2.49570
2665.01830 2.50033
2662.96987 2.50022
2660.92143 2.50285
2658.87299 2.50874
2656.82455 2.51547
2654.77611 2.52152
2652.72767 2.52427
2650.67924 2.52416
2648.63080 2.52458
2646.58236 2.52940
2644.53392 2.53716
2642.48548 2.54097
2640.43704 2.53985
2638.38860 2.53711
2636.34017 2.53749
2634.29173 2.54426
2632.24329 2.55148
2630.19485 2.55440
2628.14641 2.55724
2626.09797 2.55968
2624.04954 2.55979
2622.00110 2.55957
2619.95266 2.56086
2617.90422 2.56710
2615.85578 2.57229
2613.80734 2.57002
2611.75891 2.56818
2609.71047 2.56993
2607.66203 2.57167
2605.61359 2.57652
2603.56515 2.58034
2601.51671 2.57617
2599.46828 2.57421
2597.41984 2.57781
2595.37140 2.57947
2593.32296 2.58077
2591.27452 2.58080
2589.22608 2.57352
2587.17765 2.56762
2585.12921 2.57085
2583.08077 2.57328
2581.03233 2.57137
2578.98389 2.57070
2576.93545 2.57205
2574.88702 2.57269
2572.83858 2.56905
2570.79014 2.56587
2568.74170 2.56901
2566.69326 2.57292
2564.64482 2.57448
2562.59639 2.57675
2560.54795 2.57935
2558.49951 2.58161
2556.45107 2.58275
2554.40263 2.58491
2552.35419 2.59030
2550.30576 2.59213
2548.25732 2.58596
2546.20888 2.58111
2544.16044 2.58665
2542.11200 2.59298
2540.06356 2.58610
2538.01513 2.57618
2535.96669 2.57646
2533.91825 2.57805
2531.86981 2.57281
2529.82137 2.56974
2527.77293 2.57105
2525.72450 2.56868
2523.67606 2.56941
2521.62762 2.57725
2519.57918 2.57828
2517.53074 2.57209
2515.48230 2.56856
2513.43387 2.56871
2511.38543 2.57114
2509.33699 2.57201
2507.28855 2.56806
2505.24011 2.56384
2503.19167 2.56384
2501.14324 2.56838
2499.09480 2.57370
2497.04636 2.57241
2494.99792 2.56570
2492.94948 2.55976
2490.90104 2.55725
2488.85260 2.55739
2486.80417 2.55339
2484.75573 2.54456
2482.70729 2.54002
2480.65885 2.54101
2478.61041 2.54143
2476.56197 2.54121
2474.51354 2.53855
2472.46510 2.53008
2470.41666 2.52240
2468.36822 2.51859
2466.31978 2.51377
2464.27134 2.50658
2462.22291 2.49922
2460.17447 2.49356
2458.12603 2.48692
2456.07759 2.47428
2454.02915 2.45675
2451.98071 2.44069
2449.93228 2.43093
2447.88384 2.42268
2445.83540 2.40858
2443.78696 2.39294
2441.73852 2.38140
2439.69008 2.37330
2437.64165 2.36569
2435.59321 2.35838
2433.54477 2.35545
2431.49633 2.35460
2429.44789 2.34942
2427.39945 2.33804
2425.35102 2.32514
2423.30258 2.32064
2421.25414 2.32306
2419.20570 2.31984
2417.15726 2.30960
2415.10882 2.29989
2413.06039 2.29325
2411.01195 2.28810
2408.96351 2.28233
2406.91507 2.27575
2404.86663 2.27059
2402.81819 2.26844
2400.76976 2.26848
2398.72132 2.26584
2396.67288 2.25854
2394.62444 2.25385
2392.57600 2.25437
2390.52756 2.25241
2388.47913 2.24670
2386.43069 2.24421
2384.38225 2.24399
2382.33381 2.24093
2380.28537 2.23690
2378.23693 2.23577
2376.18850 2.23894
2374.14006 2.24447
2372.09162 2.24955
2370.04318 2.25037
2367.99474 2.24509
2365.94630 2.24615
2363.89787 2.25227
2361.84943 2.24405
2359.80099 2.23290
2357.75255 2.23455
2355.70411 2.24057
2353.65567 2.24490
2351.60723 2.24330
2349.55880 2.23408
2347.51036 2.22568
2345.46192 2.22714
2343.41348 2.23510
2341.36504 2.23651
2339.31660 2.23257
2337.26817 2.23481
2335.21973 2.24329
2333.17129 2.24324
2331.12285 2.23877
2329.07441 2.24138
2327.02597 2.24552
2324.97754 2.24604
2322.92910 2.24464
2320.88066 2.24783
2318.83222 2.25681
2316.78378 2.26393
2314.73534 2.26715
2312.68691 2.26816
2310.63847 2.26747
2308.59003 2.26941
2306.54159 2.27451
2304.49315 2.27971
2302.44471 2.28609
2300.39628 2.29074
2298.34784 2.29171
2296.29940 2.29591
2294.25096 2.30407
2292.20252 2.30994
2290.15408 2.31285
2288.10565 2.31604
2286.05721 2.32106
2284.00877 2.32448
2281.96033 2.32201
2279.91189 2.31711
2277.86345 2.31740
2275.81502 2.32072
2273.76658 2.31908
2271.71814 2.31577
2269.66970 2.31785
2267.62126 2.32599
2265.57282 2.33653
2263.52439 2.34326
2261.47595 2.34386
2259.42751 2.34091
2257.37907 2.33745
2255.33063 2.33536
2253.28219 2.33187
2251.23376 2.32514
2249.18532 2.32143
2247.13688 2.32258
2245.08844 2.32375
2243.04000 2.32340
2240.99156 2.32157
2238.94313 2.31976
2236.89469 2.32299
2234.84625 2.32976
2232.79781 2.33109
2230.74937 2.32569
2228.70093 2.31837
2226.65250 2.31391
2224.60406 2.31463
2222.55562 2.31661
2220.50718 2.31697
2218.45874 2.31825
2216.41030 2.32252
2214.36186 2.32829
2212.31343 2.33310
2210.26499 2.33526
2208.21655 2.33544
2206.16811 2.33636
2204.11967 2.33832
2202.07123 2.33719
2200.02280 2.33390
2197.97436 2.33142
2195.92592 2.32700
2193.87748 2.32286
2191.82904 2.32057
2189.78060 2.31778
2187.73217 2.31664
2185.68373 2.31721
2183.63529 2.31556
2181.58685 2.31200
2179.53841 2.30978
2177.48997 2.30840
2175.44154 2.30755
2173.39310 2.30792
2171.34466 2.30743
2169.29622 2.30573
2167.24778 2.30340
2165.19934 2.29858
2163.15091 2.29391
2161.10247 2.29024
2159.05403 2.28405
2157.00559 2.28010
2154.95715 2.28113
2152.90871 2.28017
2150.86028 2.27427
2148.81184 2.26728
2146.76340 2.26116
2144.71496 2.25434
2142.66652 2.24461
2140.61808 2.23319
2138.56965 2.22494
2136.52121 2.21997
2134.47277 2.21447
2132.42433 2.20755
2130.37589 2.20021
2128.32745 2.19516
2126.27902 2.19377
2124.23058 2.19310
2122.18214 2.19231
2120.13370 2.19158
2118.08526 2.18915
2116.03682 2.18476
2113.98839 2.17930
2111.93995 2.17558
2109.89151 2.17501
2107.84307 2.17445
2105.79463 2.17285
2103.74619 2.17142
2101.69776 2.17111
2099.64932 2.17306
2097.60088 2.17350
2095.55244 2.17062
2093.50400 2.16975
2091.45556 2.17237
2089.40713 2.17559
2087.35869 2.17781
2085.31025 2.17937
2083.26181 2.18084
2081.21337 2.18217
2079.16493 2.18378
2077.11649 2.18696
2075.06806 2.19145
2073.01962 2.19504
2070.97118 2.19808
2068.92274 2.20221
2066.87430 2.20807
2064.82586 2.21459
2062.77743 2.21909
2060.72899 2.22339
2058.68055 2.23076
2056.63211 2.23977
2054.58367 2.24882
2052.53523 2.25710
2050.48680 2.26289
2048.43836 2.26758
2046.38992 2.27156
2044.34148 2.27168
2042.29304 2.27115
2040.24460 2.27361
2038.19617 2.27382
2036.14773 2.27111
2034.09929 2.26877
2032.05085 2.26530
2030.00241 2.26131
2027.95397 2.25957
2025.90554 2.25934
2023.85710 2.25890
2021.80866 2.25881
2019.76022 2.25941
2017.71178 2.26154
2015.66334 2.26387
2013.61491 2.26351
2011.56647 2.26442
2009.51803 2.26956
2007.46959 2.27442
2005.42115 2.27587
2003.37271 2.27771
2001.32428 2.28282
1999.27584 2.28873
1997.22740 2.29418
1995.17896 2.30067
1993.13052 2.30744
1991.08208 2.31188
1989.03365 2.31453
1986.98521 2.31753
1984.93677 2.32137
1982.88833 2.32644
1980.83989 2.33223
1978.79145 2.33677
1976.74302 2.34103
1974.69458 2.34787
1972.64614 2.35575
1970.59770 2.36105
1968.54926 2.36678
1966.50082 2.37704
1964.45239 2.38648
1962.40395 2.39266
1960.35551 2.40121
1958.30707 2.41290
1956.25863 2.42120
1954.21019 2.42435
1952.16176 2.42754
1950.11332 2.43127
1948.06488 2.43385
1946.01644 2.43718
1943.96800 2.44298
1941.91956 2.45004
1939.87112 2.45364
1937.82269 2.45355
1935.77425 2.45508
1933.72581 2.46051
1931.67737 2.46540
1929.62893 2.46652
1927.58049 2.46674
1925.53206 2.46748
1923.48362 2.46630
1921.43518 2.46364
1919.38674 2.46894
1917.33830 2.48545
1915.28986 2.49582
1913.24143 2.49715
1911.19299 2.50020
1909.14455 2.50177
1907.09611 2.49725
1905.04767 2.49409
1902.99923 2.49742
1900.95080 2.50143
1898.90236 2.50107
1896.85392 2.50113
1894.80548 2.50671
1892.75704 2.51108
1890.70860 2.51150
1888.66017 2.51606
1886.61173 2.52463
1884.56329 2.53392
1882.51485 2.53948
1880.46641 2.53868
1878.41797 2.53554
1876.36954 2.53183
1874.32110 2.52992
1872.27266 2.52873
1870.22422 2.52556
1868.17578 2.52748
1866.12734 2.53594
1864.07891 2.54217
1862.03047 2.54764
1859.98203 2.55409
1857.93359 2.55870
1855.88515 2.55928
1853.83671 2.55733
1851.78828 2.55864
1849.73984 2.56374
1847.69140 2.56564
1845.64296 2.56224
1843.59452 2.56394
1841.54608 2.57099
1839.49765 2.57384
1837.44921 2.57901
1835.40077 2.58896
1833.35233 2.59369
1831.30389 2.59570
1829.25545 2.59868
1827.20702 2.59230
1825.15858 2.58416
1823.11014 2.58675
1821.06170 2.59424
1819.01326 2.60279
1816.96482 2.61259
1814.91639 2.61571
1812.86795 2.61002
1810.81951 2.60534
1808.77107 2.60408
1806.72263 2.60090
1804.67419 2.59951
1802.62575 2.60345
1800.57732 2.60803
1798.52888 2.60848
1796.48044 2.60923
1794.43200 2.61731
1792.38356 2.63395
1790.33512 2.63949
1788.28669 2.63413
1786.23825 2.63591
1784.18981 2.63973
1782.14137 2.63642
1780.09293 2.63277
1778.04449 2.62991
1775.99606 2.62321
1773.94762 2.61595
1771.89918 2.61857
1769.85074 2.62690
1767.80230 2.63541
1765.75386 2.64536
1763.70543 2.65268
1761.65699 2.65828
1759.60855 2.65623
1757.56011 2.65085
1755.51167 2.65139
1753.46323 2.65102
1751.41480 2.65552
1749.36636 2.67764
1747.31792 2.69737
1745.26948 2.70368
1743.22104 2.70232
1741.17260 2.70190
1739.12417 2.70702
1737.07573 2.70194
1735.02729 2.69181
1732.97885 2.69705
1730.93041 2.70187
1728.88197 2.70513
1726.83354 2.70752
1724.78510 2.70145
1722.73666 2.69515
1720.68822 2.69175
1718.63978 2.69119
1716.59134 2.70011
1714.54291 2.70613
1712.49447 2.71222
1710.44603 2.72418
1708.39759 2.74190
1706.34915 2.76656
1704.30071 2.77683
1702.25228 2.76019
1700.20384 2.74867
1698.15540 2.76747
1696.10696 2.79230
1694.05852 2.80695
1692.01008 2.81063
1689.96165 2.81090
1687.91321 2.81086
1685.86477 2.81735
1683.81633 2.83463
1681.76789 2.84639
1679.71945 2.85707
1677.67102 2.86479
1675.62258 2.87225
1673.57414 2.88407
1671.52570 2.89271
1669.47726 2.89980
1667.42882 2.90265
1665.38038 2.90285
1663.33195 2.91223
1661.28351 2.93242
1659.23507 2.94359
1657.18663 2.95199
1655.13819 2.97959
1653.08975 3.00040
1651.04132 2.96083
1648.99288 2.93337
1646.94444 2.91680
1644.89600 2.91914
1642.84756 2.92944
1640.79912 2.93152
1638.75069 2.92189
1636.70225 2.92900
1634.65381 2.96542
1632.60537 2.96243
1630.55693 2.94565
1628.50849 2.93830
1626.46006 2.93440
1624.41162 2.94078
1622.36318 2.95622
1620.31474 2.95995
1618.26630 2.97255
1616.21786 2.99051
1614.16943 2.97221
1612.12099 2.95969
1610.07255 2.97718
1608.02411 3.00270
1605.97567 3.01289
1603.92723 3.01116
1601.87880 2.98717
1599.83036 2.95047
1597.78192 2.93559
1595.73348 2.94336
1593.68504 2.94474
1591.63660 2.92819
1589.58817 2.90547
1587.53973 2.87995
1585.49129 2.85299
1583.44285 2.82245
1581.39441 2.77546
1579.34597 2.71948
1577.29754 2.65008
1575.24910 2.55602
1573.20066 2.49152
1571.15222 2.45018
1569.10378 2.41576
1567.05534 2.39584
1565.00691 2.38366
1562.95847 2.37313
1560.91003 2.37065
1558.86159 2.39668
1556.81315 2.42247
1554.76471 2.43350
1552.71628 2.45523
1550.66784 2.49003
1548.61940 2.53092
1546.57096 2.56677
1544.52252 2.61087
1542.47408 2.66779
1540.42565 2.71733
1538.37721 2.73288
1536.32877 2.73095
1534.28033 2.74108
1532.23189 2.76001
1530.18345 2.76669
1528.13501 2.77298
1526.08658 2.79379
1524.03814 2.81818
1521.98970 2.82144
1519.94126 2.81731
1517.89282 2.82739
1515.84438 2.84095
1513.79595 2.84772
1511.74751 2.85011
1509.69907 2.85527
1507.65063 2.87250
1505.60219 2.89812
1503.55375 2.89872
1501.50532 2.89858
1499.45688 2.91010
1497.40844 2.92812
1495.36000 2.92930
1493.31156 2.91388
1491.26312 2.89429
1489.21469 2.87230
1487.16625 2.82653
1485.11781 2.75821
1483.06937 2.67544
1481.02093 2.57423
1478.97249 2.48473
1476.92406 2.41820
1474.87562 2.35723
1472.82718 2.28450
1470.77874 2.22789
1468.73030 2.20278
1466.68186 2.19404
1464.63343 2.20285
1462.58499 2.22274
1460.53655 2.24308
1458.48811 2.26963
1456.43967 2.30044
1454.39123 2.30663
1452.34280 2.30447
1450.29436 2.30516
1448.24592 2.30609
1446.19748 2.29756
1444.14904 2.27306
1442.10060 2.23584
1440.05217 2.20006
1438.00373 2.17186
1435.95529 2.14593
1433.90685 2.12903
1431.85841 2.12004
1429.80997 2.11166
1427.76154 2.10298
1425.71310 2.09790
1423.66466 2.09645
1421.61622 2.09509
1419.56778 2.09632
1417.51934 2.10819
1415.47091 2.12613
1413.42247 2.14804
1411.37403 2.17930
1409.32559 2.22020
1407.27715 2.26413
1405.22871 2.30879
1403.18028 2.34696
1401.13184 2.37423
1399.08340 2.40167
1397.03496 2.43195
1394.98652 2.45725
1392.93808 2.47496
1390.88965 2.48897
1388.84121 2.50379
1386.79277 2.51736
1384.74433 2.52558
1382.69589 2.53404
1380.64745 2.54768
1378.59901 2.56468
1376.55058 2.57910
1374.50214 2.59262
1372.45370 2.60513
1370.40526 2.61084
1368.35682 2.61278
1366.30838 2.61877
1364.25995 2.63291
1362.21151 2.64946
1360.16307 2.65707
1358.11463 2.65605
1356.06619 2.65262
1354.01775 2.65237
1351.96932 2.65921
1349.92088 2.66788
1347.87244 2.67281
1345.82400 2.67535
1343.77556 2.67811
1341.72712 2.68569
1339.67869 2.69865
1337.63025 2.70662
1335.58181 2.70505
1333.53337 2.70208
1331.48493 2.70219
1329.43649 2.70183
1327.38806 2.70069
1325.33962 2.70609
1323.29118 2.71288
1321.24274 2.71593
1319.19430 2.72234
1317.14586 2.72838
1315.09743 2.72488
1313.04899 2.71370
1311.00055 2.70543
1308.95211 2.70347
1306.90367 2.70189
1304.85523 2.69657
1302.80680 2.69291
1300.75836 2.69699
1298.70992 2.70294
1296.66148 2.70096
1294.61304 2.69507
1292.56460 2.69764
1290.51617 2.70844
1288.46773 2.72036
1286.41929 2.72755
1284.37085 2.73191
1282.32241 2.73626
1280.27397 2.73608
1278.22554 2.73464
1276.17710 2.73783
1274.12866 2.74500
1272.08022 2.74782
1270.03178 2.74297
1267.98334 2.74190
1265.93491 2.74564
1263.88647 2.74759
1261.83803 2.74848
1259.78959 2.74860
1257.74115 2.75159
1255.69271 2.76078
1253.64428 2.77237
1251.59584 2.78006
1249.54740 2.78302
1247.49896 2.78500
1245.45052 2.78259
1243.40208 2.77971
1241.35364 2.78489
1239.30521 2.79544
1237.25677 2.80904
1235.20833 2.81829
1233.15989 2.81311
1231.11145 2.80549
1229.06301 2.80762
1227.01458 2.81033
1224.96614 2.81030
1222.91770 2.81103
1220.86926 2.81050
1218.82082 2.80873
1216.77238 2.80394
1214.72395 2.80205
1212.67551 2.81096
1210.62707 2.82298
1208.57863 2.82763
1206.53019 2.82491
1204.48175 2.82460
1202.43332 2.83314
1200.38488 2.84122
1198.33644 2.84613
1196.28800 2.85227
1194.23956 2.84600
1192.19112 2.82745
1190.14269 2.81651
1188.09425 2.81836
1186.04581 2.82581
1183.99737 2.83150
1181.94893 2.83653
1179.90049 2.84537
1177.85206 2.85697
1175.80362 2.86680
1173.75518 2.86612
1171.70674 2.85471
1169.65830 2.84534
1167.60986 2.84355
1165.56143 2.84449
1163.51299 2.83997
1161.46455 2.82373
1159.41611 2.80780
1157.36767 2.80998
1155.31923 2.82048
1153.27080 2.82220
1151.22236 2.82238
1149.17392 2.83062
1147.12548 2.84401
1145.07704 2.85269
1143.02860 2.85080
1140.98017 2.85018
1138.93173 2.86716
1136.88329 2.89178
1134.83485 2.89806
1132.78641 2.88932
1130.73797 2.88714
1128.68954 2.89844
1126.64110 2.90994
1124.59266 2.90789
1122.54422 2.89894
1120.49578 2.89730
1118.44734 2.90947
1116.39891 2.92136
1114.35047 2.91106
1112.30203 2.88215
1110.25359 2.86124
1108.20515 2.86288
1106.15671 2.87204
1104.10827 2.87678
1102.05984 2.88419
1100.01140 2.89527
1097.96296 2.90175
1095.91452 2.89997
1093.86608 2.89240
1091.81764 2.88931
1089.76921 2.90096
1087.72077 2.91760
1085.67233 2.92575
1083.62389 2.92405
1081.57545 2.91764
1079.52701 2.90939
1077.47858 2.90060
1075.43014 2.88871
1073.38170 2.86716
1071.33326 2.84360
1069.28482 2.81622
1067.23638 2.78230
1065.18795 2.75612
1063.13951 2.73781
1061.09107 2.71784
1059.04263 2.70138
1056.99419 2.70090
1054.94575 2.71082
1052.89732 2.71558
1050.84888 2.72143
1048.80044 2.73977
1046.75200 2.76156
1044.70356 2.77194
1042.65512 2.77621
1040.60669 2.78671
1038.55825 2.78773
1036.50981 2.76441
1034.46137 2.73575
1032.41293 2.72089
1030.36449 2.71848
1028.31606 2.72127
1026.26762 2.73118
1024.21918 2.74731
1022.17074 2.75997
1020.12230 2.76688
1018.07386 2.77227
1016.02543 2.77327
1013.97699 2.77286
1011.92855 2.78035
1009.88011 2.79334
1007.83167 2.80371
1005.78323 2.80876
1003.73480 2.81160
1001.68636 2.81363
999.63792 2.81479
997.58948 2.81091
995.54104 2.80235
993.49260 2.80032
991.44417 2.80545
989.39573 2.80873
987.34729 2.79724
985.29885 2.76606
983.25041 2.72789
981.20197 2.68494
979.15354 2.63511
977.10510 2.58751
975.05666 2.54601
973.00822 2.50948
970.95978 2.47674
968.91134 2.44612
966.86290 2.41986
964.81447 2.39749
962.76603 2.37278
960.71759 2.34696
958.66915 2.32598
956.62071 2.30698
954.57227 2.28892
952.52384 2.28001
950.47540 2.28237
948.42696 2.29146
946.37852 2.30641
944.33008 2.32565
942.28164 2.34674
940.23321 2.36670
938.18477 2.37909
936.13633 2.38748
934.08789 2.39925
932.03945 2.41003
929.99101 2.41922
927.94258 2.42937
925.89414 2.43450
923.84570 2.43604
921.79726 2.44062
919.74882 2.44877
917.70038 2.45826
915.65195 2.46614
913.60351 2.46926
911.55507 2.47000
909.50663 2.47629
907.45819 2.48223
905.40975 2.48190
903.36132 2.48759
901.31288 2.50501
899.26444 2.51963
897.21600 2.51720
895.16756 2.50738
893.11912 2.50349
891.07069 2.50644
889.02225 2.51342
886.97381 2.51886
884.92537 2.51258
882.87693 2.49955
880.82849 2.50267
878.78006 2.52039
876.73162 2.53006
874.68318 2.52824
872.63474 2.52190
870.58630 2.51656
868.53786 2.51496
866.48943 2.50939
864.44099 2.48897
862.39255 2.45206
860.34411 2.41216
858.29567 2.37589
856.24723 2.33772
854.19880 2.30197
852.15036 2.27555
850.10192 2.25885
848.05348 2.24787
846.00504 2.23777
843.95660 2.22690
841.90817 2.21173
839.85973 2.19572
837.81129 2.18980
835.76285 2.19565
833.71441 2.20943
831.66597 2.22716
829.61753 2.24209
827.56910 2.25582
825.52066 2.27800
823.47222 2.30283
821.42378 2.31079
819.37534 2.29445
817.32690 2.26812
815.27847 2.25298
813.23003 2.25498
811.18159 2.26994
809.13315 2.28971
807.08471 2.30152
805.03627 2.30700
802.98784 2.31621
800.93940 2.32642
798.89096 2.33155
796.84252 2.33421
794.79408 2.33280
792.74564 2.32436
790.69721 2.32584
788.64877 2.34825
786.60033 2.37004
784.55189 2.37762
782.50345 2.38573
780.45501 2.39438
778.40658 2.39756
776.35814 2.40531
774.30970 2.41561
772.26126 2.41414
770.21282 2.40138
768.16438 2.39133
766.11595 2.39585
764.06751 2.40761
762.01907 2.40806
759.97063 2.40403
757.92219 2.41737
755.87375 2.44081
753.82532 2.44924
751.77688 2.45510
749.72844 2.47568
747.68000 2.48426
745.63156 2.47325
743.58312 2.46598
741.53469 2.46604
739.48625 2.47797
737.43781 2.50647
735.38937 2.53362
733.34093 2.54549
731.29249 2.55083
729.24406 2.54228
727.19562 2.51838
725.14718 2.51403
723.09874 2.53362
721.05030 2.54799
719.00186 2.55674
716.95343 2.55859
714.90499 2.53780
712.85655 2.53091
710.80811 2.57000
708.75967 2.61338
706.71123 2.61468
704.66280 2.59774
702.61436 2.58714
700.56592 2.57797
698.51748 2.58837
696.46904 2.62824
694.42060 2.63909
692.37216 2.59668
690.32373 2.55513
688.27529 2.53545
686.22685 2.54785
684.17841 2.59403
682.12997 2.62457
680.08153 2.60532
678.03310 2.57659
675.98466 2.57041
673.93622 2.56045
671.88778 2.55504
669.83934 2.61723
667.79090 2.74979
665.74247 2.75308
663.69403 2.66951
661.64559 2.56957
659.59715 2.49043
657.54871 2.47703
655.50027 2.50666
653.45184 2.57713
651.40340 2.72293
649.35496 2.74720
647.30652 2.60278
645.25808 2.55488
643.20964 2.62586
641.16121 2.66015
639.11277 2.59706
637.06433 2.56561
635.01589 2.55428
632.96745 2.52705
630.91901 2.53621
628.87058 2.59353
626.82214 2.60723
624.77370 2.53385
622.72526 2.44083
620.67682 2.33944
618.62838 2.28931
616.57995 2.38567
614.53151 2.64389
612.48307 2.85998
610.43463 2.88548
608.38619 3.03992
606.33775 3.22545
604.28932 2.86176
602.24088 2.73768
600.19244 3.00652
598.14400 2.82355
