3996.50324 1.11632
3994.45480 1.11647
3992.40636 1.11674
3990.35792 1.11729
3988.30948 1.11736
3986.26104 1.11702
3984.21261 1.11711
3982.16417 1.11752
3980.11573 1.11795
3978.06729 1.11847
3976.01885 1.11905
3973.97041 1.11944
3971.92198 1.11960
3969.87354 1.11959
3967.82510 1.11931
3965.77666 1.11910
3963.72822 1.11950
3961.67978 1.12001
3959.63135 1.11994
3957.58291 1.11967
3955.53447 1.11949
3953.48603 1.11940
3951.43759 1.11969
3949.38915 1.12028
3947.34072 1.12024
3945.29228 1.11975
3943.24384 1.11967
3941.19540 1.11939
3939.14696 1.11878
3937.09852 1.11853
3935.05009 1.11907
3933.00165 1.12035
3930.95321 1.12097
3928.90477 1.12012
3926.85633 1.11970
3924.80789 1.12081
3922.75946 1.12157
3920.71102 1.12169
3918.66258 1.12265
3916.61414 1.12300
3914.56570 1.12138
3912.51726 1.11974
3910.46883 1.11906
3908.42039 1.11929
3906.37195 1.12114
3904.32351 1.12399
3902.27507 1.12539
3900.22663 1.12553
3898.17820 1.12483
3896.12976 1.12372
3894.08132 1.12386
3892.03288 1.12493
3889.98444 1.12419
3887.93600 1.12305
3885.88756 1.12411
3883.83913 1.12519
3881.79069 1.12512
3879.74225 1.12522
3877.69381 1.12415
3875.64537 1.12360
3873.59693 1.12477
3871.54850 1.12634
3869.50006 1.12705
3867.45162 1.12595
3865.40318 1.12592
3863.35474 1.12656
3861.30630 1.12465
3859.25787 1.12311
3857.20943 1.12362
3855.16099 1.12576
3853.11255 1.12989
3851.06411 1.12932
3849.01567 1.12531
3846.96724 1.12272
3844.91880 1.12305
3842.87036 1.12545
3840.82192 1.12786
3838.77348 1.12933
3836.72504 1.12884
3834.67661 1.12706
3832.62817 1.12522
3830.57973 1.12347
3828.53129 1.12276
3826.48285 1.12401
3824.43441 1.12565
3822.38598 1.12760
3820.33754 1.12981
3818.28910 1.12884
3816.24066 1.12702
3814.19222 1.12462
3812.14378 1.12172
3810.09535 1.12035
3808.04691 1.12170
3805.99847 1.12419
3803.95003 1.12556
3801.90159 1.12754
3799.85315 1.12770
3797.80472 1.12582
3795.75628 1.12418
3793.70784 1.12195
3791.65940 1.12005
3789.61096 1.11950
3787.56252 1.12002
3785.51409 1.12112
3783.46565 1.12151
3781.41721 1.12165
3779.36877 1.12267
3777.32033 1.12227
3775.27189 1.12060
3773.22346 1.12013
3771.17502 1.12177
3769.12658 1.12385
3767.07814 1.12398
3765.02970 1.12292
3762.98126 1.12165
3760.93283 1.12195
3758.88439 1.12465
3756.83595 1.12639
3754.78751 1.12662
3752.73907 1.12914
3750.69063 1.13496
3748.64219 1.13513
3746.59376 1.13176
3744.54532 1.13069
3742.49688 1.13079
3740.44844 1.12975
3738.40000 1.12988
3736.35156 1.13286
3734.30313 1.13510
3732.25469 1.13331
3730.20625 1.13045
3728.15781 1.12888
3726.10937 1.12933
3724.06093 1.13017
3722.01250 1.12961
3719.96406 1.12798
3717.91562 1.12603
3715.86718 1.12516
3713.81874 1.12723
3711.77030 1.13226
3709.72187 1.13295
3707.67343 1.12900
3705.62499 1.12650
3703.57655 1.12667
3701.52811 1.12751
3699.47967 1.12641
3697.43124 1.12542
3695.38280 1.12590
3693.33436 1.12718
3691.28592 1.12987
3689.23748 1.13238
3687.18904 1.13020
3685.14061 1.12692
3683.09217 1.12530
3681.04373 1.12563
3678.99529 1.12746
3676.94685 1.13064
3674.89841 1.13358
3672.84998 1.13328
3670.80154 1.13340
3668.75310 1.13259
3666.70466 1.12917
3664.65622 1.12693
3662.60778 1.12661
3660.55935 1.12700
3658.51091 1.12779
3656.46247 1.12933
3654.41403 1.12979
3652.36559 1.13006
3650.31715 1.13427
3648.26872 1.13836
3646.22028 1.13460
3644.17184 1.13084
3642.12340 1.12934
3640.07496 1.12877
3638.02652 1.12806
3635.97809 1.12801
3633.92965 1.12938
3631.88121 1.13130
3629.83277 1.13397
3627.78433 1.13564
3625.73589 1.13353
3623.68746 1.13144
3621.63902 1.13161
3619.59058 1.13433
3617.54214 1.13574
3615.49370 1.13477
3613.44526 1.13417
3611.39682 1.13378
3609.34839 1.13348
3607.29995 1.13335
3605.25151 1.13246
3603.20307 1.13197
3601.15463 1.13311
3599.10619 1.13448
3597.05776 1.13493
3595.00932 1.13502
3592.96088 1.13408
3590.91244 1.13319
3588.86400 1.13545
3586.81556 1.13844
3584.76713 1.13646
3582.71869 1.13378
3580.67025 1.13300
3578.62181 1.13303
3576.57337 1.13325
3574.52493 1.13372
3572.47650 1.13397
3570.42806 1.13438
3568.37962 1.13661
3566.33118 1.13954
3564.28274 1.13857
3562.23430 1.13607
3560.18587 1.13470
3558.13743 1.13420
3556.08899 1.13384
3554.04055 1.13424
3551.99211 1.13546
3549.94367 1.13612
3547.89524 1.13696
3545.84680 1.13826
3543.79836 1.13791
3541.74992 1.13620
3539.70148 1.13526
3537.65304 1.13610
3535.60461 1.13730
3533.55617 1.13726
3531.50773 1.13728
3529.45929 1.13845
3527.41085 1.13945
3525.36241 1.13980
3523.31398 1.14030
3521.26554 1.14042
3519.21710 1.14010
3517.16866 1.14011
3515.12022 1.14035
3513.07178 1.14079
3511.02335 1.14201
3508.97491 1.14350
3506.92647 1.14435
3504.87803 1.14523
3502.82959 1.14625
3500.78115 1.14627
3498.73272 1.14583
3496.68428 1.14586
3494.63584 1.14625
3492.58740 1.14649
3490.53896 1.14674
3488.49052 1.14730
3486.44209 1.14742
3484.39365 1.14697
3482.34521 1.14708
3480.29677 1.14721
3478.24833 1.14635
3476.19989 1.14565
3474.15146 1.14595
3472.10302 1.14696
3470.05458 1.14852
3468.00614 1.15014
3465.95770 1.15141
3463.90926 1.15295
3461.86082 1.15526
3459.81239 1.15767
3457.76395 1.16034
3455.71551 1.16358
3453.66707 1.16712
3451.61863 1.17132
3449.57019 1.17700
3447.52176 1.18464
3445.47332 1.19225
3443.42488 1.19477
3441.37644 1.17732
3439.32800 1.11971
3437.27956 1.03702
3435.23113 0.97575
3433.18269 0.95986
3431.13425 0.97699
3429.08581 1.00295
3427.03737 1.02436
3424.98893 1.03990
3422.94050 1.05193
3420.89206 1.06204
3418.84362 1.06991
3416.79518 1.07562
3414.74674 1.08033
3412.69830 1.08446
3410.64987 1.08786
3408.60143 1.09053
3406.55299 1.09289
3404.50455 1.09533
3402.45611 1.09749
3400.40767 1.09921
3398.35924 1.10091
3396.31080 1.10255
3394.26236 1.10387
3392.21392 1.10486
3390.16548 1.10532
3388.11704 1.10595
3386.06861 1.10717
3384.02017 1.10811
3381.97173 1.10854
3379.92329 1.10898
3377.87485 1.10950
3375.82641 1.11012
3373.77798 1.11072
3371.72954 1.11136
3369.68110 1.11206
3367.63266 1.11237
3365.58422 1.11230
3363.53578 1.11220
3361.48735 1.11215
3359.43891 1.11229
3357.39047 1.11274
3355.34203 1.11345
3353.29359 1.11385
3351.24515 1.11369
3349.19672 1.11359
3347.14828 1.11374
3345.09984 1.11393
3343.05140 1.11425
3341.00296 1.11476
3338.95452 1.11535
3336.90609 1.11595
3334.85765 1.11636
3332.80921 1.11643
3330.76077 1.11652
3328.71233 1.11693
3326.66389 1.11753
3324.61545 1.11791
3322.56702 1.11771
3320.51858 1.11749
3318.47014 1.11782
3316.42170 1.11824
3314.37326 1.11823
3312.32482 1.11837
3310.27639 1.11904
3308.22795 1.11940
3306.17951 1.11912
3304.13107 1.11910
3302.08263 1.11957
3300.03419 1.12014
3297.98576 1.12066
3295.93732 1.12087
3293.88888 1.12105
3291.84044 1.12148
3289.79200 1.12156
3287.74356 1.12123
3285.69513 1.12127
3283.64669 1.12179
3281.59825 1.12210
3279.54981 1.12194
3277.50137 1.12195
3275.45293 1.12240
3273.40450 1.12266
3271.35606 1.12252
3269.30762 1.12231
3267.25918 1.12221
3265.21074 1.12222
3263.16230 1.12240
3261.11387 1.12280
3259.06543 1.12318
3257.01699 1.12346
3254.96855 1.12378
3252.92011 1.12392
3250.87167 1.12387
3248.82324 1.12411
3246.77480 1.12472
3244.72636 1.12534
3242.67792 1.12568
3240.62948 1.12572
3238.58104 1.12589
3236.53261 1.12627
3234.48417 1.12645
3232.43573 1.12646
3230.38729 1.12637
3228.33885 1.12617
3226.29041 1.12597
3224.24198 1.12580
3222.19354 1.12585
3220.14510 1.12596
3218.09666 1.12578
3216.04822 1.12566
3213.99978 1.12568
3211.95135 1.12554
3209.90291 1.12532
3207.85447 1.12503
3205.80603 1.12477
3203.75759 1.12478
3201.70915 1.12527
3199.66072 1.12600
3197.61228 1.12622
3195.56384 1.12584
3193.51540 1.12536
3191.46696 1.12509
3189.41852 1.12513
3187.37008 1.12530
3185.32165 1.12539
3183.27321 1.12551
3181.22477 1.12577
3179.17633 1.12608
3177.12789 1.12627
3175.07945 1.12614
3173.03102 1.12567
3170.98258 1.12549
3168.93414 1.12586
3166.88570 1.12619
3164.83726 1.12653
3162.78882 1.12694
3160.74039 1.12703
3158.69195 1.12689
3156.64351 1.12672
3154.59507 1.12661
3152.54663 1.12698
3150.49819 1.12779
3148.44976 1.12820
3146.40132 1.12801
3144.35288 1.12776
3142.30444 1.12748
3140.25600 1.12695
3138.20756 1.12675
3136.15913 1.12723
3134.11069 1.12777
3132.06225 1.12780
3130.01381 1.12754
3127.96537 1.12756
3125.91693 1.12773
3123.86850 1.12771
3121.82006 1.12739
3119.77162 1.12677
3117.72318 1.12624
3115.67474 1.12617
3113.62630 1.12654
3111.57787 1.12697
3109.52943 1.12705
3107.48099 1.12717
3105.43255 1.12756
3103.38411 1.12774
3101.33567 1.12767
3099.28724 1.12764
3097.23880 1.12780
3095.19036 1.12792
3093.14192 1.12757
3091.09348 1.12694
3089.04504 1.12665
3086.99661 1.12669
3084.94817 1.12652
3082.89973 1.12613
3080.85129 1.12591
3078.80285 1.12605
3076.75441 1.12647
3074.70598 1.12709
3072.65754 1.12749
3070.60910 1.12730
3068.56066 1.12714
3066.51222 1.12751
3064.46378 1.12787
3062.41535 1.12794
3060.36691 1.12794
3058.31847 1.12784
3056.27003 1.12769
3054.22159 1.12741
3052.17315 1.12703
3050.12471 1.12714
3048.07628 1.12759
3046.02784 1.12773
3043.97940 1.12777
3041.93096 1.12798
3039.88252 1.12811
3037.83408 1.12813
3035.78565 1.12825
3033.73721 1.12848
3031.68877 1.12895
3029.64033 1.12944
3027.59189 1.12946
3025.54345 1.12907
3023.49502 1.12882
3021.44658 1.12897
3019.39814 1.12931
3017.34970 1.12971
3015.30126 1.13001
3013.25282 1.13004
3011.20439 1.12986
3009.15595 1.12966
3007.10751 1.12968
3005.05907 1.12995
3003.01063 1.13015
3000.96219 1.13015
2998.91376 1.13021
2996.86532 1.13036
2994.81688 1.13047
2992.76844 1.13050
2990.72000 1.13030
2988.67156 1.12994
2986.62313 1.12971
2984.57469 1.12986
2982.52625 1.13020
2980.47781 1.13034
2978.42937 1.13022
2976.38093 1.12992
2974.33250 1.12941
2972.28406 1.12883
2970.23562 1.12837
2968.18718 1.12816
2966.13874 1.12805
2964.09030 1.12773
2962.04187 1.12738
2959.99343 1.12728
2957.94499 1.12717
2955.89655 1.12714
2953.84811 1.12725
2951.79967 1.12721
2949.75124 1.12716
2947.70280 1.12720
2945.65436 1.12721
2943.60592 1.12740
2941.55748 1.12775
2939.50904 1.12774
2937.46061 1.12712
2935.41217 1.12598
2933.36373 1.12442
2931.31529 1.12290
2929.26685 1.12204
2927.21841 1.12173
2925.16998 1.12167
2923.12154 1.12169
2921.07310 1.12145
2919.02466 1.12113
2916.97622 1.12154
2914.92778 1.12284
2912.87934 1.12428
2910.83091 1.12544
2908.78247 1.12641
2906.73403 1.12709
2904.68559 1.12761
2902.63715 1.12835
2900.58871 1.12899
2898.54028 1.12917
2896.49184 1.12935
2894.44340 1.12997
2892.39496 1.13060
2890.34652 1.13088
2888.29808 1.13110
2886.24965 1.13126
2884.20121 1.13147
2882.15277 1.13174
2880.10433 1.13177
2878.05589 1.13147
2876.00745 1.13072
2873.95902 1.13005
2871.91058 1.13038
2869.86214 1.13128
2867.81370 1.13172
2865.76526 1.13165
2863.71682 1.13121
2861.66839 1.13019
2859.61995 1.12919
2857.57151 1.12890
2855.52307 1.12881
2853.47463 1.12865
2851.42619 1.12869
2849.37776 1.12897
2847.32932 1.12979
2845.28088 1.13131
2843.23244 1.13261
2841.18400 1.13275
2839.13556 1.13240
2837.08713 1.13261
2835.03869 1.13318
2832.99025 1.13392
2830.94181 1.13474
2828.89337 1.13503
2826.84493 1.13476
2824.79650 1.13443
2822.74806 1.13422
2820.69962 1.13399
2818.65118 1.13372
2816.60274 1.13353
2814.55430 1.13340
2812.50587 1.13333
2810.45743 1.13323
2808.40899 1.13322
2806.36055 1.13343
2804.31211 1.13371
2802.26367 1.13385
2800.21524 1.13370
2798.16680 1.13347
2796.11836 1.13337
2794.06992 1.13326
2792.02148 1.13323
2789.97304 1.13325
2787.92461 1.13337
2785.87617 1.13359
2783.82773 1.13385
2781.77929 1.13434
2779.73085 1.13482
2777.68241 1.13486
2775.63397 1.13478
2773.58554 1.13489
2771.53710 1.13499
2769.48866 1.13505
2767.44022 1.13514
2765.39178 1.13529
2763.34334 1.13560
2761.29491 1.13595
2759.24647 1.13625
2757.19803 1.13655
2755.14959 1.13669
2753.10115 1.13657
2751.05271 1.13637
2749.00428 1.13634
2746.95584 1.13654
2744.90740 1.13658
2742.85896 1.13635
2740.81052 1.13623
2738.76208 1.13642
2736.71365 1.13668
2734.66521 1.13684
2732.61677 1.13687
2730.56833 1.13680
2728.51989 1.13670
2726.47145 1.13672
2724.42302 1.13703
2722.37458 1.13731
2720.32614 1.13727
2718.27770 1.13718
2716.22926 1.13733
2714.18082 1.13769
2712.13239 1.13817
2710.08395 1.13867
2708.03551 1.13902
2705.98707 1.13927
2703.93863 1.13958
2701.89019 1.13981
2699.84176 1.13984
2697.79332 1.13991
2695.74488 1.14023
2693.69644 1.14060
2691.64800 1.14090
2689.59956 1.14128
2687.55113 1.14156
2685.50269 1.14160
2683.45425 1.14154
2681.40581 1.14132
2679.35737 1.14126
2677.30893 1.14160
2675.26050 1.14214
2673.21206 1.14260
2671.16362 1.14287
2669.11518 1.14303
2667.06674 1.14311
2665.01830 1.14313
2662.96987 1.14334
2660.92143 1.14380
2658.87299 1.14425
2656.82455 1.14453
2654.77611 1.14466
2652.72767 1.14463
2650.67924 1.14461
2648.63080 1.14501
2646.58236 1.14556
2644.53392 1.14573
2642.48548 1.14569
2640.43704 1.14576
2638.38860 1.14601
2636.34017 1.14636
2634.29173 1.14656
2632.24329 1.14675
2630.19485 1.14720
2628.14641 1.14762
2626.09797 1.14768
2624.04954 1.14766
2622.00110 1.14789
2619.95266 1.14821
2617.90422 1.14854
2615.85578 1.14905
2613.80734 1.14942
2611.75891 1.14935
2609.71047 1.14908
2607.66203 1.14890
2605.61359 1.14898
2603.56515 1.14930
2601.51671 1.14954
2599.46828 1.14948
2597.41984 1.14923
2595.37140 1.14893
2593.32296 1.14871
2591.27452 1.14861
2589.22608 1.14852
2587.17765 1.14837
2585.12921 1.14844
2583.08077 1.14879
2581.03233 1.14906
2578.98389 1.14933
2576.93545 1.14984
2574.88702 1.15052
2572.83858 1.15112
2570.79014 1.15159
2568.74170 1.15211
2566.69326 1.15259
2564.64482 1.15273
2562.59639 1.15234
2560.54795 1.15175
2558.49951 1.15142
2556.45107 1.15117
2554.40263 1.15064
2552.35419 1.14990
2550.30576 1.14922
2548.25732 1.14874
2546.20888 1.14846
2544.16044 1.14850
2542.11200 1.14895
2540.06356 1.14953
2538.01513 1.14970
2535.96669 1.14957
2533.91825 1.14962
2531.86981 1.14990
2529.82137 1.15027
2527.77293 1.15052
2525.72450 1.15054
2523.67606 1.15051
2521.62762 1.15047
2519.57918 1.15043
2517.53074 1.15042
2515.48230 1.15034
2513.43387 1.15026
2511.38543 1.15003
2509.33699 1.14965
2507.28855 1.14934
2505.24011 1.14906
2503.19167 1.14881
2501.14324 1.14852
2499.09480 1.14788
2497.04636 1.14685
2494.99792 1.14576
2492.94948 1.14496
2490.90104 1.14475
2488.85260 1.14514
2486.80417 1.14569
2484.75573 1.14604
2482.70729 1.14633
2480.65885 1.14663
2478.61041 1.14688
2476.56197 1.14735
2474.51354 1.14806
2472.46510 1.14857
2470.41666 1.14872
2468.36822 1.14876
2466.31978 1.14886
2464.27134 1.14905
2462.22291 1.14942
2460.17447 1.14977
2458.12603 1.15000
2456.07759 1.15022
2454.02915 1.15046
2451.98071 1.15059
2449.93228 1.15055
2447.88384 1.15055
2445.83540 1.15081
2443.78696 1.15103
2441.73852 1.15103
2439.69008 1.15115
2437.64165 1.15129
2435.59321 1.15139
2433.54477 1.15174
2431.49633 1.15223
2429.44789 1.15257
2427.39945 1.15270
2425.35102 1.15268
2423.30258 1.15278
2421.25414 1.15323
2419.20570 1.15378
2417.15726 1.15401
2415.10882 1.15389
2413.06039 1.15388
2411.01195 1.15406
2408.96351 1.15418
2406.91507 1.15429
2404.86663 1.15451
2402.81819 1.15469
2400.76976 1.15479
2398.72132 1.15499
2396.67288 1.15520
2394.62444 1.15536
2392.57600 1.15559
2390.52756 1.15602
2388.47913 1.15671
2386.43069 1.15768
2384.38225 1.15882
2382.33381 1.16030
2380.28537 1.16258
2378.23693 1.16544
2376.18850 1.16804
2374.14006 1.17021
2372.09162 1.17238
2370.04318 1.17496
2367.99474 1.17835
2365.94630 1.18148
2363.89787 1.18321
2361.84943 1.18437
2359.80099 1.18516
2357.75255 1.18453
2355.70411 1.18288
2353.65567 1.18086
2351.60723 1.17838
2349.55880 1.17639
2347.51036 1.17654
2345.46192 1.17973
2343.41348 1.18325
2341.36504 1.18313
2339.31660 1.18121
2337.26817 1.18101
2335.21973 1.18228
2333.17129 1.18333
2331.12285 1.18366
2329.07441 1.18320
2327.02597 1.18231
2324.97754 1.18169
2322.92910 1.18147
2320.88066 1.18061
2318.83222 1.17890
2316.78378 1.17717
2314.73534 1.17609
2312.68691 1.17578
2310.63847 1.17549
2308.59003 1.17440
2306.54159 1.17296
2304.49315 1.17191
2302.44471 1.17124
2300.39628 1.17084
2298.34784 1.17068
2296.29940 1.17046
2294.25096 1.17012
2292.20252 1.16963
2290.15408 1.16893
2288.10565 1.16851
2286.05721 1.16859
2284.00877 1.16888
2281.96033 1.16937
2279.91189 1.17001
2277.86345 1.17029
2275.81502 1.17023
2273.76658 1.17040
2271.71814 1.17077
2269.66970 1.17110
2267.62126 1.17150
2265.57282 1.17181
2263.52439 1.17203
2261.47595 1.17234
2259.42751 1.17258
2257.37907 1.17252
2255.33063 1.17238
2253.28219 1.17259
2251.23376 1.17301
2249.18532 1.17315
2247.13688 1.17313
2245.08844 1.17334
2243.04000 1.17377
2240.99156 1.17399
2238.94313 1.17393
2236.89469 1.17395
2234.84625 1.17417
2232.79781 1.17448
2230.74937 1.17474
2228.70093 1.17482
2226.65250 1.17495
2224.60406 1.17542
2222.55562 1.17616
2220.50718 1.17666
2218.45874 1.17674
2216.41030 1.17672
2214.36186 1.17695
2212.31343 1.17742
2210.26499 1.17798
2208.21655 1.17837
2206.16811 1.17845
2204.11967 1.17837
2202.07123 1.17862
2200.02280 1.17931
2197.97436 1.17993
2195.92592 1.18006
2193.87748 1.18005
2191.82904 1.18033
2189.78060 1.18069
2187.73217 1.18087
2185.68373 1.18099
2183.63529 1.18131
2181.58685 1.18186
2179.53841 1.18216
2177.48997 1.18230
2175.44154 1.18258
2173.39310 1.18273
2171.34466 1.18285
2169.29622 1.18322
2167.24778 1.18352
2165.19934 1.18357
2163.15091 1.18342
2161.10247 1.18348
2159.05403 1.18387
2157.00559 1.18422
2154.95715 1.18456
2152.90871 1.18489
2150.86028 1.18518
2148.81184 1.18549
2146.76340 1.18574
2144.71496 1.18583
2142.66652 1.18595
2140.61808 1.18632
2138.56965 1.18687
2136.52121 1.18729
2134.47277 1.18761
2132.42433 1.18802
2130.37589 1.18848
2128.32745 1.18890
2126.27902 1.18905
2124.23058 1.18928
2122.18214 1.18982
2120.13370 1.19027
2118.08526 1.19054
2116.03682 1.19089
2113.98839 1.19139
2111.93995 1.19205
2109.89151 1.19261
2107.84307 1.19279
2105.79463 1.19280
2103.74619 1.19296
2101.69776 1.19333
2099.64932 1.19370
2097.60088 1.19391
2095.55244 1.19416
2093.50400 1.19483
2091.45556 1.19559
2089.40713 1.19602
2087.35869 1.19644
2085.31025 1.19695
2083.26181 1.19739
2081.21337 1.19784
2079.16493 1.19856
2077.11649 1.19931
2075.06806 1.19969
2073.01962 1.20009
2070.97118 1.20079
2068.92274 1.20135
2066.87430 1.20174
2064.82586 1.20234
2062.77743 1.20311
2060.72899 1.20373
2058.68055 1.20411
2056.63211 1.20447
2054.58367 1.20494
2052.53523 1.20546
2050.48680 1.20589
2048.43836 1.20615
2046.38992 1.20647
2044.34148 1.20728
2042.29304 1.20826
2040.24460 1.20856
2038.19617 1.20855
2036.14773 1.20905
2034.09929 1.20979
2032.05085 1.21035
2030.00241 1.21089
2027.95397 1.21146
2025.90554 1.21214
2023.85710 1.21300
2021.80866 1.21373
2019.76022 1.21419
2017.71178 1.21469
2015.66334 1.21509
2013.61491 1.21541
2011.56647 1.21600
2009.51803 1.21671
2007.46959 1.21745
2005.42115 1.21825
2003.37271 1.21908
2001.32428 1.21981
1999.27584 1.22046
1997.22740 1.22132
1995.17896 1.22266
1993.13052 1.22422
1991.08208 1.22492
1989.03365 1.22477
1986.98521 1.22483
1984.93677 1.22515
1982.88833 1.22557
1980.83989 1.22623
1978.79145 1.22711
1976.74302 1.22797
1974.69458 1.22867
1972.64614 1.22932
1970.59770 1.23041
1968.54926 1.23198
1966.50082 1.23302
1964.45239 1.23312
1962.40395 1.23332
1960.35551 1.23402
1958.30707 1.23488
1956.25863 1.23581
1954.21019 1.23665
1952.16176 1.23736
1950.11332 1.23823
1948.06488 1.23933
1946.01644 1.24051
1943.96800 1.24184
1941.91956 1.24298
1939.87112 1.24338
1937.82269 1.24377
1935.77425 1.24454
1933.72581 1.24532
1931.67737 1.24601
1929.62893 1.24703
1927.58049 1.24834
1925.53206 1.24970
1923.48362 1.25108
1921.43518 1.25189
1919.38674 1.25247
1917.33830 1.25351
1915.28986 1.25427
1913.24143 1.25496
1911.19299 1.25644
1909.14455 1.25792
1907.09611 1.25839
1905.04767 1.25858
1902.99923 1.25936
1900.95080 1.26034
1898.90236 1.26136
1896.85392 1.26264
1894.80548 1.26372
1892.75704 1.26456
1890.70860 1.26613
1888.66017 1.26767
1886.61173 1.26798
1884.56329 1.26828
1882.51485 1.26870
1880.46641 1.26910
1878.41797 1.26988
1876.36954 1.27103
1874.32110 1.27230
1872.27266 1.27391
1870.22422 1.27666
1868.17578 1.27942
1866.12734 1.27922
1864.07891 1.27760
1862.03047 1.27662
1859.98203 1.27588
1857.93359 1.27466
1855.88515 1.27320
1853.83671 1.27220
1851.78828 1.27201
1849.73984 1.27288
1847.69140 1.27476
1845.64296 1.27732
1843.59452 1.27943
1841.54608 1.27926
1839.49765 1.27892
1837.44921 1.27977
1835.40077 1.28075
1833.35233 1.28184
1831.30389 1.28434
1829.25545 1.28699
1827.20702 1.28791
1825.15858 1.28889
1823.11014 1.28983
1821.06170 1.29010
1819.01326 1.29098
1816.96482 1.29290
1814.91639 1.29498
1812.86795 1.29734
1810.81951 1.29986
1808.77107 1.30132
1806.72263 1.30222
1804.67419 1.30395
1802.62575 1.30677
1800.57732 1.30980
1798.52888 1.31183
1796.48044 1.31316
1794.43200 1.31500
1792.38356 1.31765
1790.33512 1.31895
1788.28669 1.31891
1786.23825 1.32000
1784.18981 1.32214
1782.14137 1.32430
1780.09293 1.32636
1778.04449 1.32796
1775.99606 1.33012
1773.94762 1.33398
1771.89918 1.33828
1769.85074 1.33921
1767.80230 1.33845
1765.75386 1.33806
1763.70543 1.33932
1761.65699 1.34269
1759.60855 1.34552
1757.56011 1.34765
1755.51167 1.34948
1753.46323 1.35099
1751.41480 1.35458
1749.36636 1.36025
1747.31792 1.36298
1745.26948 1.36343
1743.22104 1.36401
1741.17260 1.36552
1739.12417 1.36808
1737.07573 1.37096
1735.02729 1.37640
1732.97885 1.38331
1730.93041 1.38497
1728.88197 1.38478
1726.83354 1.38570
1724.78510 1.38887
1722.73666 1.39349
1720.68822 1.39785
1718.63978 1.40489
1716.59134 1.41501
1714.54291 1.41752
1712.49447 1.41712
1710.44603 1.41882
1708.39759 1.42309
1706.34915 1.42974
1704.30071 1.43592
1702.25228 1.44028
1700.20384 1.44809
1698.15540 1.45580
1696.10696 1.45821
1694.05852 1.45890
1692.01008 1.46054
1689.96165 1.46537
1687.91321 1.47131
1685.86477 1.47944
1683.81633 1.49276
1681.76789 1.49828
1679.71945 1.49891
1677.67102 1.50122
1675.62258 1.50639
1673.57414 1.51247
1671.52570 1.51897
1669.47726 1.52770
1667.42882 1.53257
1665.38038 1.53454
1663.33195 1.54082
1661.28351 1.54890
1659.23507 1.55454
1657.18663 1.56028
1655.13819 1.57081
1653.08975 1.59068
1651.04132 1.59917
1648.99288 1.60416
1646.94444 1.61508
1644.89600 1.62007
1642.84756 1.62077
1640.79912 1.62643
1638.75069 1.63632
1636.70225 1.65278
1634.65381 1.66587
1632.60537 1.66847
1630.55693 1.67258
1628.50849 1.68153
1626.46006 1.69157
1624.41162 1.70098
1622.36318 1.71011
1620.31474 1.71334
1618.26630 1.71807
1616.21786 1.72300
1614.16943 1.72138
1612.12099 1.71631
1610.07255 1.71167
1608.02411 1.70254
1605.97567 1.68772
1603.92723 1.66724
1601.87880 1.63860
1599.83036 1.60305
1597.78192 1.56030
1595.73348 1.50734
1593.68504 1.44145
1591.63660 1.36601
1589.58817 1.27734
1587.53973 1.17485
1585.49129 1.05864
1583.44285 0.93282
1581.39441 0.81276
1579.34597 0.71577
1577.29754 0.62225
1575.24910 0.52794
1573.20066 0.48080
1571.15222 0.45678
1569.10378 0.43329
1567.05534 0.41612
1565.00691 0.40626
1562.95847 0.39966
1560.91003 0.39628
1558.86159 0.39383
1556.81315 0.38928
1554.76471 0.38438
1552.71628 0.38035
1550.66784 0.37830
1548.61940 0.37739
1546.57096 0.37824
1544.52252 0.38207
1542.47408 0.38855
1540.42565 0.39561
1538.37721 0.39938
1536.32877 0.40199
1534.28033 0.41182
1532.23189 0.43018
1530.18345 0.44879
1528.13501 0.47508
1526.08658 0.51628
1524.03814 0.56044
1521.98970 0.61337
1519.94126 0.67182
1517.89282 0.71601
1515.84438 0.76191
1513.79595 0.80147
1511.74751 0.83577
1509.69907 0.87362
1507.65063 0.93529
1505.60219 1.02469
1503.55375 1.06620
1501.50532 1.10140
1499.45688 1.14979
1497.40844 1.21420
1495.36000 1.27188
1493.31156 1.30137
1491.26312 1.30652
1489.21469 1.24948
1487.16625 1.11257
1485.11781 0.96279
1483.06937 0.81509
1481.02093 0.67431
1478.97249 0.56764
1476.92406 0.48827
1474.87562 0.41292
1472.82718 0.32102
1470.77874 0.24827
1468.73030 0.21747
1466.68186 0.20863
1464.63343 0.22247
1462.58499 0.25154
1460.53655 0.27956
1458.48811 0.31036
1456.43967 0.34083
1454.39123 0.34855
1452.34280 0.34917
1450.29436 0.34952
1448.24592 0.34659
1446.19748 0.33292
1444.14904 0.30426
1442.10060 0.26263
1440.05217 0.22121
1438.00373 0.18810
1435.95529 0.16250
1433.90685 0.15040
1431.85841 0.14805
1429.80997 0.15118
1427.76154 0.15675
1425.71310 0.16394
1423.66466 0.17328
1421.61622 0.18262
1419.56778 0.19490
1417.51934 0.21064
1415.47091 0.22352
1413.42247 0.24041
1411.37403 0.26883
1409.32559 0.30793
1407.27715 0.35178
1405.22871 0.39949
1403.18028 0.44218
1401.13184 0.47389
1399.08340 0.50447
1397.03496 0.53400
1394.98652 0.55940
1392.93808 0.58028
1390.88965 0.59582
1388.84121 0.61047
1386.79277 0.62360
1384.74433 0.63037
1382.69589 0.63597
1380.64745 0.64470
1378.59901 0.65570
1376.55058 0.66716
1374.50214 0.67969
1372.45370 0.69069
1370.40526 0.69919
1368.35682 0.70813
1366.30838 0.71684
1364.25995 0.72617
1362.21151 0.73651
1360.16307 0.74436
1358.11463 0.75026
1356.06619 0.75706
1354.01775 0.76422
1351.96932 0.77099
1349.92088 0.77761
1347.87244 0.78397
1345.82400 0.78991
1343.77556 0.79575
1341.72712 0.80260
1339.67869 0.81001
1337.63025 0.81552
1335.58181 0.81886
1333.53337 0.82242
1331.48493 0.82646
1329.43649 0.83073
1327.38806 0.83491
1325.33962 0.83900
1323.29118 0.84309
1321.24274 0.84737
1319.19430 0.85217
1317.14586 0.85639
1315.09743 0.85989
1313.04899 0.86316
1311.00055 0.86631
1308.95211 0.86937
1306.90367 0.87282
1304.85523 0.87617
1302.80680 0.87938
1300.75836 0.88263
1298.70992 0.88581
1296.66148 0.88901
1294.61304 0.89209
1292.56460 0.89527
1290.51617 0.89853
1288.46773 0.90190
1286.41929 0.90491
1284.37085 0.90768
1282.32241 0.91038
1280.27397 0.91317
1278.22554 0.91587
1276.17710 0.91838
1274.12866 0.92102
1272.08022 0.92370
1270.03178 0.92619
1267.98334 0.92841
1265.93491 0.93060
1263.88647 0.93263
1261.83803 0.93485
1259.78959 0.93716
1257.74115 0.93940
1255.69271 0.94164
1253.64428 0.94391
1251.59584 0.94625
1249.54740 0.94872
1247.49896 0.95130
1245.45052 0.95377
1243.40208 0.95613
1241.35364 0.95830
1239.30521 0.96044
1237.25677 0.96244
1235.20833 0.96424
1233.15989 0.96594
1231.11145 0.96783
1229.06301 0.97002
1227.01458 0.97229
1224.96614 0.97438
1222.91770 0.97632
1220.86926 0.97836
1218.82082 0.98041
1216.77238 0.98239
1214.72395 0.98434
1212.67551 0.98635
1210.62707 0.98823
1208.57863 0.99021
1206.53019 0.99239
1204.48175 0.99458
1202.43332 0.99666
1200.38488 0.99841
1198.33644 1.00002
1196.28800 1.00169
1194.23956 1.00346
1192.19112 1.00532
1190.14269 1.00734
1188.09425 1.00932
1186.04581 1.01109
1183.99737 1.01266
1181.94893 1.01425
1179.90049 1.01586
1177.85206 1.01743
1175.80362 1.01914
1173.75518 1.02096
1171.70674 1.02278
1169.65830 1.02469
1167.60986 1.02670
1165.56143 1.02860
1163.51299 1.03042
1161.46455 1.03241
1159.41611 1.03459
1157.36767 1.03669
1155.31923 1.03865
1153.27080 1.04064
1151.22236 1.04269
1149.17392 1.04482
1147.12548 1.04704
1145.07704 1.04910
1143.02860 1.05102
1140.98017 1.05309
1138.93173 1.05541
1136.88329 1.05783
1134.83485 1.06013
1132.78641 1.06229
1130.73797 1.06444
1128.68954 1.06658
1126.64110 1.06879
1124.59266 1.07113
1122.54422 1.07350
1120.49578 1.07602
1118.44734 1.07888
1116.39891 1.08198
1114.35047 1.08503
1112.30203 1.08833
1110.25359 1.09207
1108.20515 1.09613
1106.15671 1.10081
1104.10827 1.10632
1102.05984 1.11249
1100.01140 1.11861
1097.96296 1.12175
1095.91452 1.11647
1093.86608 1.10127
1091.81764 1.08427
1089.76921 1.07532
1087.72077 1.07567
1085.67233 1.08063
1083.62389 1.08645
1081.57545 1.09190
1079.52701 1.09699
1077.47858 1.10184
1075.43014 1.10633
1073.38170 1.11036
1071.33326 1.11426
1069.28482 1.11810
1067.23638 1.12189
1065.18795 1.12570
1063.13951 1.12957
1061.09107 1.13342
1059.04263 1.13709
1056.99419 1.14068
1054.94575 1.14452
1052.89732 1.14861
1050.84888 1.15256
1048.80044 1.15645
1046.75200 1.16048
1044.70356 1.16505
1042.65512 1.16992
1040.60669 1.17455
1038.55825 1.17907
1036.50981 1.18372
1034.46137 1.18855
1032.41293 1.19370
1030.36449 1.19920
1028.31606 1.20473
1026.26762 1.21026
1024.21918 1.21593
1022.17074 1.22207
1020.12230 1.22859
1018.07386 1.23522
1016.02543 1.24208
1013.97699 1.24941
1011.92855 1.25724
1009.88011 1.26548
1007.83167 1.27362
1005.78323 1.28138
1003.73480 1.28920
1001.68636 1.29697
999.63792 1.30415
997.58948 1.31002
995.54104 1.31386
993.49260 1.31452
991.44417 1.31020
989.39573 1.29779
987.34729 1.27255
985.29885 1.22990
983.25041 1.16806
981.20197 1.09005
979.15354 1.00440
977.10510 0.92233
975.05666 0.85252
973.00822 0.79783
970.95978 0.75551
968.91134 0.72082
966.86290 0.68987
964.81447 0.65985
962.76603 0.62955
960.71759 0.59990
958.66915 0.57302
956.62071 0.55143
954.57227 0.53800
952.52384 0.53563
950.47540 0.54626
948.42696 0.57000
946.37852 0.60451
944.33008 0.64476
942.28164 0.68455
940.23321 0.71941
938.18477 0.74840
936.13633 0.77336
934.08789 0.79652
932.03945 0.81882
929.99101 0.84019
927.94258 0.86047
925.89414 0.87960
923.84570 0.89734
921.79726 0.91363
919.74882 0.92885
917.70038 0.94321
915.65195 0.95675
913.60351 0.96956
911.55507 0.98179
909.50663 0.99385
907.45819 1.00607
905.40975 1.01805
903.36132 1.02931
901.31288 1.04029
899.26444 1.05124
897.21600 1.06204
895.16756 1.07327
893.11912 1.08527
891.07069 1.09758
889.02225 1.11004
886.97381 1.12292
884.92537 1.13654
882.87693 1.15122
880.82849 1.16688
878.78006 1.18353
876.73162 1.20111
874.68318 1.21855
872.63474 1.23386
870.58630 1.24342
868.53786 1.23966
866.48943 1.21084
864.44099 1.14856
862.39255 1.05867
860.34411 0.96039
858.29567 0.87304
856.24723 0.80661
854.19880 0.76283
852.15036 0.73972
850.10192 0.73338
848.05348 0.73695
846.00504 0.73806
843.95660 0.72480
841.90817 0.70263
839.85973 0.69112
837.81129 0.70065
835.76285 0.72591
833.71441 0.75665
831.66597 0.78619
829.61753 0.81201
827.56910 0.83561
825.52066 0.85858
823.47222 0.87392
821.42378 0.86801
819.37534 0.83475
817.32690 0.78803
815.27847 0.75521
813.23003 0.75281
811.18159 0.77515
809.13315 0.80598
807.08471 0.83473
805.03627 0.85937
802.98784 0.87972
800.93940 0.89395
798.89096 0.90338
796.84252 0.91342
794.79408 0.92586
792.74564 0.93836
790.69721 0.94971
788.64877 0.96062
786.60033 0.97243
784.55189 0.98561
782.50345 0.99954
780.45501 1.01421
778.40658 1.02941
776.35814 1.03893
774.30970 1.02863
772.26126 0.99216
770.21282 0.94882
768.16438 0.92335
766.11595 0.92024
764.06751 0.92953
762.01907 0.94187
759.97063 0.95369
757.92219 0.96482
755.87375 0.97491
753.82532 0.98352
751.77688 0.99148
749.72844 0.99946
747.68000 1.00687
745.63156 1.01133
743.58312 1.01015
741.53469 1.00352
739.48625 0.99467
737.43781 0.98844
735.38937 0.98779
733.34093 0.99169
731.29249 0.99731
729.24406 1.00280
727.19562 1.00794
725.14718 1.01283
723.09874 1.01763
721.05030 1.02268
719.00186 1.02722
716.95343 1.03104
714.90499 1.03509
712.85655 1.03916
710.80811 1.04263
708.75967 1.04563
706.71123 1.04891
704.66280 1.05263
702.61436 1.05645
700.56592 1.06013
698.51748 1.06352
696.46904 1.06632
694.42060 1.06912
692.37216 1.07315
690.32373 1.07787
688.27529 1.08109
686.22685 1.08272
684.17841 1.08478
682.12997 1.08756
680.08153 1.09023
678.03310 1.09279
675.98466 1.09673
673.93622 1.10207
671.88778 1.10764
669.83934 1.11207
667.79090 1.11275
665.74247 1.11381
663.69403 1.11727
661.64559 1.12103
659.59715 1.12451
657.54871 1.12683
655.50027 1.12674
653.45184 1.12643
651.40340 1.12914
649.35496 1.13438
647.30652 1.13989
645.25808 1.14468
643.20964 1.14751
641.16121 1.14824
639.11277 1.15144
637.06433 1.15599
635.01589 1.15673
632.96745 1.15862
630.91901 1.16734
628.87058 1.17640
626.82214 1.17802
624.77370 1.17617
622.72526 1.17959
620.67682 1.19043
618.62838 1.20145
616.57995 1.20351
614.53151 1.19950
612.48307 1.19793
610.43463 1.20093
608.38619 1.21157
606.33775 1.22584
604.28932 1.22873
602.24088 1.22339
600.19244 1.22096
598.14400 1.22177
