3996.50324 1.27907
3994.45480 1.27962
3992.40636 1.27972
3990.35792 1.27954
3988.30948 1.27976
3986.26104 1.28019
3984.21261 1.28026
3982.16417 1.28001
3980.11573 1.28033
3978.06729 1.28131
3976.01885 1.28185
3973.97041 1.28197
3971.92198 1.28231
3969.87354 1.28270
3967.82510 1.28285
3965.77666 1.28269
3963.72822 1.28224
3961.67978 1.28173
3959.63135 1.28158
3957.58291 1.28158
3955.53447 1.28152
3953.48603 1.28181
3951.43759 1.28238
3949.38915 1.28239
3947.34072 1.28169
3945.29228 1.28116
3943.24384 1.28087
3941.19540 1.28087
3939.14696 1.28096
3937.09852 1.28079
3935.05009 1.28146
3933.00165 1.28306
3930.95321 1.28362
3928.90477 1.28305
3926.85633 1.28303
3924.80789 1.28354
3922.75946 1.28407
3920.71102 1.28470
3918.66258 1.28486
3916.61414 1.28408
3914.56570 1.28296
3912.51726 1.28219
3910.46883 1.28215
3908.42039 1.28379
3906.37195 1.28718
3904.32351 1.29036
3902.27507 1.29050
3900.22663 1.28743
3898.17820 1.28436
3896.12976 1.28415
3894.08132 1.28590
3892.03288 1.28695
3889.98444 1.28640
3887.93600 1.28633
3885.88756 1.28643
3883.83913 1.28644
3881.79069 1.28639
3879.74225 1.28512
3877.69381 1.28527
3875.64537 1.28762
3873.59693 1.29021
3871.54850 1.29128
3869.50006 1.28986
3867.45162 1.28905
3865.40318 1.28959
3863.35474 1.28789
3861.30630 1.28578
3859.25787 1.28687
3857.20943 1.29069
3855.16099 1.29485
3853.11255 1.29268
3851.06411 1.28720
3849.01567 1.28580
3846.96724 1.28603
3844.91880 1.28701
3842.87036 1.28903
3840.82192 1.29242
3838.77348 1.29426
3836.72504 1.29200
3834.67661 1.28971
3832.62817 1.28801
3830.57973 1.28697
3828.53129 1.28760
3826.48285 1.28870
3824.43441 1.29020
3822.38598 1.29213
3820.33754 1.29174
3818.28910 1.29036
3816.24066 1.28813
3814.19222 1.28467
3812.14378 1.28335
3810.09535 1.28473
3808.04691 1.28711
3805.99847 1.28752
3803.95003 1.28806
3801.90159 1.28954
3799.85315 1.28878
3797.80472 1.28634
3795.75628 1.28338
3793.70784 1.28217
3791.65940 1.28231
3789.61096 1.28256
3787.56252 1.28340
3785.51409 1.28395
3783.46565 1.28339
3781.41721 1.28329
3779.36877 1.28342
3777.32033 1.28273
3775.27189 1.28187
3773.22346 1.28169
3771.17502 1.28235
3769.12658 1.28283
3767.07814 1.28279
3765.02970 1.28276
3762.98126 1.28397
3760.93283 1.28622
3758.88439 1.28732
3756.83595 1.28764
3754.78751 1.28994
3752.73907 1.29424
3750.69063 1.29611
3748.64219 1.29474
3746.59376 1.29446
3744.54532 1.29216
3742.49688 1.29021
3740.44844 1.29138
3738.40000 1.29363
3736.35156 1.29601
3734.30313 1.29527
3732.25469 1.29109
3730.20625 1.28905
3728.15781 1.28989
3726.10937 1.29111
3724.06093 1.29079
3722.01250 1.28927
3719.96406 1.28759
3717.91562 1.28632
3715.86718 1.28663
3713.81874 1.28957
3711.77030 1.29275
3709.72187 1.29120
3707.67343 1.28858
3705.62499 1.28821
3703.57655 1.28873
3701.52811 1.28806
3699.47967 1.28672
3697.43124 1.28610
3695.38280 1.28674
3693.33436 1.28944
3691.28592 1.29314
3689.23748 1.29269
3687.18904 1.28868
3685.14061 1.28741
3683.09217 1.28850
3681.04373 1.29089
3678.99529 1.29442
3676.94685 1.29765
3674.89841 1.29685
3672.84998 1.29631
3670.80154 1.29679
3668.75310 1.29320
3666.70466 1.28995
3664.65622 1.28926
3662.60778 1.28945
3660.55935 1.29028
3658.51091 1.29146
3656.46247 1.29149
3654.41403 1.29198
3652.36559 1.29556
3650.31715 1.30043
3648.26872 1.29826
3646.22028 1.29277
3644.17184 1.29121
3642.12340 1.29092
3640.07496 1.29065
3638.02652 1.29096
3635.97809 1.29168
3633.92965 1.29309
3631.88121 1.29535
3629.83277 1.29632
3627.78433 1.29404
3625.73589 1.29262
3623.68746 1.29332
3621.63902 1.29524
3619.59058 1.29623
3617.54214 1.29540
3615.49370 1.29518
3613.44526 1.29488
3611.39682 1.29458
3609.34839 1.29483
3607.29995 1.29449
3605.25151 1.29431
3603.20307 1.29497
3601.15463 1.29586
3599.10619 1.29668
3597.05776 1.29726
3595.00932 1.29685
3592.96088 1.29582
3590.91244 1.29602
3588.86400 1.29769
3586.81556 1.29816
3584.76713 1.29654
3582.71869 1.29512
3580.67025 1.29437
3578.62181 1.29415
3576.57337 1.29401
3574.52493 1.29379
3572.47650 1.29409
3570.42806 1.29581
3568.37962 1.29814
3566.33118 1.29823
3564.28274 1.29694
3562.23430 1.29619
3560.18587 1.29548
3558.13743 1.29490
3556.08899 1.29525
3554.04055 1.29662
3551.99211 1.29756
3549.94367 1.29781
3547.89524 1.29846
3545.84680 1.29887
3543.79836 1.29783
3541.74992 1.29617
3539.70148 1.29546
3537.65304 1.29609
3535.60461 1.29701
3533.55617 1.29744
3531.50773 1.29797
3529.45929 1.29879
3527.41085 1.29928
3525.36241 1.29949
3523.31398 1.29932
3521.26554 1.29903
3519.21710 1.29898
3517.16866 1.29861
3515.12022 1.29806
3513.07178 1.29816
3511.02335 1.29915
3508.97491 1.30045
3506.92647 1.30178
3504.87803 1.30264
3502.82959 1.30217
3500.78115 1.30146
3498.73272 1.30129
3496.68428 1.30101
3494.63584 1.30122
3492.58740 1.30240
3490.53896 1.30358
3488.49052 1.30394
3486.44209 1.30403
3484.39365 1.30434
3482.34521 1.30412
3480.29677 1.30320
3478.24833 1.30247
3476.19989 1.30224
3474.15146 1.30213
3472.10302 1.30196
3470.05458 1.30226
3468.00614 1.30308
3465.95770 1.30387
3463.90926 1.30492
3461.86082 1.30627
3459.81239 1.30767
3457.76395 1.30919
3455.71551 1.31080
3453.66707 1.31322
3451.61863 1.31691
3449.57019 1.32124
3447.52176 1.32581
3445.47332 1.33097
3443.42488 1.33560
3441.37644 1.33032
3439.32800 1.29944
3437.27956 1.24879
3435.23113 1.21053
3433.18269 1.20300
3431.13425 1.21525
3429.08581 1.22924
3427.03737 1.23804
3424.98893 1.24370
3422.94050 1.24933
3420.89206 1.25510
3418.84362 1.25941
3416.79518 1.26225
3414.74674 1.26472
3412.69830 1.26722
3410.64987 1.26949
3408.60143 1.27157
3406.55299 1.27356
3404.50455 1.27492
3402.45611 1.27551
3400.40767 1.27608
3398.35924 1.27687
3396.31080 1.27736
3394.26236 1.27802
3392.21392 1.27898
3390.16548 1.27948
3388.11704 1.27974
3386.06861 1.28003
3384.02017 1.28012
3381.97173 1.28012
3379.92329 1.28056
3377.87485 1.28155
3375.82641 1.28222
3373.77798 1.28234
3371.72954 1.28283
3369.68110 1.28366
3367.63266 1.28413
3365.58422 1.28442
3363.53578 1.28471
3361.48735 1.28457
3359.43891 1.28394
3357.39047 1.28348
3355.34203 1.28354
3353.29359 1.28392
3351.24515 1.28446
3349.19672 1.28470
3347.14828 1.28442
3345.09984 1.28435
3343.05140 1.28489
3341.00296 1.28576
3338.95452 1.28653
3336.90609 1.28664
3334.85765 1.28626
3332.80921 1.28603
3330.76077 1.28621
3328.71233 1.28668
3326.66389 1.28713
3324.61545 1.28764
3322.56702 1.28797
3320.51858 1.28770
3318.47014 1.28756
3316.42170 1.28781
3314.37326 1.28764
3312.32482 1.28745
3310.27639 1.28831
3308.22795 1.28940
3306.17951 1.28944
3304.13107 1.28903
3302.08263 1.28899
3300.03419 1.28897
3297.98576 1.28873
3295.93732 1.28862
3293.88888 1.28913
3291.84044 1.28981
3289.79200 1.28991
3287.74356 1.28979
3285.69513 1.28949
3283.64669 1.28895
3281.59825 1.28900
3279.54981 1.28956
3277.50137 1.28992
3275.45293 1.29037
3273.40450 1.29108
3271.35606 1.29131
3269.30762 1.29084
3267.25918 1.29043
3265.21074 1.29049
3263.16230 1.29050
3261.11387 1.29047
3259.06543 1.29101
3257.01699 1.29191
3254.96855 1.29219
3252.92011 1.29189
3250.87167 1.29184
3248.82324 1.29194
3246.77480 1.29203
3244.72636 1.29210
3242.67792 1.29204
3240.62948 1.29193
3238.58104 1.29204
3236.53261 1.29250
3234.48417 1.29286
3232.43573 1.29279
3230.38729 1.29280
3228.33885 1.29310
3226.29041 1.29307
3224.24198 1.29260
3222.19354 1.29244
3220.14510 1.29306
3218.09666 1.29389
3216.04822 1.29401
3213.99978 1.29331
3211.95135 1.29270
3209.90291 1.29248
3207.85447 1.29218
3205.80603 1.29203
3203.75759 1.29244
3201.70915 1.29301
3199.66072 1.29350
3197.61228 1.29401
3195.56384 1.29430
3193.51540 1.29399
3191.46696 1.29338
3189.41852 1.29301
3187.37008 1.29309
3185.32165 1.29318
3183.27321 1.29303
3181.22477 1.29309
3179.17633 1.29324
3177.12789 1.29311
3175.07945 1.29282
3173.03102 1.29251
3170.98258 1.29251
3168.93414 1.29291
3166.88570 1.29312
3164.83726 1.29320
3162.78882 1.29342
3160.74039 1.29351
3158.69195 1.29370
3156.64351 1.29390
3154.59507 1.29382
3152.54663 1.29411
3150.49819 1.29515
3148.44976 1.29599
3146.40132 1.29585
3144.35288 1.29513
3142.30444 1.29456
3140.25600 1.29455
3138.20756 1.29516
3136.15913 1.29621
3134.11069 1.29689
3132.06225 1.29627
3130.01381 1.29533
3127.96537 1.29534
3125.91693 1.29581
3123.86850 1.29578
3121.82006 1.29523
3119.77162 1.29448
3117.72318 1.29393
3115.67474 1.29407
3113.62630 1.29446
3111.57787 1.29448
3109.52943 1.29431
3107.48099 1.29452
3105.43255 1.29511
3103.38411 1.29546
3101.33567 1.29539
3099.28724 1.29559
3097.23880 1.29600
3095.19036 1.29564
3093.14192 1.29475
3091.09348 1.29433
3089.04504 1.29429
3086.99661 1.29411
3084.94817 1.29391
3082.89973 1.29441
3080.85129 1.29531
3078.80285 1.29556
3076.75441 1.29538
3074.70598 1.29548
3072.65754 1.29579
3070.60910 1.29565
3068.56066 1.29535
3066.51222 1.29554
3064.46378 1.29572
3062.41535 1.29540
3060.36691 1.29489
3058.31847 1.29440
3056.27003 1.29444
3054.22159 1.29519
3052.17315 1.29552
3050.12471 1.29507
3048.07628 1.29482
3046.02784 1.29500
3043.97940 1.29529
3041.93096 1.29551
3039.88252 1.29536
3037.83408 1.29515
3035.78565 1.29522
3033.73721 1.29536
3031.68877 1.29568
3029.64033 1.29613
3027.59189 1.29644
3025.54345 1.29671
3023.49502 1.29685
3021.44658 1.29679
3019.39814 1.29695
3017.34970 1.29747
3015.30126 1.29797
3013.25282 1.29804
3011.20439 1.29761
3009.15595 1.29738
3007.10751 1.29780
3005.05907 1.29811
3003.01063 1.29774
3000.96219 1.29746
2998.91376 1.29773
2996.86532 1.29796
2994.81688 1.29815
2992.76844 1.29859
2990.72000 1.29886
2988.67156 1.29883
2986.62313 1.29863
2984.57469 1.29809
2982.52625 1.29752
2980.47781 1.29758
2978.42937 1.29806
2976.38093 1.29815
2974.33250 1.29768
2972.28406 1.29707
2970.23562 1.29663
2968.18718 1.29633
2966.13874 1.29610
2964.09030 1.29581
2962.04187 1.29557
2959.99343 1.29581
2957.94499 1.29624
2955.89655 1.29620
2953.84811 1.29589
2951.79967 1.29569
2949.75124 1.29549
2947.70280 1.29530
2945.65436 1.29524
2943.60592 1.29536
2941.55748 1.29594
2939.50904 1.29654
2937.46061 1.29660
2935.41217 1.29634
2933.36373 1.29558
2931.31529 1.29431
2929.26685 1.29337
2927.21841 1.29272
2925.16998 1.29196
2923.12154 1.29153
2921.07310 1.29098
2919.02466 1.28964
2916.97622 1.28861
2914.92778 1.28941
2912.87934 1.29175
2910.83091 1.29383
2908.78247 1.29493
2906.73403 1.29567
2904.68559 1.29630
2902.63715 1.29695
2900.58871 1.29779
2898.54028 1.29851
2896.49184 1.29896
2894.44340 1.29927
2892.39496 1.29948
2890.34652 1.29962
2888.29808 1.29945
2886.24965 1.29932
2884.20121 1.29964
2882.15277 1.30011
2880.10433 1.30036
2878.05589 1.30007
2876.00745 1.29915
2873.95902 1.29824
2871.91058 1.29815
2869.86214 1.29879
2867.81370 1.29927
2865.76526 1.29917
2863.71682 1.29876
2861.66839 1.29831
2859.61995 1.29808
2857.57151 1.29803
2855.52307 1.29771
2853.47463 1.29699
2851.42619 1.29599
2849.37776 1.29541
2847.32932 1.29646
2845.28088 1.29876
2843.23244 1.30057
2841.18400 1.30099
2839.13556 1.30082
2837.08713 1.30129
2835.03869 1.30203
2832.99025 1.30229
2830.94181 1.30243
2828.89337 1.30266
2826.84493 1.30278
2824.79650 1.30266
2822.74806 1.30228
2820.69962 1.30184
2818.65118 1.30148
2816.60274 1.30122
2814.55430 1.30134
2812.50587 1.30157
2810.45743 1.30161
2808.40899 1.30168
2806.36055 1.30145
2804.31211 1.30101
2802.26367 1.30106
2800.21524 1.30105
2798.16680 1.30047
2796.11836 1.30021
2794.06992 1.30064
2792.02148 1.30090
2789.97304 1.30068
2787.92461 1.30065
2785.87617 1.30083
2783.82773 1.30096
2781.77929 1.30113
2779.73085 1.30133
2777.68241 1.30118
2775.63397 1.30082
2773.58554 1.30080
2771.53710 1.30111
2769.48866 1.30134
2767.44022 1.30139
2765.39178 1.30170
2763.34334 1.30216
2761.29491 1.30225
2759.24647 1.30220
2757.19803 1.30231
2755.14959 1.30238
2753.10115 1.30226
2751.05271 1.30200
2749.00428 1.30187
2746.95584 1.30228
2744.90740 1.30305
2742.85896 1.30369
2740.81052 1.30405
2738.76208 1.30387
2736.71365 1.30336
2734.66521 1.30326
2732.61677 1.30357
2730.56833 1.30371
2728.51989 1.30365
2726.47145 1.30374
2724.42302 1.30397
2722.37458 1.30414
2720.32614 1.30425
2718.27770 1.30425
2716.22926 1.30437
2714.18082 1.30453
2712.13239 1.30457
2710.08395 1.30470
2708.03551 1.30470
2705.98707 1.30466
2703.93863 1.30489
2701.89019 1.30517
2699.84176 1.30561
2697.79332 1.30622
2695.74488 1.30626
2693.69644 1.30601
2691.64800 1.30609
2689.59956 1.30633
2687.55113 1.30664
2685.50269 1.30692
2683.45425 1.30718
2681.40581 1.30788
2679.35737 1.30871
2677.30893 1.30893
2675.26050 1.30881
2673.21206 1.30899
2671.16362 1.30929
2669.11518 1.30936
2667.06674 1.30981
2665.01830 1.31066
2662.96987 1.31105
2660.92143 1.31115
2658.87299 1.31165
2656.82455 1.31217
2654.77611 1.31195
2652.72767 1.31159
2650.67924 1.31182
2648.63080 1.31226
2646.58236 1.31261
2644.53392 1.31286
2642.48548 1.31269
2640.43704 1.31232
2638.38860 1.31226
2636.34017 1.31267
2634.29173 1.31323
2632.24329 1.31342
2630.19485 1.31346
2628.14641 1.31375
2626.09797 1.31415
2624.04954 1.31442
2622.00110 1.31450
2619.95266 1.31457
2617.90422 1.31473
2615.85578 1.31488
2613.80734 1.31504
2611.75891 1.31528
2609.71047 1.31548
2607.66203 1.31573
2605.61359 1.31612
2603.56515 1.31619
2601.51671 1.31602
2599.46828 1.31625
2597.41984 1.31653
2595.37140 1.31627
2593.32296 1.31583
2591.27452 1.31562
2589.22608 1.31549
2587.17765 1.31534
2585.12921 1.31513
2583.08077 1.31527
2581.03233 1.31591
2578.98389 1.31640
2576.93545 1.31666
2574.88702 1.31689
2572.83858 1.31723
2570.79014 1.31772
2568.74170 1.31803
2566.69326 1.31827
2564.64482 1.31868
2562.59639 1.31873
2560.54795 1.31819
2558.49951 1.31771
2556.45107 1.31732
2554.40263 1.31658
2552.35419 1.31597
2550.30576 1.31570
2548.25732 1.31532
2546.20888 1.31512
2544.16044 1.31556
2542.11200 1.31615
2540.06356 1.31637
2538.01513 1.31635
2535.96669 1.31635
2533.91825 1.31650
2531.86981 1.31689
2529.82137 1.31734
2527.77293 1.31754
2525.72450 1.31772
2523.67606 1.31784
2521.62762 1.31775
2519.57918 1.31779
2517.53074 1.31798
2515.48230 1.31800
2513.43387 1.31784
2511.38543 1.31765
2509.33699 1.31742
2507.28855 1.31719
2505.24011 1.31690
2503.19167 1.31620
2501.14324 1.31485
2499.09480 1.31337
2497.04636 1.31224
2494.99792 1.31135
2492.94948 1.31070
2490.90104 1.31061
2488.85260 1.31125
2486.80417 1.31189
2484.75573 1.31197
2482.70729 1.31188
2480.65885 1.31201
2478.61041 1.31237
2476.56197 1.31301
2474.51354 1.31374
2472.46510 1.31434
2470.41666 1.31490
2468.36822 1.31540
2466.31978 1.31547
2464.27134 1.31516
2462.22291 1.31504
2460.17447 1.31518
2458.12603 1.31526
2456.07759 1.31525
2454.02915 1.31519
2451.98071 1.31508
2449.93228 1.31515
2447.88384 1.31558
2445.83540 1.31604
2443.78696 1.31627
2441.73852 1.31641
2439.69008 1.31649
2437.64165 1.31648
2435.59321 1.31672
2433.54477 1.31718
2431.49633 1.31751
2429.44789 1.31760
2427.39945 1.31755
2425.35102 1.31764
2423.30258 1.31788
2421.25414 1.31788
2419.20570 1.31790
2417.15726 1.31831
2415.10882 1.31868
2413.06039 1.31885
2411.01195 1.31903
2408.96351 1.31914
2406.91507 1.31922
2404.86663 1.31938
2402.81819 1.31946
2400.76976 1.31942
2398.72132 1.31938
2396.67288 1.31963
2394.62444 1.32020
2392.57600 1.32066
2390.52756 1.32073
2388.47913 1.32069
2386.43069 1.32125
2384.38225 1.32260
2382.33381 1.32395
2380.28537 1.32505
2378.23693 1.32656
2376.18850 1.32842
2374.14006 1.32986
2372.09162 1.33123
2370.04318 1.33252
2367.99474 1.33335
2365.94630 1.33549
2363.89787 1.33825
2361.84943 1.33921
2359.80099 1.33998
2357.75255 1.34052
2355.70411 1.33892
2353.65567 1.33617
2351.60723 1.33478
2349.55880 1.33505
2347.51036 1.33568
2345.46192 1.33597
2343.41348 1.33608
2341.36504 1.33607
2339.31660 1.33572
2337.26817 1.33553
2335.21973 1.33609
2333.17129 1.33748
2331.12285 1.33838
2329.07441 1.33754
2327.02597 1.33631
2324.97754 1.33621
2322.92910 1.33665
2320.88066 1.33613
2318.83222 1.33458
2316.78378 1.33355
2314.73534 1.33372
2312.68691 1.33403
2310.63847 1.33393
2308.59003 1.33388
2306.54159 1.33379
2304.49315 1.33325
2302.44471 1.33272
2300.39628 1.33270
2298.34784 1.33302
2296.29940 1.33314
2294.25096 1.33279
2292.20252 1.33247
2290.15408 1.33258
2288.10565 1.33298
2286.05721 1.33322
2284.00877 1.33330
2281.96033 1.33352
2279.91189 1.33355
2277.86345 1.33336
2275.81502 1.33354
2273.76658 1.33431
2271.71814 1.33508
2269.66970 1.33523
2267.62126 1.33512
2265.57282 1.33541
2263.52439 1.33596
2261.47595 1.33604
2259.42751 1.33565
2257.37907 1.33558
2255.33063 1.33603
2253.28219 1.33667
2251.23376 1.33703
2249.18532 1.33705
2247.13688 1.33707
2245.08844 1.33720
2243.04000 1.33758
2240.99156 1.33819
2238.94313 1.33877
2236.89469 1.33914
2234.84625 1.33921
2232.79781 1.33926
2230.74937 1.33939
2228.70093 1.33929
2226.65250 1.33918
2224.60406 1.33952
2222.55562 1.34041
2220.50718 1.34123
2218.45874 1.34147
2216.41030 1.34135
2214.36186 1.34109
2212.31343 1.34099
2210.26499 1.34141
2208.21655 1.34205
2206.16811 1.34227
2204.11967 1.34222
2202.07123 1.34269
2200.02280 1.34316
2197.97436 1.34318
2195.92592 1.34338
2193.87748 1.34376
2191.82904 1.34404
2189.78060 1.34431
2187.73217 1.34463
2185.68373 1.34493
2183.63529 1.34530
2181.58685 1.34600
2179.53841 1.34672
2177.48997 1.34670
2175.44154 1.34601
2173.39310 1.34579
2171.34466 1.34629
2169.29622 1.34676
2167.24778 1.34719
2165.19934 1.34780
2163.15091 1.34816
2161.10247 1.34807
2159.05403 1.34782
2157.00559 1.34786
2154.95715 1.34823
2152.90871 1.34854
2150.86028 1.34878
2148.81184 1.34914
2146.76340 1.34946
2144.71496 1.34980
2142.66652 1.35020
2140.61808 1.35022
2138.56965 1.34993
2136.52121 1.34978
2134.47277 1.34994
2132.42433 1.35026
2130.37589 1.35074
2128.32745 1.35159
2126.27902 1.35233
2124.23058 1.35239
2122.18214 1.35199
2120.13370 1.35198
2118.08526 1.35258
2116.03682 1.35344
2113.98839 1.35407
2111.93995 1.35433
2109.89151 1.35438
2107.84307 1.35446
2105.79463 1.35484
2103.74619 1.35546
2101.69776 1.35610
2099.64932 1.35653
2097.60088 1.35684
2095.55244 1.35757
2093.50400 1.35862
2091.45556 1.35901
2089.40713 1.35893
2087.35869 1.35923
2085.31025 1.35982
2083.26181 1.36017
2081.21337 1.36008
2079.16493 1.36024
2077.11649 1.36095
2075.06806 1.36160
2073.01962 1.36191
2070.97118 1.36238
2068.92274 1.36303
2066.87430 1.36366
2064.82586 1.36447
2062.77743 1.36558
2060.72899 1.36671
2058.68055 1.36719
2056.63211 1.36730
2054.58367 1.36785
2052.53523 1.36869
2050.48680 1.36914
2048.43836 1.36933
2046.38992 1.36987
2044.34148 1.37078
2042.29304 1.37176
2040.24460 1.37224
2038.19617 1.37227
2036.14773 1.37267
2034.09929 1.37330
2032.05085 1.37354
2030.00241 1.37388
2027.95397 1.37477
2025.90554 1.37545
2023.85710 1.37560
2021.80866 1.37597
2019.76022 1.37680
2017.71178 1.37739
2015.66334 1.37735
2013.61491 1.37749
2011.56647 1.37820
2009.51803 1.37877
2007.46959 1.37924
2005.42115 1.38013
2003.37271 1.38108
2001.32428 1.38179
1999.27584 1.38256
1997.22740 1.38331
1995.17896 1.38420
1993.13052 1.38572
1991.08208 1.38725
1989.03365 1.38816
1986.98521 1.38858
1984.93677 1.38864
1982.88833 1.38863
1980.83989 1.38896
1978.79145 1.38987
1976.74302 1.39067
1974.69458 1.39106
1972.64614 1.39196
1970.59770 1.39341
1968.54926 1.39445
1966.50082 1.39491
1964.45239 1.39546
1962.40395 1.39629
1960.35551 1.39692
1958.30707 1.39741
1956.25863 1.39828
1954.21019 1.39918
1952.16176 1.39978
1950.11332 1.40032
1948.06488 1.40114
1946.01644 1.40267
1943.96800 1.40439
1941.91956 1.40511
1939.87112 1.40531
1937.82269 1.40583
1935.77425 1.40646
1933.72581 1.40716
1931.67737 1.40790
1929.62893 1.40849
1927.58049 1.40933
1925.53206 1.41125
1923.48362 1.41339
1921.43518 1.41442
1919.38674 1.41529
1917.33830 1.41613
1915.28986 1.41621
1913.24143 1.41658
1911.19299 1.41776
1909.14455 1.41887
1907.09611 1.41960
1905.04767 1.42036
1902.99923 1.42114
1900.95080 1.42189
1898.90236 1.42304
1896.85392 1.42467
1894.80548 1.42604
1892.75704 1.42701
1890.70860 1.42830
1888.66017 1.42922
1886.61173 1.42937
1884.56329 1.42983
1882.51485 1.43063
1880.46641 1.43151
1878.41797 1.43256
1876.36954 1.43380
1874.32110 1.43534
1872.27266 1.43756
1870.22422 1.44026
1868.17578 1.44135
1866.12734 1.44036
1864.07891 1.43939
1862.03047 1.43875
1859.98203 1.43781
1857.93359 1.43626
1855.88515 1.43457
1853.83671 1.43379
1851.78828 1.43399
1849.73984 1.43520
1847.69140 1.43765
1845.64296 1.44015
1843.59452 1.44089
1841.54608 1.44037
1839.49765 1.44019
1837.44921 1.44054
1835.40077 1.44151
1833.35233 1.44308
1831.30389 1.44544
1829.25545 1.44749
1827.20702 1.44867
1825.15858 1.45014
1823.11014 1.45102
1821.06170 1.45124
1819.01326 1.45217
1816.96482 1.45395
1814.91639 1.45609
1812.86795 1.45866
1810.81951 1.46044
1808.77107 1.46089
1806.72263 1.46144
1804.67419 1.46285
1802.62575 1.46531
1800.57732 1.46775
1798.52888 1.46954
1796.48044 1.47198
1794.43200 1.47497
1792.38356 1.47668
1790.33512 1.47658
1788.28669 1.47662
1786.23825 1.47748
1784.18981 1.47913
1782.14137 1.48167
1780.09293 1.48425
1778.04449 1.48580
1775.99606 1.48760
1773.94762 1.49071
1771.89918 1.49368
1769.85074 1.49434
1767.80230 1.49417
1765.75386 1.49469
1763.70543 1.49706
1761.65699 1.50056
1759.60855 1.50278
1757.56011 1.50417
1755.51167 1.50578
1753.46323 1.50826
1751.41480 1.51221
1749.36636 1.51632
1747.31792 1.51774
1745.26948 1.51775
1743.22104 1.51798
1741.17260 1.51975
1739.12417 1.52330
1737.07573 1.52722
1735.02729 1.53204
1732.97885 1.53600
1730.93041 1.53630
1728.88197 1.53636
1726.83354 1.53809
1724.78510 1.54086
1722.73666 1.54436
1720.68822 1.54941
1718.63978 1.55821
1716.59134 1.56771
1714.54291 1.56872
1712.49447 1.56820
1710.44603 1.57009
1708.39759 1.57519
1706.34915 1.58234
1704.30071 1.58803
1702.25228 1.59276
1700.20384 1.60151
1698.15540 1.60954
1696.10696 1.61009
1694.05852 1.60760
1692.01008 1.60806
1689.96165 1.61321
1687.91321 1.62065
1685.86477 1.62959
1683.81633 1.63804
1681.76789 1.63899
1679.71945 1.63919
1677.67102 1.64289
1675.62258 1.64973
1673.57414 1.65687
1671.52570 1.66440
1669.47726 1.67143
1667.42882 1.67241
1665.38038 1.67290
1663.33195 1.67870
1661.28351 1.68635
1659.23507 1.69260
1657.18663 1.69946
1655.13819 1.71128
1653.08975 1.72736
1651.04132 1.72922
1648.99288 1.73113
1646.94444 1.73902
1644.89600 1.74474
1642.84756 1.74774
1640.79912 1.75412
1638.75069 1.76357
1636.70225 1.77797
1634.65381 1.78682
1632.60537 1.78835
1630.55693 1.79226
1628.50849 1.80050
1626.46006 1.81096
1624.41162 1.81933
1622.36318 1.82351
1620.31474 1.82580
1618.26630 1.83302
1616.21786 1.83904
1614.16943 1.83875
1612.12099 1.83713
1610.07255 1.83749
1608.02411 1.83411
1605.97567 1.82633
1603.92723 1.81410
1601.87880 1.79444
1599.83036 1.76760
1597.78192 1.73438
1595.73348 1.69371
1593.68504 1.64286
1591.63660 1.58380
1589.58817 1.51197
1587.53973 1.42685
1585.49129 1.32681
1583.44285 1.21241
1581.39441 1.09458
1579.34597 0.98994
1577.29754 0.87069
1575.24910 0.73912
1573.20066 0.67249
1571.15222 0.63680
1569.10378 0.60125
1567.05534 0.57753
1565.00691 0.56533
1562.95847 0.55785
1560.91003 0.55445
1558.86159 0.54833
1556.81315 0.54031
1554.76471 0.53595
1552.71628 0.53272
1550.66784 0.53165
1548.61940 0.53218
1546.57096 0.53501
1544.52252 0.54135
1542.47408 0.55182
1540.42565 0.56786
1538.37721 0.58459
1536.32877 0.59765
1534.28033 0.62392
1532.23189 0.67056
1530.18345 0.71680
1528.13501 0.77131
1526.08658 0.84664
1524.03814 0.92127
1521.98970 1.00129
1519.94126 1.08582
1517.89282 1.14796
1515.84438 1.21062
1513.79595 1.26596
1511.74751 1.31275
1509.69907 1.36311
1507.65063 1.43868
1505.60219 1.54311
1503.55375 1.59018
1501.50532 1.63359
1499.45688 1.69349
1497.40844 1.76975
1495.36000 1.82763
1493.31156 1.84219
1491.26312 1.80564
1489.21469 1.65538
1487.16625 1.43785
1485.11781 1.24394
1483.06937 1.06248
1481.02093 0.89023
1478.97249 0.75905
1476.92406 0.66105
1474.87562 0.57097
1472.82718 0.46854
1470.77874 0.39243
1468.73030 0.36186
1466.68186 0.35242
1464.63343 0.36345
1462.58499 0.39019
1460.53655 0.41798
1458.48811 0.44818
1456.43967 0.47553
1454.39123 0.48231
1452.34280 0.48335
1450.29436 0.48326
1448.24592 0.47796
1446.19748 0.46056
1444.14904 0.42886
1442.10060 0.38617
1440.05217 0.34610
1438.00373 0.31526
1435.95529 0.29144
1433.90685 0.28114
1431.85841 0.28082
1429.80997 0.28627
1427.76154 0.29488
1425.71310 0.30553
1423.66466 0.31854
1421.61622 0.33128
1419.56778 0.34609
1417.51934 0.36379
1415.47091 0.37875
1413.42247 0.39724
1411.37403 0.42621
1409.32559 0.46499
1407.27715 0.50795
1405.22871 0.55411
1403.18028 0.59560
1401.13184 0.62736
1399.08340 0.65822
1397.03496 0.68797
1394.98652 0.71351
1392.93808 0.73459
1390.88965 0.75075
1388.84121 0.76559
1386.79277 0.77802
1384.74433 0.78447
1382.69589 0.79026
1380.64745 0.79916
1378.59901 0.81043
1376.55058 0.82211
1374.50214 0.83425
1372.45370 0.84494
1370.40526 0.85387
1368.35682 0.86346
1366.30838 0.87294
1364.25995 0.88257
1362.21151 0.89242
1360.16307 0.90030
1358.11463 0.90676
1356.06619 0.91382
1354.01775 0.92090
1351.96932 0.92773
1349.92088 0.93454
1347.87244 0.94118
1345.82400 0.94759
1343.77556 0.95407
1341.72712 0.96138
1339.67869 0.96874
1337.63025 0.97396
1335.58181 0.97716
1333.53337 0.98088
1331.48493 0.98543
1329.43649 0.99014
1327.38806 0.99428
1325.33962 0.99821
1323.29118 1.00256
1321.24274 1.00733
1319.19430 1.01207
1317.14586 1.01599
1315.09743 1.01983
1313.04899 1.02356
1311.00055 1.02678
1308.95211 1.02975
1306.90367 1.03319
1304.85523 1.03685
1302.80680 1.04038
1300.75836 1.04366
1298.70992 1.04688
1296.66148 1.05021
1294.61304 1.05343
1292.56460 1.05665
1290.51617 1.05982
1288.46773 1.06322
1286.41929 1.06650
1284.37085 1.06965
1282.32241 1.07270
1280.27397 1.07565
1278.22554 1.07838
1276.17710 1.08097
1274.12866 1.08369
1272.08022 1.08652
1270.03178 1.08925
1267.98334 1.09145
1265.93491 1.09337
1263.88647 1.09525
1261.83803 1.09742
1259.78959 1.09966
1257.74115 1.10188
1255.69271 1.10413
1253.64428 1.10660
1251.59584 1.10922
1249.54740 1.11167
1247.49896 1.11409
1245.45052 1.11664
1243.40208 1.11912
1241.35364 1.12127
1239.30521 1.12333
1237.25677 1.12524
1235.20833 1.12707
1233.15989 1.12894
1231.11145 1.13090
1229.06301 1.13289
1227.01458 1.13489
1224.96614 1.13687
1222.91770 1.13876
1220.86926 1.14080
1218.82082 1.14278
1216.77238 1.14459
1214.72395 1.14646
1212.67551 1.14853
1210.62707 1.15038
1208.57863 1.15201
1206.53019 1.15383
1204.48175 1.15587
1202.43332 1.15798
1200.38488 1.16002
1198.33644 1.16200
1196.28800 1.16392
1194.23956 1.16584
1192.19112 1.16756
1190.14269 1.16919
1188.09425 1.17095
1186.04581 1.17269
1183.99737 1.17432
1181.94893 1.17602
1179.90049 1.17780
1177.85206 1.17973
1175.80362 1.18174
1173.75518 1.18360
1171.70674 1.18532
1169.65830 1.18699
1167.60986 1.18876
1165.56143 1.19067
1163.51299 1.19258
1161.46455 1.19436
1159.41611 1.19624
1157.36767 1.19854
1155.31923 1.20076
1153.27080 1.20260
1151.22236 1.20432
1149.17392 1.20599
1147.12548 1.20776
1145.07704 1.20976
1143.02860 1.21183
1140.98017 1.21414
1138.93173 1.21665
1136.88329 1.21902
1134.83485 1.22133
1132.78641 1.22367
1130.73797 1.22587
1128.68954 1.22797
1126.64110 1.23020
1124.59266 1.23259
1122.54422 1.23517
1120.49578 1.23793
1118.44734 1.24050
1116.39891 1.24301
1114.35047 1.24592
1112.30203 1.24934
1110.25359 1.25286
1108.20515 1.25669
1106.15671 1.26119
1104.10827 1.26629
1102.05984 1.27182
1100.01140 1.27711
1097.96296 1.27969
1095.91452 1.27480
1093.86608 1.26085
1091.81764 1.24526
1089.76921 1.23731
1087.72077 1.23817
1085.67233 1.24345
1083.62389 1.24958
1081.57545 1.25519
1079.52701 1.26023
1077.47858 1.26494
1075.43014 1.26914
1073.38170 1.27289
1071.33326 1.27675
1069.28482 1.28067
1067.23638 1.28462
1065.18795 1.28866
1063.13951 1.29257
1061.09107 1.29639
1059.04263 1.30047
1056.99419 1.30449
1054.94575 1.30824
1052.89732 1.31199
1050.84888 1.31555
1048.80044 1.31930
1046.75200 1.32381
1044.70356 1.32916
1042.65512 1.33476
1040.60669 1.33974
1038.55825 1.34386
1036.50981 1.34809
1034.46137 1.35308
1032.41293 1.35858
1030.36449 1.36469
1028.31606 1.37110
1026.26762 1.37714
1024.21918 1.38302
1022.17074 1.38985
1020.12230 1.39754
1018.07386 1.40541
1016.02543 1.41323
1013.97699 1.42105
1011.92855 1.42896
1009.88011 1.43727
1007.83167 1.44624
1005.78323 1.45550
1003.73480 1.46516
1001.68636 1.47493
999.63792 1.48338
997.58948 1.48965
995.54104 1.49439
993.49260 1.49646
991.44417 1.49250
989.39573 1.47919
987.34729 1.45228
985.29885 1.40670
983.25041 1.34004
981.20197 1.25636
979.15354 1.16634
977.10510 1.08226
975.05666 1.01229
973.00822 0.95836
970.95978 0.91699
968.91134 0.88299
966.86290 0.85234
964.81447 0.82226
962.76603 0.79172
960.71759 0.76192
958.66915 0.73504
956.62071 0.71361
954.57227 0.70052
952.52384 0.69855
950.47540 0.70948
948.42696 0.73338
946.37852 0.76791
944.33008 0.80797
942.28164 0.84710
940.23321 0.88096
938.18477 0.90920
936.13633 0.93358
934.08789 0.95604
932.03945 0.97815
929.99101 1.00002
927.94258 1.02061
925.89414 1.03936
923.84570 1.05654
921.79726 1.07256
919.74882 1.08778
917.70038 1.10238
915.65195 1.11635
913.60351 1.12956
911.55507 1.14215
909.50663 1.15428
907.45819 1.16594
905.40975 1.17769
903.36132 1.18979
901.31288 1.20174
899.26444 1.21324
897.21600 1.22474
895.16756 1.23680
893.11912 1.24953
891.07069 1.26276
889.02225 1.27618
886.97381 1.28964
884.92537 1.30387
882.87693 1.31968
880.82849 1.33715
878.78006 1.35594
876.73162 1.37502
874.68318 1.39324
872.63474 1.40928
870.58630 1.41867
868.53786 1.41142
866.48943 1.37485
864.44099 1.30123
862.39255 1.19747
860.34411 1.08526
858.29567 0.98554
856.24723 0.90865
854.19880 0.85607
852.15036 0.82540
850.10192 0.81317
848.05348 0.81338
846.00504 0.81449
843.95660 0.80537
841.90817 0.79035
839.85973 0.78579
837.81129 0.80002
835.76285 0.82786
833.71441 0.86022
831.66597 0.89120
829.61753 0.91848
827.56910 0.94351
825.52066 0.96797
823.47222 0.98505
821.42378 0.98160
819.37534 0.95170
817.32690 0.90862
815.27847 0.87881
813.23003 0.87772
811.18159 0.89975
809.13315 0.92983
807.08471 0.95766
805.03627 0.98134
802.98784 1.00121
800.93940 1.01542
798.89096 1.02499
796.84252 1.03516
794.79408 1.04728
792.74564 1.05911
790.69721 1.07042
788.64877 1.08185
786.60033 1.09376
784.55189 1.10656
782.50345 1.12003
780.45501 1.13436
778.40658 1.14933
776.35814 1.15869
774.30970 1.14832
772.26126 1.11258
770.21282 1.07046
768.16438 1.04578
766.11595 1.04312
764.06751 1.05209
762.01907 1.06350
759.97063 1.07521
757.92219 1.08681
755.87375 1.09732
753.82532 1.10641
751.77688 1.11437
749.72844 1.12196
747.68000 1.12896
745.63156 1.13266
743.58312 1.13108
741.53469 1.12433
739.48625 1.11535
737.43781 1.10972
735.38937 1.11001
733.34093 1.11436
731.29249 1.11973
729.24406 1.12438
727.19562 1.12879
725.14718 1.13421
723.09874 1.13995
721.05030 1.14437
719.00186 1.14769
716.95343 1.15082
714.90499 1.15357
712.85655 1.15648
710.80811 1.16052
708.75967 1.16394
706.71123 1.16574
704.66280 1.16718
702.61436 1.16906
700.56592 1.17262
698.51748 1.17735
696.46904 1.18042
694.42060 1.18273
692.37216 1.18719
690.32373 1.19296
688.27529 1.19681
686.22685 1.19828
684.17841 1.20035
682.12997 1.20261
680.08153 1.20430
678.03310 1.20833
675.98466 1.21411
673.93622 1.21852
671.88778 1.22117
669.83934 1.22515
667.79090 1.23180
665.74247 1.23321
663.69403 1.23354
661.64559 1.23811
659.59715 1.24177
657.54871 1.24045
655.50027 1.24057
653.45184 1.24348
651.40340 1.24672
649.35496 1.25305
647.30652 1.25817
645.25808 1.25693
643.20964 1.25426
641.16121 1.25476
639.11277 1.25812
637.06433 1.26116
635.01589 1.26387
632.96745 1.26747
630.91901 1.27004
628.87058 1.27166
626.82214 1.27290
624.77370 1.27405
622.72526 1.27653
620.67682 1.28124
618.62838 1.28607
616.57995 1.29050
614.53151 1.30242
612.48307 1.31513
610.43463 1.31692
608.38619 1.31554
606.33775 1.31317
604.28932 1.31222
602.24088 1.32144
600.19244 1.33144
598.14400 1.33301
