3996.50324 1.67218
3994.45480 1.67383
3992.40636 1.67436
3990.35792 1.67535
3988.30948 1.67785
3986.26104 1.68055
3984.21261 1.68307
3982.16417 1.68702
3980.11573 1.69243
3978.06729 1.69816
3976.01885 1.70410
3973.97041 1.70923
3971.92198 1.71282
3969.87354 1.71483
3967.82510 1.71309
3965.77666 1.70818
3963.72822 1.70351
3961.67978 1.69928
3959.63135 1.69600
3957.58291 1.69513
3955.53447 1.69417
3953.48603 1.69150
3951.43759 1.68918
3949.38915 1.68880
3947.34072 1.68924
3945.29228 1.68821
3943.24384 1.68617
3941.19540 1.68552
3939.14696 1.68610
3937.09852 1.68679
3935.05009 1.68778
3933.00165 1.68948
3930.95321 1.69214
3928.90477 1.69561
3926.85633 1.69967
3924.80789 1.70490
3922.75946 1.71082
3920.71102 1.71601
3918.66258 1.71943
3916.61414 1.71798
3914.56570 1.71170
3912.51726 1.70577
3910.46883 1.70253
3908.42039 1.70179
3906.37195 1.70347
3904.32351 1.70708
3902.27507 1.71148
3900.22663 1.71701
3898.17820 1.72411
3896.12976 1.73275
3894.08132 1.74300
3892.03288 1.75356
3889.98444 1.76188
3887.93600 1.76900
3885.88756 1.77532
3883.83913 1.77791
3881.79069 1.77939
3879.74225 1.78255
3877.69381 1.78477
3875.64537 1.78560
3873.59693 1.78496
3871.54850 1.77981
3869.50006 1.76467
3867.45162 1.74872
3865.40318 1.73791
3863.35474 1.72725
3861.30630 1.71813
3859.25787 1.71333
3857.20943 1.71317
3855.16099 1.71730
3853.11255 1.72146
3851.06411 1.71781
3849.01567 1.71395
3846.96724 1.71316
3844.91880 1.71500
3842.87036 1.71675
3840.82192 1.71715
3838.77348 1.71983
3836.72504 1.72216
3834.67661 1.71959
3832.62817 1.71689
3830.57973 1.71713
3828.53129 1.71774
3826.48285 1.71741
3824.43441 1.71880
3822.38598 1.72107
3820.33754 1.71728
3818.28910 1.70948
3816.24066 1.70003
3814.19222 1.69159
3812.14378 1.68793
3810.09535 1.68702
3808.04691 1.68869
3805.99847 1.69002
3803.95003 1.69059
3801.90159 1.69253
3799.85315 1.69273
3797.80472 1.69142
3795.75628 1.68782
3793.70784 1.68289
3791.65940 1.67984
3789.61096 1.67881
3787.56252 1.67922
3785.51409 1.67972
3783.46565 1.67977
3781.41721 1.68053
3779.36877 1.68041
3777.32033 1.67807
3775.27189 1.67591
3773.22346 1.67531
3771.17502 1.67698
3769.12658 1.67947
3767.07814 1.67987
3765.02970 1.67791
3762.98126 1.67684
3760.93283 1.68038
3758.88439 1.68644
3756.83595 1.68917
3754.78751 1.69063
3752.73907 1.69464
3750.69063 1.70043
3748.64219 1.70184
3746.59376 1.69918
3744.54532 1.69661
3742.49688 1.70033
3740.44844 1.70759
3738.40000 1.71543
3736.35156 1.72266
3734.30313 1.72394
3732.25469 1.71693
3730.20625 1.71042
3728.15781 1.70900
3726.10937 1.71027
3724.06093 1.70969
3722.01250 1.70825
3719.96406 1.70773
3717.91562 1.70705
3715.86718 1.70850
3713.81874 1.71414
3711.77030 1.72103
3709.72187 1.72014
3707.67343 1.71445
3705.62499 1.71016
3703.57655 1.70653
3701.52811 1.70067
3699.47967 1.69385
3697.43124 1.69015
3695.38280 1.68979
3693.33436 1.69212
3691.28592 1.69706
3689.23748 1.70057
3687.18904 1.70079
3685.14061 1.70303
3683.09217 1.70830
3681.04373 1.71632
3678.99529 1.72625
3676.94685 1.73872
3674.89841 1.75229
3672.84998 1.75757
3670.80154 1.75878
3668.75310 1.75558
3666.70466 1.75063
3664.65622 1.75040
3662.60778 1.75524
3660.55935 1.76178
3658.51091 1.76715
3656.46247 1.76801
3654.41403 1.76278
3652.36559 1.75794
3650.31715 1.75552
3648.26872 1.75101
3646.22028 1.74619
3644.17184 1.74422
3642.12340 1.74276
3640.07496 1.74185
3638.02652 1.74355
3635.97809 1.74699
3633.92965 1.74983
3631.88121 1.75179
3629.83277 1.75555
3627.78433 1.76185
3625.73589 1.76412
3623.68746 1.76547
3621.63902 1.76967
3619.59058 1.77507
3617.54214 1.77757
3615.49370 1.77821
3613.44526 1.77886
3611.39682 1.78076
3609.34839 1.78522
3607.29995 1.79021
3605.25151 1.79415
3603.20307 1.79834
3601.15463 1.80205
3599.10619 1.80470
3597.05776 1.80926
3595.00932 1.81815
3592.96088 1.82841
3590.91244 1.83846
3588.86400 1.85213
3586.81556 1.86450
3584.76713 1.86866
3582.71869 1.87362
3580.67025 1.88145
3578.62181 1.89078
3576.57337 1.90371
3574.52493 1.91866
3572.47650 1.92986
3570.42806 1.93500
3568.37962 1.93469
3566.33118 1.92794
3564.28274 1.91926
3562.23430 1.91317
3560.18587 1.90834
3558.13743 1.90472
3556.08899 1.90448
3554.04055 1.90949
3551.99211 1.91663
3549.94367 1.92184
3547.89524 1.92716
3545.84680 1.93319
3543.79836 1.93721
3541.74992 1.93883
3539.70148 1.94098
3537.65304 1.94528
3535.60461 1.94946
3533.55617 1.95233
3531.50773 1.95656
3529.45929 1.96242
3527.41085 1.96879
3525.36241 1.97563
3523.31398 1.98163
3521.26554 1.98613
3519.21710 1.98816
3517.16866 1.98928
3515.12022 1.99387
3513.07178 2.00254
3511.02335 2.01117
3508.97491 2.01728
3506.92647 2.02160
3504.87803 2.02335
3502.82959 2.02388
3500.78115 2.02576
3498.73272 2.02753
3496.68428 2.02969
3494.63584 2.03300
3492.58740 2.03434
3490.53896 2.03324
3488.49052 2.03209
3486.44209 2.03339
3484.39365 2.03556
3482.34521 2.03465
3480.29677 2.03283
3478.24833 2.03307
3476.19989 2.03302
3474.15146 2.03234
3472.10302 2.03239
3470.05458 2.03104
3468.00614 2.03109
3465.95770 2.03665
3463.90926 2.04206
3461.86082 2.04088
3459.81239 2.03505
3457.76395 2.03060
3455.71551 2.02788
3453.66707 2.02495
3451.61863 2.02375
3449.57019 2.02325
3447.52176 2.02022
3445.47332 2.01518
3443.42488 2.00958
3441.37644 2.00737
3439.32800 2.01598
3437.27956 2.03475
3435.23113 2.05231
3433.18269 2.06107
3431.13425 2.06242
3429.08581 2.06013
3427.03737 2.05750
3424.98893 2.05292
3422.94050 2.04519
3420.89206 2.03713
3418.84362 2.02863
3416.79518 2.01897
3414.74674 2.01046
3412.69830 2.00430
3410.64987 1.99982
3408.60143 1.99606
3406.55299 1.99301
3404.50455 1.99130
3402.45611 1.98942
3400.40767 1.98792
3398.35924 1.98836
3396.31080 1.98756
3394.26236 1.98649
3392.21392 1.98814
3390.16548 1.98875
3388.11704 1.98730
3386.06861 1.98605
3384.02017 1.98425
3381.97173 1.98413
3379.92329 1.98855
3377.87485 1.99367
3375.82641 1.99832
3373.77798 2.00475
3371.72954 2.00817
3369.68110 2.00723
3367.63266 2.00739
3365.58422 2.00921
3363.53578 2.01045
3361.48735 2.00974
3359.43891 2.00569
3357.39047 1.99968
3355.34203 1.99641
3353.29359 1.99727
3351.24515 1.99792
3349.19672 1.99583
3347.14828 1.99190
3345.09984 1.98683
3343.05140 1.98030
3341.00296 1.97315
3338.95452 1.96817
3336.90609 1.96591
3334.85765 1.96507
3332.80921 1.96429
3330.76077 1.96168
3328.71233 1.95748
3326.66389 1.95536
3324.61545 1.95641
3322.56702 1.95572
3320.51858 1.95075
3318.47014 1.94606
3316.42170 1.94469
3314.37326 1.94348
3312.32482 1.93986
3310.27639 1.93479
3308.22795 1.93006
3306.17951 1.92668
3304.13107 1.92495
3302.08263 1.92479
3300.03419 1.92427
3297.98576 1.92200
3295.93732 1.92080
3293.88888 1.92363
3291.84044 1.92743
3289.79200 1.92852
3287.74356 1.92882
3285.69513 1.93030
3283.64669 1.93134
3281.59825 1.92981
3279.54981 1.92448
3277.50137 1.91430
3275.45293 1.90134
3273.40450 1.88983
3271.35606 1.88165
3269.30762 1.87611
3267.25918 1.87215
3265.21074 1.86865
3263.16230 1.86360
3261.11387 1.85703
3259.06543 1.85054
3257.01699 1.84485
3254.96855 1.84034
3252.92011 1.83705
3250.87167 1.83673
3248.82324 1.83944
3246.77480 1.84086
3244.72636 1.83745
3242.67792 1.83011
3240.62948 1.82219
3238.58104 1.81594
3236.53261 1.81134
3234.48417 1.80677
3232.43573 1.80177
3230.38729 1.79772
3228.33885 1.79515
3226.29041 1.79276
3224.24198 1.78972
3222.19354 1.78676
3220.14510 1.78438
3218.09666 1.78174
3216.04822 1.77858
3213.99978 1.77664
3211.95135 1.77602
3209.90291 1.77517
3207.85447 1.77414
3205.80603 1.77294
3203.75759 1.77136
3201.70915 1.77108
3199.66072 1.77376
3197.61228 1.77747
3195.56384 1.77915
3193.51540 1.77929
3191.46696 1.77904
3189.41852 1.77808
3187.37008 1.77666
3185.32165 1.77480
3183.27321 1.77279
3181.22477 1.77120
3179.17633 1.76891
3177.12789 1.76541
3175.07945 1.76112
3173.03102 1.75504
3170.98258 1.74783
3168.93414 1.74231
3166.88570 1.73878
3164.83726 1.73629
3162.78882 1.73476
3160.74039 1.73413
3158.69195 1.73425
3156.64351 1.73448
3154.59507 1.73535
3152.54663 1.73820
3150.49819 1.74188
3148.44976 1.74399
3146.40132 1.74420
3144.35288 1.74432
3142.30444 1.74490
3140.25600 1.74398
3138.20756 1.74171
3136.15913 1.74010
3134.11069 1.73906
3132.06225 1.73757
3130.01381 1.73611
3127.96537 1.73603
3125.91693 1.73729
3123.86850 1.73881
3121.82006 1.73994
3119.77162 1.74031
3117.72318 1.74062
3115.67474 1.74155
3113.62630 1.74217
3111.57787 1.74162
3109.52943 1.74010
3107.48099 1.73847
3105.43255 1.73792
3103.38411 1.73830
3101.33567 1.73799
3099.28724 1.73696
3097.23880 1.73634
3095.19036 1.73595
3093.14192 1.73542
3091.09348 1.73570
3089.04504 1.73698
3086.99661 1.73765
3084.94817 1.73743
3082.89973 1.73795
3080.85129 1.73948
3078.80285 1.74147
3076.75441 1.74349
3074.70598 1.74524
3072.65754 1.74623
3070.60910 1.74644
3068.56066 1.74803
3066.51222 1.75185
3064.46378 1.75571
3062.41535 1.75833
3060.36691 1.76021
3058.31847 1.76225
3056.27003 1.76475
3054.22159 1.76718
3052.17315 1.77027
3050.12471 1.77448
3048.07628 1.77808
3046.02784 1.78127
3043.97940 1.78594
3041.93096 1.79214
3039.88252 1.79922
3037.83408 1.80678
3035.78565 1.81465
3033.73721 1.82284
3031.68877 1.83040
3029.64033 1.83705
3027.59189 1.84425
3025.54345 1.85159
3023.49502 1.85684
3021.44658 1.86090
3019.39814 1.86695
3017.34970 1.87527
3015.30126 1.88376
3013.25282 1.89039
3011.20439 1.89614
3009.15595 1.90489
3007.10751 1.91678
3005.05907 1.92777
3003.01063 1.93515
3000.96219 1.94061
2998.91376 1.94838
2996.86532 1.95916
2994.81688 1.96875
2992.76844 1.97472
2990.72000 1.97889
2988.67156 1.98207
2986.62313 1.98532
2984.57469 1.99143
2982.52625 1.99853
2980.47781 2.00413
2978.42937 2.00928
2976.38093 2.01332
2974.33250 2.01462
2972.28406 2.01304
2970.23562 2.01188
2968.18718 2.01373
2966.13874 2.01546
2964.09030 2.01668
2962.04187 2.01955
2959.99343 2.02181
2957.94499 2.02167
2955.89655 2.01972
2953.84811 2.01827
2951.79967 2.02093
2949.75124 2.02629
2947.70280 2.02996
2945.65436 2.03200
2943.60592 2.03445
2941.55748 2.03652
2939.50904 2.03563
2937.46061 2.03299
2935.41217 2.03364
2933.36373 2.03683
2931.31529 2.03706
2929.26685 2.03463
2927.21841 2.03292
2925.16998 2.03316
2923.12154 2.03435
2921.07310 2.03539
2919.02466 2.03727
2916.97622 2.03931
2914.92778 2.04051
2912.87934 2.04356
2910.83091 2.04859
2908.78247 2.05115
2906.73403 2.05007
2904.68559 2.04869
2902.63715 2.04853
2900.58871 2.04771
2898.54028 2.04614
2896.49184 2.04727
2894.44340 2.05134
2892.39496 2.05401
2890.34652 2.05286
2888.29808 2.05039
2886.24965 2.04962
2884.20121 2.05026
2882.15277 2.05070
2880.10433 2.04940
2878.05589 2.04531
2876.00745 2.03899
2873.95902 2.03318
2871.91058 2.02950
2869.86214 2.02546
2867.81370 2.01993
2865.76526 2.01272
2863.71682 2.00243
2861.66839 1.99247
2859.61995 1.98813
2857.57151 1.98840
2855.52307 1.98902
2853.47463 1.98793
2851.42619 1.98489
2849.37776 1.98188
2847.32932 1.98020
2845.28088 1.97856
2843.23244 1.97779
2841.18400 1.97919
2839.13556 1.98092
2837.08713 1.98090
2835.03869 1.97968
2832.99025 1.97859
2830.94181 1.97617
2828.89337 1.97004
2826.84493 1.95998
2824.79650 1.94729
2822.74806 1.93288
2820.69962 1.91786
2818.65118 1.90275
2816.60274 1.88572
2814.55430 1.86730
2812.50587 1.85076
2810.45743 1.83710
2808.40899 1.82576
2806.36055 1.81616
2804.31211 1.80712
2802.26367 1.79855
2800.21524 1.79184
2798.16680 1.78699
2796.11836 1.78295
2794.06992 1.77910
2792.02148 1.77496
2789.97304 1.77018
2787.92461 1.76491
2785.87617 1.75960
2783.82773 1.75494
2781.77929 1.75148
2779.73085 1.74873
2777.68241 1.74609
2775.63397 1.74405
2773.58554 1.74279
2771.53710 1.74145
2769.48866 1.74034
2767.44022 1.74014
2765.39178 1.74082
2763.34334 1.74200
2761.29491 1.74231
2759.24647 1.74173
2757.19803 1.74188
2755.14959 1.74242
2753.10115 1.74228
2751.05271 1.74148
2749.00428 1.73989
2746.95584 1.73869
2744.90740 1.73880
2742.85896 1.73917
2740.81052 1.73913
2738.76208 1.73908
2736.71365 1.73965
2734.66521 1.74053
2732.61677 1.74116
2730.56833 1.74144
2728.51989 1.74164
2726.47145 1.74200
2724.42302 1.74218
2722.37458 1.74201
2720.32614 1.74235
2718.27770 1.74369
2716.22926 1.74515
2714.18082 1.74610
2712.13239 1.74612
2710.08395 1.74558
2708.03551 1.74552
2705.98707 1.74617
2703.93863 1.74761
2701.89019 1.75006
2699.84176 1.75288
2697.79332 1.75533
2695.74488 1.75829
2693.69644 1.76245
2691.64800 1.76652
2689.59956 1.76978
2687.55113 1.77291
2685.50269 1.77647
2683.45425 1.78165
2681.40581 1.78868
2679.35737 1.79627
2677.30893 1.80485
2675.26050 1.81557
2673.21206 1.82796
2671.16362 1.84047
2669.11518 1.85163
2667.06674 1.86035
2665.01830 1.86788
2662.96987 1.87696
2660.92143 1.88680
2658.87299 1.89457
2656.82455 1.89981
2654.77611 1.90422
2652.72767 1.90930
2650.67924 1.91513
2648.63080 1.92161
2646.58236 1.92815
2644.53392 1.93385
2642.48548 1.93946
2640.43704 1.94510
2638.38860 1.94976
2636.34017 1.95387
2634.29173 1.95874
2632.24329 1.96437
2630.19485 1.97000
2628.14641 1.97563
2626.09797 1.98062
2624.04954 1.98559
2622.00110 1.99244
2619.95266 2.00036
2617.90422 2.00795
2615.85578 2.01475
2613.80734 2.01948
2611.75891 2.02281
2609.71047 2.02773
2607.66203 2.03436
2605.61359 2.04023
2603.56515 2.04515
2601.51671 2.04955
2599.46828 2.05200
2597.41984 2.05242
2595.37140 2.05185
2593.32296 2.05061
2591.27452 2.04949
2589.22608 2.04930
2587.17765 2.04843
2585.12921 2.04584
2583.08077 2.04383
2581.03233 2.04268
2578.98389 2.04004
2576.93545 2.03653
2574.88702 2.03554
2572.83858 2.03788
2570.79014 2.04145
2568.74170 2.04540
2566.69326 2.04979
2564.64482 2.05370
2562.59639 2.05702
2560.54795 2.06106
2558.49951 2.06525
2556.45107 2.06611
2554.40263 2.06381
2552.35419 2.06292
2550.30576 2.06399
2548.25732 2.06584
2546.20888 2.06931
2544.16044 2.07289
2542.11200 2.07391
2540.06356 2.07349
2538.01513 2.07364
2535.96669 2.07477
2533.91825 2.07781
2531.86981 2.08144
2529.82137 2.08322
2527.77293 2.08326
2525.72450 2.08206
2523.67606 2.07973
2521.62762 2.07844
2519.57918 2.08037
2517.53074 2.08203
2515.48230 2.08075
2513.43387 2.08004
2511.38543 2.08092
2509.33699 2.08159
2507.28855 2.08120
2505.24011 2.07964
2503.19167 2.07803
2501.14324 2.07624
2499.09480 2.07467
2497.04636 2.07502
2494.99792 2.07530
2492.94948 2.07308
2490.90104 2.07095
2488.85260 2.07076
2486.80417 2.07027
2484.75573 2.06806
2482.70729 2.06366
2480.65885 2.05660
2478.61041 2.04883
2476.56197 2.04326
2474.51354 2.03949
2472.46510 2.03479
2470.41666 2.02816
2468.36822 2.01964
2466.31978 2.00931
2464.27134 1.99795
2462.22291 1.98516
2460.17447 1.97056
2458.12603 1.95610
2456.07759 1.94235
2454.02915 1.92878
2451.98071 1.91674
2449.93228 1.90615
2447.88384 1.89558
2445.83540 1.88613
2443.78696 1.87862
2441.73852 1.87145
2439.69008 1.86513
2437.64165 1.86170
2435.59321 1.85935
2433.54477 1.85514
2431.49633 1.85053
2429.44789 1.84777
2427.39945 1.84587
2425.35102 1.84337
2423.30258 1.83999
2421.25414 1.83626
2419.20570 1.83347
2417.15726 1.83153
2415.10882 1.82873
2413.06039 1.82519
2411.01195 1.82224
2408.96351 1.81932
2406.91507 1.81615
2404.86663 1.81380
2402.81819 1.81220
2400.76976 1.81055
2398.72132 1.80907
2396.67288 1.80820
2394.62444 1.80718
2392.57600 1.80607
2390.52756 1.80548
2388.47913 1.80488
2386.43069 1.80501
2384.38225 1.80662
2382.33381 1.80879
2380.28537 1.81031
2378.23693 1.81027
2376.18850 1.80931
2374.14006 1.80950
2372.09162 1.81261
2370.04318 1.81855
2367.99474 1.82449
2365.94630 1.82620
2363.89787 1.82355
2361.84943 1.82166
2359.80099 1.82184
2357.75255 1.81954
2355.70411 1.81441
2353.65567 1.81113
2351.60723 1.81081
2349.55880 1.81241
2347.51036 1.81532
2345.46192 1.81878
2343.41348 1.82092
2341.36504 1.82051
2339.31660 1.81979
2337.26817 1.82291
2335.21973 1.82754
2333.17129 1.82718
2331.12285 1.82400
2329.07441 1.82425
2327.02597 1.82739
2324.97754 1.82833
2322.92910 1.82689
2320.88066 1.82636
2318.83222 1.82744
2316.78378 1.82957
2314.73534 1.83179
2312.68691 1.83302
2310.63847 1.83290
2308.59003 1.83241
2306.54159 1.83270
2304.49315 1.83376
2302.44471 1.83555
2300.39628 1.83846
2298.34784 1.84157
2296.29940 1.84425
2294.25096 1.84725
2292.20252 1.85089
2290.15408 1.85413
2288.10565 1.85555
2286.05721 1.85573
2284.00877 1.85595
2281.96033 1.85681
2279.91189 1.85807
2277.86345 1.85936
2275.81502 1.86115
2273.76658 1.86350
2271.71814 1.86704
2269.66970 1.87184
2267.62126 1.87631
2265.57282 1.87943
2263.52439 1.88155
2261.47595 1.88218
2259.42751 1.88132
2257.37907 1.87998
2255.33063 1.87779
2253.28219 1.87559
2251.23376 1.87366
2249.18532 1.87048
2247.13688 1.86696
2245.08844 1.86541
2243.04000 1.86631
2240.99156 1.86820
2238.94313 1.86987
2236.89469 1.87113
2234.84625 1.87238
2232.79781 1.87383
2230.74937 1.87468
2228.70093 1.87417
2226.65250 1.87261
2224.60406 1.87166
2222.55562 1.87299
2220.50718 1.87529
2218.45874 1.87697
2216.41030 1.87907
2214.36186 1.88260
2212.31343 1.88732
2210.26499 1.89242
2208.21655 1.89596
2206.16811 1.89692
2204.11967 1.89712
2202.07123 1.89670
2200.02280 1.89471
2197.97436 1.89238
2195.92592 1.88989
2193.87748 1.88690
2191.82904 1.88509
2189.78060 1.88459
2187.73217 1.88427
2185.68373 1.88424
2183.63529 1.88433
2181.58685 1.88465
2179.53841 1.88513
2177.48997 1.88491
2175.44154 1.88400
2173.39310 1.88297
2171.34466 1.88150
2169.29622 1.87958
2167.24778 1.87774
2165.19934 1.87568
2163.15091 1.87333
2161.10247 1.87146
2159.05403 1.87081
2157.00559 1.87121
2154.95715 1.87060
2152.90871 1.86814
2150.86028 1.86492
2148.81184 1.86152
2146.76340 1.85862
2144.71496 1.85597
2142.66652 1.85293
2140.61808 1.84934
2138.56965 1.84541
2136.52121 1.84190
2134.47277 1.83955
2132.42433 1.83873
2130.37589 1.83860
2128.32745 1.83836
2126.27902 1.83788
2124.23058 1.83688
2122.18214 1.83593
2120.13370 1.83571
2118.08526 1.83569
2116.03682 1.83544
2113.98839 1.83514
2111.93995 1.83514
2109.89151 1.83591
2107.84307 1.83722
2105.79463 1.83839
2103.74619 1.83938
2101.69776 1.83970
2099.64932 1.83901
2097.60088 1.83860
2095.55244 1.83940
2093.50400 1.84095
2091.45556 1.84212
2089.40713 1.84277
2087.35869 1.84364
2085.31025 1.84439
2083.26181 1.84468
2081.21337 1.84553
2079.16493 1.84754
2077.11649 1.84980
2075.06806 1.85187
2073.01962 1.85346
2070.97118 1.85500
2068.92274 1.85853
2066.87430 1.86389
2064.82586 1.86852
2062.77743 1.87157
2060.72899 1.87368
2058.68055 1.87561
2056.63211 1.87884
2054.58367 1.88345
2052.53523 1.88831
2050.48680 1.89274
2048.43836 1.89593
2046.38992 1.89720
2044.34148 1.89783
2042.29304 1.89889
2040.24460 1.89916
2038.19617 1.89844
2036.14773 1.89730
2034.09929 1.89674
2032.05085 1.89795
2030.00241 1.89870
2027.95397 1.89775
2025.90554 1.89746
2023.85710 1.89818
2021.80866 1.89941
2019.76022 1.90156
2017.71178 1.90450
2015.66334 1.90760
2013.61491 1.90943
2011.56647 1.91000
2009.51803 1.91111
2007.46959 1.91435
2005.42115 1.91893
2003.37271 1.92272
2001.32428 1.92601
1999.27584 1.92999
1997.22740 1.93368
1995.17896 1.93760
1993.13052 1.94298
1991.08208 1.94764
1989.03365 1.95079
1986.98521 1.95415
1984.93677 1.95828
1982.88833 1.96304
1980.83989 1.96753
1978.79145 1.97149
1976.74302 1.97594
1974.69458 1.98110
1972.64614 1.98628
1970.59770 1.99160
1968.54926 1.99796
1966.50082 2.00546
1964.45239 2.01315
1962.40395 2.02078
1960.35551 2.02823
1958.30707 2.03598
1956.25863 2.04531
1954.21019 2.05473
1952.16176 2.06227
1950.11332 2.06936
1948.06488 2.07797
1946.01644 2.08645
1943.96800 2.09312
1941.91956 2.09941
1939.87112 2.10476
1937.82269 2.10762
1935.77425 2.10889
1933.72581 2.11058
1931.67737 2.11292
1929.62893 2.11562
1927.58049 2.11916
1925.53206 2.12442
1923.48362 2.13071
1921.43518 2.13525
1919.38674 2.13968
1917.33830 2.14781
1915.28986 2.15708
1913.24143 2.16328
1911.19299 2.16716
1909.14455 2.17071
1907.09611 2.17451
1905.04767 2.17932
1902.99923 2.18378
1900.95080 2.18575
1898.90236 2.18672
1896.85392 2.18777
1894.80548 2.18909
1892.75704 2.19148
1890.70860 2.19427
1888.66017 2.19570
1886.61173 2.19561
1884.56329 2.19686
1882.51485 2.20066
1880.46641 2.20355
1878.41797 2.20372
1876.36954 2.20540
1874.32110 2.20914
1872.27266 2.21150
1870.22422 2.21286
1868.17578 2.21247
1866.12734 2.20969
1864.07891 2.20810
1862.03047 2.20928
1859.98203 2.21144
1857.93359 2.21097
1855.88515 2.20633
1853.83671 2.20119
1851.78828 2.20068
1849.73984 2.20456
1847.69140 2.20683
1845.64296 2.20557
1843.59452 2.20817
1841.54608 2.21357
1839.49765 2.21599
1837.44921 2.21630
1835.40077 2.21531
1833.35233 2.21449
1831.30389 2.21562
1829.25545 2.21854
1827.20702 2.22059
1825.15858 2.22063
1823.11014 2.21958
1821.06170 2.21901
1819.01326 2.21964
1816.96482 2.22065
1814.91639 2.22001
1812.86795 2.21857
1810.81951 2.21884
1808.77107 2.21993
1806.72263 2.22007
1804.67419 2.22063
1802.62575 2.22233
1800.57732 2.22357
1798.52888 2.22333
1796.48044 2.22254
1794.43200 2.22302
1792.38356 2.22652
1790.33512 2.23113
1788.28669 2.23250
1786.23825 2.23132
1784.18981 2.23073
1782.14137 2.23196
1780.09293 2.23280
1778.04449 2.23333
1775.99606 2.23502
1773.94762 2.23780
1771.89918 2.24120
1769.85074 2.24110
1767.80230 2.23746
1765.75386 2.23450
1763.70543 2.23553
1761.65699 2.24103
1759.60855 2.24618
1757.56011 2.24744
1755.51167 2.24491
1753.46323 2.24226
1751.41480 2.24251
1749.36636 2.24578
1747.31792 2.25095
1745.26948 2.25678
1743.22104 2.26112
1741.17260 2.26163
1739.12417 2.26119
1737.07573 2.26338
1735.02729 2.26694
1732.97885 2.26962
1730.93041 2.26924
1728.88197 2.26839
1726.83354 2.27011
1724.78510 2.27492
1722.73666 2.28029
1720.68822 2.28352
1718.63978 2.28667
1716.59134 2.29363
1714.54291 2.30000
1712.49447 2.30350
1710.44603 2.30759
1708.39759 2.31362
1706.34915 2.31907
1704.30071 2.32192
1702.25228 2.32573
1700.20384 2.33485
1698.15540 2.34335
1696.10696 2.34331
1694.05852 2.34068
1692.01008 2.34299
1689.96165 2.35057
1687.91321 2.35788
1685.86477 2.36682
1683.81633 2.38372
1681.76789 2.38835
1679.71945 2.38359
1677.67102 2.38288
1675.62258 2.39226
1673.57414 2.40459
1671.52570 2.41244
1669.47726 2.42022
1667.42882 2.42289
1665.38038 2.42352
1663.33195 2.42886
1661.28351 2.43345
1659.23507 2.43522
1657.18663 2.44148
1655.13819 2.45740
1653.08975 2.48181
1651.04132 2.48384
1648.99288 2.48027
1646.94444 2.48186
1644.89600 2.48720
1642.84756 2.49275
1640.79912 2.49954
1638.75069 2.51042
1636.70225 2.52934
1634.65381 2.53951
1632.60537 2.53675
1630.55693 2.54070
1628.50849 2.55261
1626.46006 2.56085
1624.41162 2.56693
1622.36318 2.57972
1620.31474 2.58757
1618.26630 2.59171
1616.21786 2.59972
1614.16943 2.61006
1612.12099 2.61892
1610.07255 2.62834
1608.02411 2.63140
1605.97567 2.62705
1603.92723 2.62947
1601.87880 2.63831
1599.83036 2.63253
1597.78192 2.61258
1595.73348 2.59588
1593.68504 2.57773
1591.63660 2.54115
1589.58817 2.47961
1587.53973 2.39777
1585.49129 2.29126
1583.44285 2.15919
1581.39441 2.01626
1579.34597 1.88749
1577.29754 1.74702
1575.24910 1.60223
1573.20066 1.53269
1571.15222 1.49881
1569.10378 1.46676
1567.05534 1.44521
1565.00691 1.43588
1562.95847 1.43260
1560.91003 1.43638
1558.86159 1.45995
1556.81315 1.49030
1554.76471 1.52121
1552.71628 1.57052
1550.66784 1.64362
1548.61940 1.73248
1546.57096 1.80888
1544.52252 1.88134
1542.47408 1.96350
1540.42565 2.05792
1538.37721 2.13366
1536.32877 2.16816
1534.28033 2.20976
1532.23189 2.26531
1530.18345 2.30346
1528.13501 2.34301
1526.08658 2.39534
1524.03814 2.44963
1521.98970 2.51241
1519.94126 2.57120
1517.89282 2.61700
1515.84438 2.67435
1513.79595 2.73096
1511.74751 2.77470
1509.69907 2.83334
1507.65063 2.92655
1505.60219 3.00723
1503.55375 2.98933
1501.50532 2.98379
1499.45688 2.97011
1497.40844 2.91323
1495.36000 2.80505
1493.31156 2.70226
1491.26312 2.56686
1489.21469 2.34043
1487.16625 2.10892
1485.11781 1.91937
1483.06937 1.74391
1481.02093 1.58168
1478.97249 1.46597
1476.92406 1.39018
1474.87562 1.32757
1472.82718 1.25223
1470.77874 1.18775
1468.73030 1.15837
1466.68186 1.14883
1464.63343 1.15882
1462.58499 1.18207
1460.53655 1.20621
1458.48811 1.23399
1456.43967 1.25789
1454.39123 1.26004
1452.34280 1.25808
1450.29436 1.25681
1448.24592 1.25288
1446.19748 1.23979
1444.14904 1.21477
1442.10060 1.17858
1440.05217 1.14109
1438.00373 1.10827
1435.95529 1.07770
1433.90685 1.05883
1431.85841 1.04917
1429.80997 1.04168
1427.76154 1.03585
1425.71310 1.03344
1423.66466 1.03356
1421.61622 1.03586
1419.56778 1.04466
1417.51934 1.06188
1415.47091 1.08198
1413.42247 1.10937
1411.37403 1.14889
1409.32559 1.19615
1407.27715 1.24456
1405.22871 1.29552
1403.18028 1.34110
1401.13184 1.37520
1399.08340 1.40770
1397.03496 1.43870
1394.98652 1.46521
1392.93808 1.48681
1390.88965 1.50349
1388.84121 1.51941
1386.79277 1.53260
1384.74433 1.53908
1382.69589 1.54549
1380.64745 1.55537
1378.59901 1.56753
1376.55058 1.58097
1374.50214 1.59605
1372.45370 1.60875
1370.40526 1.61876
1368.35682 1.63008
1366.30838 1.64133
1364.25995 1.65232
1362.21151 1.66401
1360.16307 1.67413
1358.11463 1.68212
1356.06619 1.69015
1354.01775 1.69792
1351.96932 1.70540
1349.92088 1.71334
1347.87244 1.72129
1345.82400 1.72849
1343.77556 1.73511
1341.72712 1.74264
1339.67869 1.75106
1337.63025 1.75827
1335.58181 1.76339
1333.53337 1.76828
1331.48493 1.77313
1329.43649 1.77827
1327.38806 1.78345
1325.33962 1.78848
1323.29118 1.79370
1321.24274 1.79882
1319.19430 1.80372
1317.14586 1.80845
1315.09743 1.81392
1313.04899 1.81915
1311.00055 1.82313
1308.95211 1.82635
1306.90367 1.82930
1304.85523 1.83221
1302.80680 1.83646
1300.75836 1.84103
1298.70992 1.84422
1296.66148 1.84703
1294.61304 1.85048
1292.56460 1.85533
1290.51617 1.86060
1288.46773 1.86449
1286.41929 1.86740
1284.37085 1.87091
1282.32241 1.87345
1280.27397 1.87506
1278.22554 1.87860
1276.17710 1.88329
1274.12866 1.88669
1272.08022 1.88961
1270.03178 1.89322
1267.98334 1.89659
1265.93491 1.89963
1263.88647 1.90273
1261.83803 1.90563
1259.78959 1.90713
1257.74115 1.90775
1255.69271 1.90940
1253.64428 1.91230
1251.59584 1.91542
1249.54740 1.91887
1247.49896 1.92324
1245.45052 1.92744
1243.40208 1.93004
1241.35364 1.93159
1239.30521 1.93370
1237.25677 1.93617
1235.20833 1.93838
1233.15989 1.94006
1231.11145 1.94156
1229.06301 1.94290
1227.01458 1.94441
1224.96614 1.94632
1222.91770 1.94775
1220.86926 1.94899
1218.82082 1.95068
1216.77238 1.95319
1214.72395 1.95572
1212.67551 1.95773
1210.62707 1.95961
1208.57863 1.96069
1206.53019 1.96200
1204.48175 1.96483
1202.43332 1.96769
1200.38488 1.97001
1198.33644 1.97204
1196.28800 1.97417
1194.23956 1.97694
1192.19112 1.97971
1190.14269 1.98183
1188.09425 1.98292
1186.04581 1.98390
1183.99737 1.98578
1181.94893 1.98776
1179.90049 1.98900
1177.85206 1.99002
1175.80362 1.99144
1173.75518 1.99270
1171.70674 1.99363
1169.65830 1.99473
1167.60986 1.99533
1165.56143 1.99640
1163.51299 2.00021
1161.46455 2.00450
1159.41611 2.00646
1157.36767 2.00743
1155.31923 2.00867
1153.27080 2.00985
1151.22236 2.01131
1149.17392 2.01439
1147.12548 2.01840
1145.07704 2.02092
1143.02860 2.02198
1140.98017 2.02336
1138.93173 2.02633
1136.88329 2.03034
1134.83485 2.03353
1132.78641 2.03514
1130.73797 2.03601
1128.68954 2.03806
1126.64110 2.04231
1124.59266 2.04656
1122.54422 2.04912
1120.49578 2.05196
1118.44734 2.05612
1116.39891 2.06083
1114.35047 2.06624
1112.30203 2.07187
1110.25359 2.07692
1108.20515 2.08183
1106.15671 2.08688
1104.10827 2.09181
1102.05984 2.09583
1100.01140 2.09935
1097.96296 2.10185
1095.91452 2.09896
1093.86608 2.09059
1091.81764 2.08226
1089.76921 2.07832
1087.72077 2.07936
1085.67233 2.08271
1083.62389 2.08723
1081.57545 2.09364
1079.52701 2.09925
1077.47858 2.10208
1075.43014 2.10451
1073.38170 2.10799
1071.33326 2.11201
1069.28482 2.11686
1067.23638 2.12271
1065.18795 2.12712
1063.13951 2.12931
1061.09107 2.13285
1059.04263 2.13972
1056.99419 2.14549
1054.94575 2.14748
1052.89732 2.15054
1050.84888 2.15658
1048.80044 2.16146
1046.75200 2.16374
1044.70356 2.16637
1042.65512 2.16986
1040.60669 2.17448
1038.55825 2.18152
1036.50981 2.18913
1034.46137 2.19498
1032.41293 2.19939
1030.36449 2.20310
1028.31606 2.20794
1026.26762 2.21630
1024.21918 2.22577
1022.17074 2.23293
1020.12230 2.23911
1018.07386 2.24739
1016.02543 2.25635
1013.97699 2.26341
1011.92855 2.26999
1009.88011 2.27813
1007.83167 2.29010
1005.78323 2.30446
1003.73480 2.31570
1001.68636 2.32343
999.63792 2.33215
997.58948 2.34149
995.54104 2.34658
993.49260 2.34522
991.44417 2.33999
989.39573 2.33265
987.34729 2.31543
985.29885 2.27863
983.25041 2.22168
981.20197 2.14763
979.15354 2.06234
977.10510 1.97675
975.05666 1.90159
973.00822 1.84212
970.95978 1.79678
968.91134 1.75980
966.86290 1.72526
964.81447 1.69078
962.76603 1.65665
960.71759 1.62365
958.66915 1.59334
956.62071 1.56827
954.57227 1.55133
952.52384 1.54569
950.47540 1.55422
948.42696 1.57798
946.37852 1.61452
944.33008 1.65703
942.28164 1.69823
940.23321 1.73439
938.18477 1.76498
936.13633 1.79250
934.08789 1.81922
932.03945 1.84553
929.99101 1.86982
927.94258 1.88941
925.89414 1.90739
923.84570 1.92803
921.79726 1.94998
919.74882 1.97086
917.70038 1.98813
915.65195 2.00155
913.60351 2.01536
911.55507 2.03115
909.50663 2.04591
907.45819 2.05926
905.40975 2.07335
903.36132 2.08723
901.31288 2.10008
899.26444 2.11396
897.21600 2.13063
895.16756 2.14785
893.11912 2.16322
891.07069 2.17981
889.02225 2.19860
886.97381 2.21639
884.92537 2.23301
882.87693 2.25104
880.82849 2.27141
878.78006 2.29074
876.73162 2.30884
874.68318 2.33103
872.63474 2.34688
870.58630 2.33574
868.53786 2.29738
866.48943 2.23680
864.44099 2.14570
862.39255 2.02513
860.34411 1.90005
858.29567 1.79322
856.24723 1.71017
854.19880 1.64828
852.15036 1.60417
850.10192 1.57427
848.05348 1.55310
846.00504 1.53280
843.95660 1.50680
841.90817 1.48010
839.85973 1.46656
837.81129 1.47255
835.76285 1.49389
833.71441 1.52326
831.66597 1.55498
829.61753 1.58895
827.56910 1.62911
825.52066 1.67227
823.47222 1.70435
821.42378 1.71425
819.37534 1.70220
817.32690 1.67826
815.27847 1.66094
813.23003 1.66455
811.18159 1.68735
809.13315 1.71646
807.08471 1.74258
805.03627 1.76601
802.98784 1.78901
800.93940 1.80893
798.89096 1.82281
796.84252 1.83384
794.79408 1.84561
792.74564 1.85823
790.69721 1.87093
788.64877 1.88240
786.60033 1.89213
784.55189 1.90123
782.50345 1.91188
780.45501 1.92400
778.40658 1.93616
776.35814 1.94584
774.30970 1.94432
772.26126 1.92575
770.21282 1.90060
768.16438 1.88628
766.11595 1.88577
764.06751 1.89091
762.01907 1.90010
759.97063 1.91474
757.92219 1.93296
755.87375 1.94859
753.82532 1.95347
751.77688 1.95097
749.72844 1.95276
747.68000 1.96161
745.63156 1.97005
743.58312 1.97135
741.53469 1.96397
739.48625 1.95342
737.43781 1.94943
735.38937 1.95537
733.34093 1.96569
731.29249 1.97611
729.24406 1.98549
727.19562 1.98988
725.14718 1.99094
723.09874 1.99520
721.05030 2.00228
719.00186 2.00694
716.95343 2.00994
714.90499 2.01310
712.85655 2.01365
710.80811 2.01582
708.75967 2.02543
706.71123 2.03348
704.66280 2.03372
702.61436 2.03665
700.56592 2.04521
698.51748 2.05039
696.46904 2.04641
694.42060 2.04081
692.37216 2.03452
690.32373 2.02558
688.27529 2.02902
686.22685 2.03887
684.17841 2.04147
682.12997 2.04852
680.08153 2.05807
678.03310 2.05209
675.98466 2.03392
673.93622 2.02617
671.88778 2.04049
669.83934 2.06040
667.79090 2.07253
665.74247 2.09204
663.69403 2.10905
661.64559 2.11461
659.59715 2.11488
657.54871 2.10826
655.50027 2.09081
653.45184 2.07702
651.40340 2.08704
649.35496 2.12752
647.30652 2.16112
645.25808 2.14185
643.20964 2.10527
641.16121 2.10288
639.11277 2.13027
637.06433 2.14849
635.01589 2.13815
632.96745 2.10637
630.91901 2.07852
628.87058 2.07637
626.82214 2.10150
624.77370 2.13749
622.72526 2.17018
620.67682 2.21147
618.62838 2.23399
616.57995 2.20130
614.53151 2.16897
612.48307 2.16743
610.43463 2.14448
608.38619 2.10167
606.33775 2.10274
604.28932 2.15217
602.24088 2.20560
600.19244 2.25030
598.14400 2.34194
