3996.50324 0.03480
3994.45480 0.03472
3992.40636 0.03464
3990.35792 0.03454
3988.30948 0.03444
3986.26104 0.03433
3984.21261 0.03418
3982.16417 0.03403
3980.11573 0.03391
3978.06729 0.03373
3976.01885 0.03352
3973.97041 0.03338
3971.92198 0.03328
3969.87354 0.03323
3967.82510 0.03329
3965.77666 0.03339
3963.72822 0.03346
3961.67978 0.03345
3959.63135 0.03347
3957.58291 0.03352
3955.53447 0.03355
3953.48603 0.03360
3951.43759 0.03366
3949.38915 0.03365
3947.34072 0.03361
3945.29228 0.03354
3943.24384 0.03348
3941.19540 0.03353
3939.14696 0.03361
3937.09852 0.03361
3935.05009 0.03349
3933.00165 0.03331
3930.95321 0.03318
3928.90477 0.03314
3926.85633 0.03306
3924.80789 0.03286
3922.75946 0.03268
3920.71102 0.03258
3918.66258 0.03250
3916.61414 0.03246
3914.56570 0.03253
3912.51726 0.03267
3910.46883 0.03275
3908.42039 0.03273
3906.37195 0.03263
3904.32351 0.03241
3902.27507 0.03211
3900.22663 0.03186
3898.17820 0.03183
3896.12976 0.03182
3894.08132 0.03165
3892.03288 0.03142
3889.98444 0.03126
3887.93600 0.03104
3885.88756 0.03078
3883.83913 0.03061
3881.79069 0.03056
3879.74225 0.03059
3877.69381 0.03053
3875.64537 0.03037
3873.59693 0.03028
3871.54850 0.03037
3869.50006 0.03075
3867.45162 0.03110
3865.40318 0.03122
3863.35474 0.03140
3861.30630 0.03167
3859.25787 0.03176
3857.20943 0.03162
3855.16099 0.03132
3853.11255 0.03119
3851.06411 0.03137
3849.01567 0.03150
3846.96724 0.03157
3844.91880 0.03154
3842.87036 0.03132
3840.82192 0.03100
3838.77348 0.03092
3836.72504 0.03103
3834.67661 0.03099
3832.62817 0.03097
3830.57973 0.03105
3828.53129 0.03106
3826.48285 0.03100
3824.43441 0.03100
3822.38598 0.03093
3820.33754 0.03087
3818.28910 0.03108
3816.24066 0.03156
3814.19222 0.03206
3812.14378 0.03225
3810.09535 0.03225
3808.04691 0.03222
3805.99847 0.03216
3803.95003 0.03199
3801.90159 0.03178
3799.85315 0.03182
3797.80472 0.03205
3795.75628 0.03226
3793.70784 0.03234
3791.65940 0.03235
3789.61096 0.03244
3787.56252 0.03257
3785.51409 0.03263
3783.46565 0.03257
3781.41721 0.03250
3779.36877 0.03242
3777.32033 0.03244
3775.27189 0.03252
3773.22346 0.03249
3771.17502 0.03234
3769.12658 0.03221
3767.07814 0.03219
3765.02970 0.03220
3762.98126 0.03222
3760.93283 0.03220
3758.88439 0.03208
3756.83595 0.03192
3754.78751 0.03169
3752.73907 0.03127
3750.69063 0.03079
3748.64219 0.03077
3746.59376 0.03094
3744.54532 0.03091
3742.49688 0.03065
3740.44844 0.03043
3738.40000 0.03023
3736.35156 0.03002
3734.30313 0.03002
3732.25469 0.03016
3730.20625 0.03025
3728.15781 0.03029
3726.10937 0.03028
3724.06093 0.03023
3722.01250 0.03021
3719.96406 0.03030
3717.91562 0.03037
3715.86718 0.03030
3713.81874 0.03008
3711.77030 0.02981
3709.72187 0.02980
3707.67343 0.02997
3705.62499 0.03004
3703.57655 0.02997
3701.52811 0.02996
3699.47967 0.03012
3697.43124 0.03023
3695.38280 0.03017
3693.33436 0.03002
3691.28592 0.02977
3689.23748 0.02944
3687.18904 0.02926
3685.14061 0.02922
3683.09217 0.02908
3681.04373 0.02869
3678.99529 0.02814
3676.94685 0.02754
3674.89841 0.02704
3672.84998 0.02682
3670.80154 0.02665
3668.75310 0.02660
3666.70466 0.02666
3664.65622 0.02659
3662.60778 0.02639
3660.55935 0.02608
3658.51091 0.02570
3656.46247 0.02534
3654.41403 0.02508
3652.36559 0.02473
3650.31715 0.02413
3648.26872 0.02367
3646.22028 0.02365
3644.17184 0.02363
3642.12340 0.02344
3640.07496 0.02310
3638.02652 0.02271
3635.97809 0.02233
3633.92965 0.02195
3631.88121 0.02163
3629.83277 0.02118
3627.78433 0.02052
3625.73589 0.02013
3623.68746 0.01983
3621.63902 0.01943
3619.59058 0.01895
3617.54214 0.01852
3615.49370 0.01821
3613.44526 0.01798
3611.39682 0.01779
3609.34839 0.01755
3607.29995 0.01721
3605.25151 0.01687
3603.20307 0.01654
3601.15463 0.01622
3599.10619 0.01593
3597.05776 0.01562
3595.00932 0.01529
3592.96088 0.01502
3590.91244 0.01474
3588.86400 0.01437
3586.81556 0.01406
3584.76713 0.01391
3582.71869 0.01375
3580.67025 0.01353
3578.62181 0.01333
3576.57337 0.01314
3574.52493 0.01292
3572.47650 0.01267
3570.42806 0.01238
3568.37962 0.01208
3566.33118 0.01193
3564.28274 0.01196
3562.23430 0.01190
3560.18587 0.01175
3558.13743 0.01163
3556.08899 0.01147
3554.04055 0.01122
3551.99211 0.01101
3549.94367 0.01090
3547.89524 0.01077
3545.84680 0.01052
3543.79836 0.01030
3541.74992 0.01022
3539.70148 0.01017
3537.65304 0.01010
3535.60461 0.01003
3533.55617 0.00992
3531.50773 0.00982
3529.45929 0.00977
3527.41085 0.00967
3525.36241 0.00946
3523.31398 0.00930
3521.26554 0.00922
3519.21710 0.00912
3517.16866 0.00903
3515.12022 0.00899
3513.07178 0.00893
3511.02335 0.00887
3508.97491 0.00880
3506.92647 0.00871
3504.87803 0.00863
3502.82959 0.00854
3500.78115 0.00847
3498.73272 0.00843
3496.68428 0.00842
3494.63584 0.00838
3492.58740 0.00830
3490.53896 0.00826
3488.49052 0.00822
3486.44209 0.00813
3484.39365 0.00805
3482.34521 0.00799
3480.29677 0.00793
3478.24833 0.00793
3476.19989 0.00795
3474.15146 0.00790
3472.10302 0.00785
3470.05458 0.00784
3468.00614 0.00778
3465.95770 0.00767
3463.90926 0.00762
3461.86082 0.00760
3459.81239 0.00753
3457.76395 0.00745
3455.71551 0.00742
3453.66707 0.00743
3451.61863 0.00743
3449.57019 0.00737
3447.52176 0.00727
3445.47332 0.00720
3443.42488 0.00719
3441.37644 0.00728
3439.32800 0.00751
3437.27956 0.00793
3435.23113 0.00835
3433.18269 0.00857
3431.13425 0.00855
3429.08581 0.00838
3427.03737 0.00819
3424.98893 0.00806
3422.94050 0.00795
3420.89206 0.00785
3418.84362 0.00777
3416.79518 0.00768
3414.74674 0.00761
3412.69830 0.00762
3410.64987 0.00763
3408.60143 0.00759
3406.55299 0.00755
3404.50455 0.00749
3402.45611 0.00742
3400.40767 0.00735
3398.35924 0.00736
3396.31080 0.00740
3394.26236 0.00737
3392.21392 0.00729
3390.16548 0.00722
3388.11704 0.00720
3386.06861 0.00721
3384.02017 0.00722
3381.97173 0.00722
3379.92329 0.00721
3377.87485 0.00722
3375.82641 0.00726
3373.77798 0.00727
3371.72954 0.00722
3369.68110 0.00720
3367.63266 0.00722
3365.58422 0.00723
3363.53578 0.00721
3361.48735 0.00718
3359.43891 0.00718
3357.39047 0.00716
3355.34203 0.00717
3353.29359 0.00726
3351.24515 0.00734
3349.19672 0.00727
3347.14828 0.00714
3345.09984 0.00711
3343.05140 0.00715
3341.00296 0.00718
3338.95452 0.00719
3336.90609 0.00720
3334.85765 0.00725
3332.80921 0.00730
3330.76077 0.00729
3328.71233 0.00725
3326.66389 0.00725
3324.61545 0.00729
3322.56702 0.00731
3320.51858 0.00732
3318.47014 0.00736
3316.42170 0.00738
3314.37326 0.00734
3312.32482 0.00730
3310.27639 0.00731
3308.22795 0.00730
3306.17951 0.00730
3304.13107 0.00734
3302.08263 0.00743
3300.03419 0.00748
3297.98576 0.00743
3295.93732 0.00739
3293.88888 0.00741
3291.84044 0.00741
3289.79200 0.00740
3287.74356 0.00742
3285.69513 0.00750
3283.64669 0.00754
3281.59825 0.00753
3279.54981 0.00754
3277.50137 0.00758
3275.45293 0.00756
3273.40450 0.00752
3271.35606 0.00748
3269.30762 0.00749
3267.25918 0.00758
3265.21074 0.00766
3263.16230 0.00765
3261.11387 0.00762
3259.06543 0.00761
3257.01699 0.00761
3254.96855 0.00763
3252.92011 0.00764
3250.87167 0.00762
3248.82324 0.00764
3246.77480 0.00771
3244.72636 0.00779
3242.67792 0.00780
3240.62948 0.00777
3238.58104 0.00774
3236.53261 0.00775
3234.48417 0.00781
3232.43573 0.00787
3230.38729 0.00787
3228.33885 0.00786
3226.29041 0.00786
3224.24198 0.00785
3222.19354 0.00786
3220.14510 0.00791
3218.09666 0.00792
3216.04822 0.00789
3213.99978 0.00790
3211.95135 0.00797
3209.90291 0.00804
3207.85447 0.00805
3205.80603 0.00807
3203.75759 0.00813
3201.70915 0.00815
3199.66072 0.00811
3197.61228 0.00810
3195.56384 0.00808
3193.51540 0.00807
3191.46696 0.00813
3189.41852 0.00821
3187.37008 0.00826
3185.32165 0.00828
3183.27321 0.00835
3181.22477 0.00842
3179.17633 0.00840
3177.12789 0.00833
3175.07945 0.00830
3173.03102 0.00833
3170.98258 0.00838
3168.93414 0.00841
3166.88570 0.00844
3164.83726 0.00848
3162.78882 0.00851
3160.74039 0.00854
3158.69195 0.00857
3156.64351 0.00859
3154.59507 0.00855
3152.54663 0.00854
3150.49819 0.00861
3148.44976 0.00867
3146.40132 0.00870
3144.35288 0.00869
3142.30444 0.00868
3140.25600 0.00869
3138.20756 0.00871
3136.15913 0.00873
3134.11069 0.00876
3132.06225 0.00876
3130.01381 0.00876
3127.96537 0.00877
3125.91693 0.00877
3123.86850 0.00881
3121.82006 0.00884
3119.77162 0.00884
3117.72318 0.00887
3115.67474 0.00894
3113.62630 0.00902
3111.57787 0.00909
3109.52943 0.00908
3107.48099 0.00903
3105.43255 0.00902
3103.38411 0.00909
3101.33567 0.00917
3099.28724 0.00921
3097.23880 0.00922
3095.19036 0.00924
3093.14192 0.00927
3091.09348 0.00929
3089.04504 0.00932
3086.99661 0.00932
3084.94817 0.00930
3082.89973 0.00929
3080.85129 0.00932
3078.80285 0.00938
3076.75441 0.00942
3074.70598 0.00942
3072.65754 0.00943
3070.60910 0.00950
3068.56066 0.00955
3066.51222 0.00954
3064.46378 0.00952
3062.41535 0.00955
3060.36691 0.00961
3058.31847 0.00966
3056.27003 0.00967
3054.22159 0.00968
3052.17315 0.00973
3050.12471 0.00977
3048.07628 0.00977
3046.02784 0.00976
3043.97940 0.00978
3041.93096 0.00980
3039.88252 0.00980
3037.83408 0.00981
3035.78565 0.00979
3033.73721 0.00974
3031.68877 0.00973
3029.64033 0.00976
3027.59189 0.00978
3025.54345 0.00979
3023.49502 0.00984
3021.44658 0.00992
3019.39814 0.00994
3017.34970 0.00990
3015.30126 0.00984
3013.25282 0.00980
3011.20439 0.00982
3009.15595 0.00990
3007.10751 0.00997
3005.05907 0.00999
3003.01063 0.01004
3000.96219 0.01008
2998.91376 0.01008
2996.86532 0.01004
2994.81688 0.01002
2992.76844 0.01003
2990.72000 0.01005
2988.67156 0.01005
2986.62313 0.01002
2984.57469 0.01001
2982.52625 0.01001
2980.47781 0.00997
2978.42937 0.00997
2976.38093 0.01001
2974.33250 0.01003
2972.28406 0.00998
2970.23562 0.00991
2968.18718 0.00985
2966.13874 0.00982
2964.09030 0.00979
2962.04187 0.00976
2959.99343 0.00973
2957.94499 0.00970
2955.89655 0.00970
2953.84811 0.00975
2951.79967 0.00980
2949.75124 0.00978
2947.70280 0.00971
2945.65436 0.00965
2943.60592 0.00963
2941.55748 0.00960
2939.50904 0.00952
2937.46061 0.00944
2935.41217 0.00940
2933.36373 0.00937
2931.31529 0.00928
2929.26685 0.00919
2927.21841 0.00916
2925.16998 0.00920
2923.12154 0.00928
2921.07310 0.00938
2919.02466 0.00949
2916.97622 0.00963
2914.92778 0.00981
2912.87934 0.00999
2910.83091 0.01011
2908.78247 0.01020
2906.73403 0.01027
2904.68559 0.01034
2902.63715 0.01043
2900.58871 0.01059
2898.54028 0.01074
2896.49184 0.01078
2894.44340 0.01077
2892.39496 0.01079
2890.34652 0.01086
2888.29808 0.01094
2886.24965 0.01100
2884.20121 0.01104
2882.15277 0.01110
2880.10433 0.01112
2878.05589 0.01111
2876.00745 0.01113
2873.95902 0.01114
2871.91058 0.01113
2869.86214 0.01115
2867.81370 0.01119
2865.76526 0.01116
2863.71682 0.01110
2861.66839 0.01105
2859.61995 0.01097
2857.57151 0.01088
2855.52307 0.01084
2853.47463 0.01085
2851.42619 0.01090
2849.37776 0.01105
2847.32932 0.01127
2845.28088 0.01151
2843.23244 0.01175
2841.18400 0.01194
2839.13556 0.01206
2837.08713 0.01217
2835.03869 0.01230
2832.99025 0.01243
2830.94181 0.01252
2828.89337 0.01256
2826.84493 0.01261
2824.79650 0.01267
2822.74806 0.01275
2820.69962 0.01286
2818.65118 0.01300
2816.60274 0.01316
2814.55430 0.01331
2812.50587 0.01341
2810.45743 0.01346
2808.40899 0.01354
2806.36055 0.01362
2804.31211 0.01371
2802.26367 0.01381
2800.21524 0.01391
2798.16680 0.01400
2796.11836 0.01408
2794.06992 0.01416
2792.02148 0.01423
2789.97304 0.01432
2787.92461 0.01442
2785.87617 0.01456
2783.82773 0.01470
2781.77929 0.01479
2779.73085 0.01482
2777.68241 0.01483
2775.63397 0.01487
2773.58554 0.01492
2771.53710 0.01499
2769.48866 0.01507
2767.44022 0.01514
2765.39178 0.01521
2763.34334 0.01528
2761.29491 0.01536
2759.24647 0.01544
2757.19803 0.01548
2755.14959 0.01553
2753.10115 0.01563
2751.05271 0.01570
2749.00428 0.01573
2746.95584 0.01577
2744.90740 0.01584
2742.85896 0.01593
2740.81052 0.01604
2738.76208 0.01612
2736.71365 0.01614
2734.66521 0.01614
2732.61677 0.01620
2730.56833 0.01630
2728.51989 0.01637
2726.47145 0.01642
2724.42302 0.01651
2722.37458 0.01660
2720.32614 0.01666
2718.27770 0.01671
2716.22926 0.01676
2714.18082 0.01683
2712.13239 0.01688
2710.08395 0.01693
2708.03551 0.01697
2705.98707 0.01703
2703.93863 0.01712
2701.89019 0.01723
2699.84176 0.01729
2697.79332 0.01729
2695.74488 0.01727
2693.69644 0.01730
2691.64800 0.01737
2689.59956 0.01739
2687.55113 0.01740
2685.50269 0.01740
2683.45425 0.01737
2681.40581 0.01733
2679.35737 0.01733
2677.30893 0.01737
2675.26050 0.01738
2673.21206 0.01732
2671.16362 0.01722
2669.11518 0.01716
2667.06674 0.01715
2665.01830 0.01715
2662.96987 0.01718
2660.92143 0.01720
2658.87299 0.01717
2656.82455 0.01715
2654.77611 0.01716
2652.72767 0.01715
2650.67924 0.01715
2648.63080 0.01719
2646.58236 0.01723
2644.53392 0.01727
2642.48548 0.01729
2640.43704 0.01728
2638.38860 0.01727
2636.34017 0.01727
2634.29173 0.01729
2632.24329 0.01731
2630.19485 0.01733
2628.14641 0.01733
2626.09797 0.01735
2624.04954 0.01737
2622.00110 0.01739
2619.95266 0.01741
2617.90422 0.01738
2615.85578 0.01737
2613.80734 0.01738
2611.75891 0.01735
2609.71047 0.01733
2607.66203 0.01737
2605.61359 0.01743
2603.56515 0.01748
2601.51671 0.01748
2599.46828 0.01746
2597.41984 0.01741
2595.37140 0.01738
2593.32296 0.01741
2591.27452 0.01745
2589.22608 0.01749
2587.17765 0.01755
2585.12921 0.01761
2583.08077 0.01765
2581.03233 0.01769
2578.98389 0.01773
2576.93545 0.01776
2574.88702 0.01776
2572.83858 0.01773
2570.79014 0.01769
2568.74170 0.01766
2566.69326 0.01762
2564.64482 0.01760
2562.59639 0.01761
2560.54795 0.01762
2558.49951 0.01761
2556.45107 0.01756
2554.40263 0.01750
2552.35419 0.01749
2550.30576 0.01752
2548.25732 0.01754
2546.20888 0.01752
2544.16044 0.01752
2542.11200 0.01755
2540.06356 0.01757
2538.01513 0.01755
2535.96669 0.01753
2533.91825 0.01751
2531.86981 0.01747
2529.82137 0.01746
2527.77293 0.01747
2525.72450 0.01747
2523.67606 0.01742
2521.62762 0.01742
2519.57918 0.01749
2517.53074 0.01756
2515.48230 0.01759
2513.43387 0.01756
2511.38543 0.01750
2509.33699 0.01744
2507.28855 0.01744
2505.24011 0.01749
2503.19167 0.01755
2501.14324 0.01758
2499.09480 0.01758
2497.04636 0.01760
2494.99792 0.01764
2492.94948 0.01767
2490.90104 0.01770
2488.85260 0.01775
2486.80417 0.01777
2484.75573 0.01777
2482.70729 0.01780
2480.65885 0.01787
2478.61041 0.01792
2476.56197 0.01795
2474.51354 0.01798
2472.46510 0.01801
2470.41666 0.01808
2468.36822 0.01821
2466.31978 0.01829
2464.27134 0.01831
2462.22291 0.01839
2460.17447 0.01848
2458.12603 0.01852
2456.07759 0.01853
2454.02915 0.01859
2451.98071 0.01871
2449.93228 0.01884
2447.88384 0.01891
2445.83540 0.01895
2443.78696 0.01900
2441.73852 0.01911
2439.69008 0.01921
2437.64165 0.01926
2435.59321 0.01929
2433.54477 0.01934
2431.49633 0.01936
2429.44789 0.01935
2427.39945 0.01933
2425.35102 0.01933
2423.30258 0.01937
2421.25414 0.01937
2419.20570 0.01937
2417.15726 0.01942
2415.10882 0.01948
2413.06039 0.01955
2411.01195 0.01960
2408.96351 0.01964
2406.91507 0.01965
2404.86663 0.01968
2402.81819 0.01973
2400.76976 0.01971
2398.72132 0.01969
2396.67288 0.01974
2394.62444 0.01976
2392.57600 0.01971
2390.52756 0.01967
2388.47913 0.01965
2386.43069 0.01962
2384.38225 0.01958
2382.33381 0.01954
2380.28537 0.01945
2378.23693 0.01929
2376.18850 0.01911
2374.14006 0.01897
2372.09162 0.01883
2370.04318 0.01866
2367.99474 0.01846
2365.94630 0.01833
2363.89787 0.01835
2361.84943 0.01842
2359.80099 0.01840
2357.75255 0.01836
2355.70411 0.01846
2353.65567 0.01861
2351.60723 0.01869
2349.55880 0.01876
2347.51036 0.01873
2345.46192 0.01856
2343.41348 0.01850
2341.36504 0.01859
2339.31660 0.01863
2337.26817 0.01865
2335.21973 0.01855
2333.17129 0.01830
2331.12285 0.01810
2329.07441 0.01808
2327.02597 0.01816
2324.97754 0.01823
2322.92910 0.01822
2320.88066 0.01816
2318.83222 0.01812
2316.78378 0.01813
2314.73534 0.01816
2312.68691 0.01815
2310.63847 0.01810
2308.59003 0.01810
2306.54159 0.01817
2304.49315 0.01821
2302.44471 0.01816
2300.39628 0.01809
2298.34784 0.01803
2296.29940 0.01796
2294.25096 0.01792
2292.20252 0.01793
2290.15408 0.01795
2288.10565 0.01796
2286.05721 0.01791
2284.00877 0.01781
2281.96033 0.01776
2279.91189 0.01770
2277.86345 0.01760
2275.81502 0.01754
2273.76658 0.01756
2271.71814 0.01756
2269.66970 0.01753
2267.62126 0.01747
2265.57282 0.01740
2263.52439 0.01733
2261.47595 0.01725
2259.42751 0.01721
2257.37907 0.01724
2255.33063 0.01730
2253.28219 0.01735
2251.23376 0.01739
2249.18532 0.01742
2247.13688 0.01739
2245.08844 0.01730
2243.04000 0.01722
2240.99156 0.01719
2238.94313 0.01715
2236.89469 0.01708
2234.84625 0.01706
2232.79781 0.01706
2230.74937 0.01705
2228.70093 0.01706
2226.65250 0.01709
2224.60406 0.01711
2222.55562 0.01710
2220.50718 0.01705
2218.45874 0.01704
2216.41030 0.01705
2214.36186 0.01703
2212.31343 0.01696
2210.26499 0.01688
2208.21655 0.01678
2206.16811 0.01675
2204.11967 0.01679
2202.07123 0.01683
2200.02280 0.01685
2197.97436 0.01682
2195.92592 0.01680
2193.87748 0.01680
2191.82904 0.01686
2189.78060 0.01693
2187.73217 0.01691
2185.68373 0.01685
2183.63529 0.01680
2181.58685 0.01681
2179.53841 0.01684
2177.48997 0.01685
2175.44154 0.01684
2173.39310 0.01684
2171.34466 0.01687
2169.29622 0.01689
2167.24778 0.01692
2165.19934 0.01701
2163.15091 0.01710
2161.10247 0.01713
2159.05403 0.01714
2157.00559 0.01717
2154.95715 0.01724
2152.90871 0.01729
2150.86028 0.01734
2148.81184 0.01737
2146.76340 0.01741
2144.71496 0.01748
2142.66652 0.01758
2140.61808 0.01767
2138.56965 0.01774
2136.52121 0.01779
2134.47277 0.01783
2132.42433 0.01788
2130.37589 0.01795
2128.32745 0.01802
2126.27902 0.01804
2124.23058 0.01804
2122.18214 0.01805
2120.13370 0.01810
2118.08526 0.01814
2116.03682 0.01816
2113.98839 0.01817
2111.93995 0.01819
2109.89151 0.01819
2107.84307 0.01818
2105.79463 0.01824
2103.74619 0.01830
2101.69776 0.01833
2099.64932 0.01833
2097.60088 0.01829
2095.55244 0.01826
2093.50400 0.01825
2091.45556 0.01825
2089.40713 0.01829
2087.35869 0.01834
2085.31025 0.01835
2083.26181 0.01832
2081.21337 0.01829
2079.16493 0.01824
2077.11649 0.01819
2075.06806 0.01817
2073.01962 0.01815
2070.97118 0.01811
2068.92274 0.01806
2066.87430 0.01799
2064.82586 0.01791
2062.77743 0.01786
2060.72899 0.01779
2058.68055 0.01769
2056.63211 0.01761
2054.58367 0.01755
2052.53523 0.01748
2050.48680 0.01744
2048.43836 0.01743
2046.38992 0.01744
2044.34148 0.01743
2042.29304 0.01739
2040.24460 0.01733
2038.19617 0.01731
2036.14773 0.01733
2034.09929 0.01736
2032.05085 0.01738
2030.00241 0.01742
2027.95397 0.01743
2025.90554 0.01741
2023.85710 0.01741
2021.80866 0.01739
2019.76022 0.01737
2017.71178 0.01738
2015.66334 0.01740
2013.61491 0.01738
2011.56647 0.01732
2009.51803 0.01724
2007.46959 0.01719
2005.42115 0.01716
2003.37271 0.01713
2001.32428 0.01709
1999.27584 0.01707
1997.22740 0.01702
1995.17896 0.01694
1993.13052 0.01686
1991.08208 0.01680
1989.03365 0.01675
1986.98521 0.01671
1984.93677 0.01666
1982.88833 0.01658
1980.83989 0.01648
1978.79145 0.01640
1976.74302 0.01631
1974.69458 0.01623
1972.64614 0.01617
1970.59770 0.01613
1968.54926 0.01605
1966.50082 0.01591
1964.45239 0.01579
1962.40395 0.01571
1960.35551 0.01562
1958.30707 0.01556
1956.25863 0.01549
1954.21019 0.01541
1952.16176 0.01533
1950.11332 0.01525
1948.06488 0.01516
1946.01644 0.01510
1943.96800 0.01502
1941.91956 0.01494
1939.87112 0.01489
1937.82269 0.01488
1935.77425 0.01489
1933.72581 0.01487
1931.67737 0.01483
1929.62893 0.01476
1927.58049 0.01470
1925.53206 0.01466
1923.48362 0.01463
1921.43518 0.01455
1919.38674 0.01448
1917.33830 0.01445
1915.28986 0.01443
1913.24143 0.01438
1911.19299 0.01432
1909.14455 0.01425
1907.09611 0.01422
1905.04767 0.01421
1902.99923 0.01419
1900.95080 0.01415
1898.90236 0.01410
1896.85392 0.01405
1894.80548 0.01401
1892.75704 0.01394
1890.70860 0.01385
1888.66017 0.01377
1886.61173 0.01369
1884.56329 0.01363
1882.51485 0.01361
1880.46641 0.01362
1878.41797 0.01364
1876.36954 0.01364
1874.32110 0.01358
1872.27266 0.01350
1870.22422 0.01342
1868.17578 0.01334
1866.12734 0.01328
1864.07891 0.01328
1862.03047 0.01333
1859.98203 0.01334
1857.93359 0.01330
1855.88515 0.01325
1853.83671 0.01323
1851.78828 0.01324
1849.73984 0.01326
1847.69140 0.01326
1845.64296 0.01320
1843.59452 0.01315
1841.54608 0.01316
1839.49765 0.01317
1837.44921 0.01314
1835.40077 0.01312
1833.35233 0.01313
1831.30389 0.01306
1829.25545 0.01293
1827.20702 0.01290
1825.15858 0.01296
1823.11014 0.01302
1821.06170 0.01305
1819.01326 0.01305
1816.96482 0.01305
1814.91639 0.01306
1812.86795 0.01303
1810.81951 0.01300
1808.77107 0.01300
1806.72263 0.01300
1804.67419 0.01297
1802.62575 0.01292
1800.57732 0.01287
1798.52888 0.01282
1796.48044 0.01277
1794.43200 0.01273
1792.38356 0.01272
1790.33512 0.01271
1788.28669 0.01265
1786.23825 0.01257
1784.18981 0.01248
1782.14137 0.01240
1780.09293 0.01234
1778.04449 0.01229
1775.99606 0.01225
1773.94762 0.01219
1771.89918 0.01212
1769.85074 0.01206
1767.80230 0.01200
1765.75386 0.01194
1763.70543 0.01186
1761.65699 0.01175
1759.60855 0.01159
1757.56011 0.01132
1755.51167 0.01097
1753.46323 0.01067
1751.41480 0.01034
1749.36636 0.00993
1747.31792 0.00964
1745.26948 0.00948
1743.22104 0.00937
1741.17260 0.00932
1739.12417 0.00936
1737.07573 0.00943
1735.02729 0.00956
1732.97885 0.00971
1730.93041 0.00979
1728.88197 0.00988
1726.83354 0.00999
1724.78510 0.01007
1722.73666 0.01012
1720.68822 0.01014
1718.63978 0.01013
1716.59134 0.01008
1714.54291 0.01003
1712.49447 0.00998
1710.44603 0.00991
1708.39759 0.00982
1706.34915 0.00969
1704.30071 0.00959
1702.25228 0.00953
1700.20384 0.00936
1698.15540 0.00911
1696.10696 0.00897
1694.05852 0.00887
1692.01008 0.00870
1689.96165 0.00849
1687.91321 0.00833
1685.86477 0.00820
1683.81633 0.00797
1681.76789 0.00785
1679.71945 0.00784
1677.67102 0.00781
1675.62258 0.00774
1673.57414 0.00766
1671.52570 0.00757
1669.47726 0.00751
1667.42882 0.00748
1665.38038 0.00748
1663.33195 0.00746
1661.28351 0.00744
1659.23507 0.00741
1657.18663 0.00735
1655.13819 0.00724
1653.08975 0.00714
1651.04132 0.00715
1648.99288 0.00712
1646.94444 0.00707
1644.89600 0.00712
1642.84756 0.00719
1640.79912 0.00722
1638.75069 0.00722
1636.70225 0.00719
1634.65381 0.00718
1632.60537 0.00716
1630.55693 0.00711
1628.50849 0.00706
1626.46006 0.00704
1624.41162 0.00703
1622.36318 0.00704
1620.31474 0.00709
1618.26630 0.00712
1616.21786 0.00722
1614.16943 0.00740
1612.12099 0.00759
1610.07255 0.00775
1608.02411 0.00790
1605.97567 0.00807
1603.92723 0.00823
1601.87880 0.00839
1599.83036 0.00856
1597.78192 0.00877
1595.73348 0.00902
1593.68504 0.00933
1591.63660 0.00968
1589.58817 0.01008
1587.53973 0.01056
1585.49129 0.01114
1583.44285 0.01189
1581.39441 0.01286
1579.34597 0.01392
1577.29754 0.01541
1575.24910 0.01765
1573.20066 0.01915
1571.15222 0.02011
1569.10378 0.02121
1567.05534 0.02209
1565.00691 0.02263
1562.95847 0.02302
1560.91003 0.02322
1558.86159 0.02338
1556.81315 0.02373
1554.76471 0.02415
1552.71628 0.02455
1550.66784 0.02486
1548.61940 0.02506
1546.57096 0.02512
1544.52252 0.02504
1542.47408 0.02496
1540.42565 0.02505
1538.37721 0.02530
1536.32877 0.02541
1534.28033 0.02519
1532.23189 0.02462
1530.18345 0.02396
1528.13501 0.02305
1526.08658 0.02174
1524.03814 0.02044
1521.98970 0.01912
1519.94126 0.01803
1517.89282 0.01738
1515.84438 0.01675
1513.79595 0.01627
1511.74751 0.01592
1509.69907 0.01557
1507.65063 0.01499
1505.60219 0.01446
1503.55375 0.01436
1501.50532 0.01420
1499.45688 0.01391
1497.40844 0.01359
1495.36000 0.01341
1493.31156 0.01335
1491.26312 0.01330
1489.21469 0.01338
1487.16625 0.01381
1485.11781 0.01445
1483.06937 0.01535
1481.02093 0.01679
1478.97249 0.01855
1476.92406 0.02047
1474.87562 0.02276
1472.82718 0.02582
1470.77874 0.02837
1468.73030 0.02924
1466.68186 0.02905
1464.63343 0.02776
1462.58499 0.02606
1460.53655 0.02471
1458.48811 0.02333
1456.43967 0.02202
1454.39123 0.02163
1452.34280 0.02155
1450.29436 0.02153
1448.24592 0.02170
1446.19748 0.02236
1444.14904 0.02356
1442.10060 0.02519
1440.05217 0.02680
1438.00373 0.02801
1435.95529 0.02879
1433.90685 0.02906
1431.85841 0.02896
1429.80997 0.02852
1427.76154 0.02795
1425.71310 0.02734
1423.66466 0.02662
1421.61622 0.02590
1419.56778 0.02513
1417.51934 0.02430
1415.47091 0.02367
1413.42247 0.02290
1411.37403 0.02170
1409.32559 0.02021
1407.27715 0.01870
1405.22871 0.01721
1403.18028 0.01601
1401.13184 0.01520
1399.08340 0.01448
1397.03496 0.01382
1394.98652 0.01333
1392.93808 0.01299
1390.88965 0.01274
1388.84121 0.01250
1386.79277 0.01229
1384.74433 0.01221
1382.69589 0.01216
1380.64745 0.01204
1378.59901 0.01187
1376.55058 0.01171
1374.50214 0.01156
1372.45370 0.01143
1370.40526 0.01136
1368.35682 0.01126
1366.30838 0.01112
1364.25995 0.01098
1362.21151 0.01089
1360.16307 0.01088
1358.11463 0.01085
1356.06619 0.01078
1354.01775 0.01072
1351.96932 0.01070
1349.92088 0.01069
1347.87244 0.01067
1345.82400 0.01063
1343.77556 0.01057
1341.72712 0.01050
1339.67869 0.01046
1337.63025 0.01047
1335.58181 0.01048
1333.53337 0.01045
1331.48493 0.01038
1329.43649 0.01032
1327.38806 0.01030
1325.33962 0.01029
1323.29118 0.01025
1321.24274 0.01017
1319.19430 0.01011
1317.14586 0.01010
1315.09743 0.01013
1313.04899 0.01014
1311.00055 0.01013
1308.95211 0.01010
1306.90367 0.01007
1304.85523 0.01006
1302.80680 0.01003
1300.75836 0.00998
1298.70992 0.00992
1296.66148 0.00985
1294.61304 0.00978
1292.56460 0.00974
1290.51617 0.00971
1288.46773 0.00965
1286.41929 0.00958
1284.37085 0.00954
1282.32241 0.00952
1280.27397 0.00947
1278.22554 0.00941
1276.17710 0.00933
1274.12866 0.00923
1272.08022 0.00915
1270.03178 0.00907
1267.98334 0.00900
1265.93491 0.00897
1263.88647 0.00897
1261.83803 0.00893
1259.78959 0.00888
1257.74115 0.00883
1255.69271 0.00878
1253.64428 0.00872
1251.59584 0.00870
1249.54740 0.00865
1247.49896 0.00859
1245.45052 0.00854
1243.40208 0.00846
1241.35364 0.00837
1239.30521 0.00831
1237.25677 0.00828
1235.20833 0.00823
1233.15989 0.00818
1231.11145 0.00819
1229.06301 0.00822
1227.01458 0.00821
1224.96614 0.00815
1222.91770 0.00809
1220.86926 0.00804
1218.82082 0.00799
1216.77238 0.00794
1214.72395 0.00792
1212.67551 0.00787
1210.62707 0.00783
1208.57863 0.00781
1206.53019 0.00779
1204.48175 0.00774
1202.43332 0.00769
1200.38488 0.00770
1198.33644 0.00773
1196.28800 0.00774
1194.23956 0.00771
1192.19112 0.00766
1190.14269 0.00762
1188.09425 0.00759
1186.04581 0.00756
1183.99737 0.00754
1181.94893 0.00748
1179.90049 0.00737
1177.85206 0.00728
1175.80362 0.00722
1173.75518 0.00712
1171.70674 0.00703
1169.65830 0.00697
1167.60986 0.00692
1165.56143 0.00683
1163.51299 0.00675
1161.46455 0.00669
1159.41611 0.00662
1157.36767 0.00656
1155.31923 0.00658
1153.27080 0.00664
1151.22236 0.00666
1149.17392 0.00664
1147.12548 0.00664
1145.07704 0.00665
1143.02860 0.00664
1140.98017 0.00666
1138.93173 0.00667
1136.88329 0.00667
1134.83485 0.00666
1132.78641 0.00665
1130.73797 0.00663
1128.68954 0.00664
1126.64110 0.00666
1124.59266 0.00664
1122.54422 0.00660
1120.49578 0.00657
1118.44734 0.00655
1116.39891 0.00651
1114.35047 0.00646
1112.30203 0.00644
1110.25359 0.00640
1108.20515 0.00632
1106.15671 0.00623
1104.10827 0.00614
1102.05984 0.00607
1100.01140 0.00602
1097.96296 0.00599
1095.91452 0.00602
1093.86608 0.00612
1091.81764 0.00622
1089.76921 0.00624
1087.72077 0.00617
1085.67233 0.00610
1083.62389 0.00604
1081.57545 0.00598
1079.52701 0.00593
1077.47858 0.00588
1075.43014 0.00578
1073.38170 0.00570
1071.33326 0.00566
1069.28482 0.00563
1067.23638 0.00558
1065.18795 0.00551
1063.13951 0.00545
1061.09107 0.00543
1059.04263 0.00543
1056.99419 0.00538
1054.94575 0.00532
1052.89732 0.00531
1050.84888 0.00530
1048.80044 0.00523
1046.75200 0.00513
1044.70356 0.00508
1042.65512 0.00505
1040.60669 0.00502
1038.55825 0.00501
1036.50981 0.00501
1034.46137 0.00500
1032.41293 0.00494
1030.36449 0.00488
1028.31606 0.00483
1026.26762 0.00479
1024.21918 0.00477
1022.17074 0.00475
1020.12230 0.00469
1018.07386 0.00462
1016.02543 0.00455
1013.97699 0.00451
1011.92855 0.00447
1009.88011 0.00438
1007.83167 0.00429
1005.78323 0.00421
1003.73480 0.00413
1001.68636 0.00405
999.63792 0.00396
997.58948 0.00391
995.54104 0.00391
993.49260 0.00395
991.44417 0.00397
989.39573 0.00401
987.34729 0.00414
985.29885 0.00434
983.25041 0.00465
981.20197 0.00511
979.15354 0.00567
977.10510 0.00630
975.05666 0.00693
973.00822 0.00750
970.95978 0.00794
968.91134 0.00827
966.86290 0.00860
964.81447 0.00899
962.76603 0.00946
960.71759 0.00992
958.66915 0.01031
956.62071 0.01062
954.57227 0.01077
952.52384 0.01071
950.47540 0.01038
948.42696 0.00983
946.37852 0.00917
944.33008 0.00855
942.28164 0.00803
940.23321 0.00757
938.18477 0.00718
936.13633 0.00689
934.08789 0.00661
932.03945 0.00634
929.99101 0.00613
927.94258 0.00599
925.89414 0.00589
923.84570 0.00574
921.79726 0.00556
919.74882 0.00541
917.70038 0.00530
915.65195 0.00521
913.60351 0.00511
911.55507 0.00501
909.50663 0.00488
907.45819 0.00478
905.40975 0.00473
903.36132 0.00472
901.31288 0.00468
899.26444 0.00461
897.21600 0.00450
895.16756 0.00440
893.11912 0.00432
891.07069 0.00425
889.02225 0.00421
886.97381 0.00417
884.92537 0.00410
882.87693 0.00402
880.82849 0.00390
878.78006 0.00375
876.73162 0.00362
874.68318 0.00355
872.63474 0.00355
870.58630 0.00357
868.53786 0.00358
866.48943 0.00369
864.44099 0.00396
862.39255 0.00445
860.34411 0.00516
858.29567 0.00602
856.24723 0.00686
854.19880 0.00755
852.15036 0.00797
850.10192 0.00803
848.05348 0.00781
846.00504 0.00767
843.95660 0.00784
841.90817 0.00814
839.85973 0.00832
837.81129 0.00828
835.76285 0.00805
833.71441 0.00772
831.66597 0.00736
829.61753 0.00706
827.56910 0.00678
825.52066 0.00647
823.47222 0.00624
821.42378 0.00627
819.37534 0.00670
817.32690 0.00734
815.27847 0.00777
813.23003 0.00784
811.18159 0.00763
809.13315 0.00734
807.08471 0.00708
805.03627 0.00686
802.98784 0.00666
800.93940 0.00654
798.89096 0.00651
796.84252 0.00642
794.79408 0.00624
792.74564 0.00610
790.69721 0.00601
788.64877 0.00586
786.60033 0.00567
784.55189 0.00561
782.50345 0.00559
780.45501 0.00547
778.40658 0.00531
776.35814 0.00521
774.30970 0.00530
772.26126 0.00558
770.21282 0.00594
768.16438 0.00624
766.11595 0.00633
764.06751 0.00628
762.01907 0.00620
759.97063 0.00619
757.92219 0.00613
755.87375 0.00594
753.82532 0.00571
751.77688 0.00551
749.72844 0.00543
747.68000 0.00544
745.63156 0.00542
743.58312 0.00535
741.53469 0.00544
739.48625 0.00564
737.43781 0.00574
735.38937 0.00573
733.34093 0.00575
731.29249 0.00577
729.24406 0.00564
727.19562 0.00546
725.14718 0.00535
723.09874 0.00539
721.05030 0.00560
719.00186 0.00575
716.95343 0.00575
714.90499 0.00577
712.85655 0.00574
710.80811 0.00565
708.75967 0.00557
706.71123 0.00547
704.66280 0.00542
702.61436 0.00551
700.56592 0.00566
698.51748 0.00572
696.46904 0.00567
694.42060 0.00559
692.37216 0.00562
690.32373 0.00575
688.27529 0.00590
686.22685 0.00595
684.17841 0.00581
682.12997 0.00570
680.08153 0.00577
678.03310 0.00585
675.98466 0.00588
673.93622 0.00595
671.88778 0.00616
669.83934 0.00646
667.79090 0.00640
665.74247 0.00614
663.69403 0.00605
661.64559 0.00598
659.59715 0.00592
657.54871 0.00577
655.50027 0.00570
653.45184 0.00598
651.40340 0.00622
649.35496 0.00618
647.30652 0.00606
645.25808 0.00613
643.20964 0.00633
641.16121 0.00637
639.11277 0.00584
637.06433 0.00503
635.01589 0.00483
632.96745 0.00488
630.91901 0.00473
628.87058 0.00495
626.82214 0.00557
624.77370 0.00592
622.72526 0.00556
620.67682 0.00502
618.62838 0.00496
616.57995 0.00519
614.53151 0.00556
612.48307 0.00647
610.43463 0.00755
608.38619 0.00813
606.33775 0.00802
604.28932 0.00726
602.24088 0.00650
600.19244 0.00638
598.14400 0.00635
