3996.50324 1.45847
3994.45480 1.45941
3992.40636 1.46040
3990.35792 1.46171
3988.30948 1.46295
3986.26104 1.46427
3984.21261 1.46621
3982.16417 1.46809
3980.11573 1.46967
3978.06729 1.47199
3976.01885 1.47464
3973.97041 1.47647
3971.92198 1.47785
3969.87354 1.47847
3967.82510 1.47774
3965.77666 1.47636
3963.72822 1.47547
3961.67978 1.47555
3959.63135 1.47540
3957.58291 1.47474
3955.53447 1.47435
3953.48603 1.47367
3951.43759 1.47291
3949.38915 1.47298
3947.34072 1.47357
3945.29228 1.47449
3943.24384 1.47519
3941.19540 1.47455
3939.14696 1.47348
3937.09852 1.47355
3935.05009 1.47511
3933.00165 1.47740
3930.95321 1.47907
3928.90477 1.47962
3926.85633 1.48068
3924.80789 1.48327
3922.75946 1.48567
3920.71102 1.48700
3918.66258 1.48813
3916.61414 1.48871
3914.56570 1.48765
3912.51726 1.48580
3910.46883 1.48481
3908.42039 1.48503
3906.37195 1.48639
3904.32351 1.48932
3902.27507 1.49342
3900.22663 1.49676
3898.17820 1.49720
3896.12976 1.49733
3894.08132 1.49968
3892.03288 1.50275
3889.98444 1.50507
3887.93600 1.50806
3885.88756 1.51177
3883.83913 1.51420
3881.79069 1.51483
3879.74225 1.51443
3877.69381 1.51527
3875.64537 1.51749
3873.59693 1.51885
3871.54850 1.51757
3869.50006 1.51218
3867.45162 1.50730
3865.40318 1.50563
3863.35474 1.50310
3861.30630 1.49941
3859.25787 1.49810
3857.20943 1.50006
3855.16099 1.50412
3853.11255 1.50603
3851.06411 1.50351
3849.01567 1.50171
3846.96724 1.50074
3844.91880 1.50108
3842.87036 1.50419
3840.82192 1.50861
3838.77348 1.50981
3836.72504 1.50827
3834.67661 1.50874
3832.62817 1.50908
3830.57973 1.50791
3828.53129 1.50784
3826.48285 1.50861
3824.43441 1.50867
3822.38598 1.50968
3820.33754 1.51053
3818.28910 1.50756
3816.24066 1.50084
3814.19222 1.49398
3812.14378 1.49151
3810.09535 1.49147
3808.04691 1.49189
3805.99847 1.49264
3803.95003 1.49503
3801.90159 1.49789
3799.85315 1.49727
3797.80472 1.49417
3795.75628 1.49130
3793.70784 1.49028
3791.65940 1.49008
3789.61096 1.48898
3787.56252 1.48719
3785.51409 1.48645
3783.46565 1.48712
3781.41721 1.48818
3779.36877 1.48925
3777.32033 1.48893
3775.27189 1.48785
3773.22346 1.48823
3771.17502 1.49031
3769.12658 1.49203
3767.07814 1.49231
3765.02970 1.49215
3762.98126 1.49190
3760.93283 1.49221
3758.88439 1.49375
3756.83595 1.49594
3754.78751 1.49909
3752.73907 1.50484
3750.69063 1.51156
3748.64219 1.51189
3746.59376 1.50942
3744.54532 1.50983
3742.49688 1.51363
3740.44844 1.51675
3738.40000 1.51961
3736.35156 1.52252
3734.30313 1.52252
3732.25469 1.52058
3730.20625 1.51923
3728.15781 1.51864
3726.10937 1.51880
3724.06093 1.51958
3722.01250 1.51982
3719.96406 1.51852
3717.91562 1.51750
3715.86718 1.51850
3713.81874 1.52168
3711.77030 1.52566
3709.72187 1.52584
3707.67343 1.52328
3705.62499 1.52226
3703.57655 1.52329
3701.52811 1.52351
3699.47967 1.52119
3697.43124 1.51963
3695.38280 1.52044
3693.33436 1.52262
3691.28592 1.52624
3689.23748 1.53106
3687.18904 1.53369
3685.14061 1.53434
3683.09217 1.53640
3681.04373 1.54220
3678.99529 1.55068
3676.94685 1.56008
3674.89841 1.56804
3672.84998 1.57149
3670.80154 1.57433
3668.75310 1.57506
3666.70466 1.57408
3664.65622 1.57523
3662.60778 1.57855
3660.55935 1.58367
3658.51091 1.59007
3656.46247 1.59611
3654.41403 1.60070
3652.36559 1.60673
3650.31715 1.61736
3648.26872 1.62580
3646.22028 1.62617
3644.17184 1.62662
3642.12340 1.63003
3640.07496 1.63640
3638.02652 1.64372
3635.97809 1.65120
3633.92965 1.65853
3631.88121 1.66484
3629.83277 1.67409
3627.78433 1.68781
3625.73589 1.69608
3623.68746 1.70275
3621.63902 1.71153
3619.59058 1.72248
3617.54214 1.73242
3615.49370 1.73965
3613.44526 1.74516
3611.39682 1.74976
3609.34839 1.75582
3607.29995 1.76419
3605.25151 1.77294
3603.20307 1.78155
3601.15463 1.79004
3599.10619 1.79778
3597.05776 1.80646
3595.00932 1.81559
3592.96088 1.82331
3590.91244 1.83143
3588.86400 1.84248
3586.81556 1.85216
3584.76713 1.85659
3582.71869 1.86181
3580.67025 1.86866
3578.62181 1.87518
3576.57337 1.88144
3574.52493 1.88862
3572.47650 1.89705
3570.42806 1.90714
3568.37962 1.91801
3566.33118 1.92329
3564.28274 1.92223
3562.23430 1.92445
3560.18587 1.92978
3558.13743 1.93447
3556.08899 1.94061
3554.04055 1.94987
3551.99211 1.95824
3549.94367 1.96252
3547.89524 1.96776
3545.84680 1.97814
3543.79836 1.98726
3541.74992 1.99048
3539.70148 1.99260
3537.65304 1.99548
3535.60461 1.99872
3533.55617 2.00341
3531.50773 2.00778
3529.45929 2.00994
3527.41085 2.01460
3525.36241 2.02417
3523.31398 2.03142
3521.26554 2.03509
3519.21710 2.04009
3517.16866 2.04438
3515.12022 2.04608
3513.07178 2.04893
3511.02335 2.05219
3508.97491 2.05566
3506.92647 2.05996
3504.87803 2.06380
3502.82959 2.06846
3500.78115 2.07209
3498.73272 2.07396
3496.68428 2.07469
3494.63584 2.07666
3492.58740 2.08074
3490.53896 2.08297
3488.49052 2.08510
3486.44209 2.08999
3484.39365 2.09397
3482.34521 2.09722
3480.29677 2.10086
3478.24833 2.10074
3476.19989 2.09963
3474.15146 2.10227
3472.10302 2.10512
3470.05458 2.10563
3468.00614 2.10913
3465.95770 2.11531
3463.90926 2.11791
3461.86082 2.11913
3459.81239 2.12321
3457.76395 2.12801
3455.71551 2.12985
3453.66707 2.12900
3451.61863 2.12913
3449.57019 2.13263
3447.52176 2.13825
3445.47332 2.14273
3443.42488 2.14305
3441.37644 2.13797
3439.32800 2.12432
3437.27956 2.10082
3435.23113 2.07811
3433.18269 2.06693
3431.13425 2.06803
3429.08581 2.07688
3427.03737 2.08655
3424.98893 2.09348
3422.94050 2.09951
3420.89206 2.10495
3418.84362 2.10937
3416.79518 2.11471
3414.74674 2.11841
3412.69830 2.11786
3410.64987 2.11759
3408.60143 2.11960
3406.55299 2.12203
3404.50455 2.12526
3402.45611 2.12987
3400.40767 2.13371
3398.35924 2.13319
3396.31080 2.13071
3394.26236 2.13234
3392.21392 2.13752
3390.16548 2.14157
3388.11704 2.14239
3386.06861 2.14193
3384.02017 2.14149
3381.97173 2.14128
3379.92329 2.14215
3377.87485 2.14154
3375.82641 2.13880
3373.77798 2.13849
3371.72954 2.14141
3369.68110 2.14284
3367.63266 2.14159
3365.58422 2.14082
3363.53578 2.14205
3361.48735 2.14364
3359.43891 2.14393
3357.39047 2.14501
3355.34203 2.14459
3353.29359 2.13877
3351.24515 2.13413
3349.19672 2.13875
3347.14828 2.14656
3345.09984 2.14793
3343.05140 2.14597
3341.00296 2.14408
3338.95452 2.14304
3336.90609 2.14265
3334.85765 2.13986
3332.80921 2.13691
3330.76077 2.13734
3328.71233 2.13955
3326.66389 2.13955
3324.61545 2.13726
3322.56702 2.13611
3320.51858 2.13522
3318.47014 2.13291
3316.42170 2.13207
3314.37326 2.13456
3312.32482 2.13664
3310.27639 2.13623
3308.22795 2.13653
3306.17951 2.13692
3304.13107 2.13431
3302.08263 2.12899
3300.03419 2.12618
3297.98576 2.12888
3295.93732 2.13108
3293.88888 2.13028
3291.84044 2.12998
3289.79200 2.13084
3287.74356 2.12953
3285.69513 2.12502
3283.64669 2.12261
3281.59825 2.12343
3279.54981 2.12237
3277.50137 2.12053
3275.45293 2.12160
3273.40450 2.12407
3271.35606 2.12632
3269.30762 2.12563
3267.25918 2.12029
3265.21074 2.11566
3263.16230 2.11615
3261.11387 2.11812
3259.06543 2.11840
3257.01699 2.11839
3254.96855 2.11759
3252.92011 2.11715
3250.87167 2.11802
3248.82324 2.11699
3246.77480 2.11286
3244.72636 2.10846
3242.67792 2.10768
3240.62948 2.10952
3238.58104 2.11106
3236.53261 2.11075
3234.48417 2.10714
3232.43573 2.10376
3230.38729 2.10385
3228.33885 2.10466
3226.29041 2.10484
3224.24198 2.10521
3222.19354 2.10432
3220.14510 2.10191
3218.09666 2.10139
3216.04822 2.10309
3213.99978 2.10256
3211.95135 2.09845
3209.90291 2.09470
3207.85447 2.09408
3205.80603 2.09300
3203.75759 2.08973
3201.70915 2.08903
3199.66072 2.09077
3197.61228 2.09151
3195.56384 2.09250
3193.51540 2.09299
3191.46696 2.08982
3189.41852 2.08540
3187.37008 2.08327
3185.32165 2.08171
3183.27321 2.07825
3181.22477 2.07489
3179.17633 2.07558
3177.12789 2.07919
3175.07945 2.08078
3173.03102 2.07921
3170.98258 2.07671
3168.93414 2.07507
3166.88570 2.07389
3164.83726 2.07181
3162.78882 2.06989
3160.74039 2.06878
3158.69195 2.06684
3156.64351 2.06591
3154.59507 2.06793
3152.54663 2.06841
3150.49819 2.06517
3148.44976 2.06190
3146.40132 2.06042
3144.35288 2.06073
3142.30444 2.06143
3140.25600 2.06090
3138.20756 2.06012
3136.15913 2.05896
3134.11069 2.05755
3132.06225 2.05740
3130.01381 2.05730
3127.96537 2.05696
3125.91693 2.05681
3123.86850 2.05509
3121.82006 2.05366
3119.77162 2.05369
3117.72318 2.05205
3115.67474 2.04873
3113.62630 2.04471
3111.57787 2.04143
3109.52943 2.04176
3107.48099 2.04450
3105.43255 2.04499
3103.38411 2.04153
3101.33567 2.03753
3099.28724 2.03590
3097.23880 2.03536
3095.19036 2.03426
3093.14192 2.03302
3091.09348 2.03198
3089.04504 2.03072
3086.99661 2.03048
3084.94817 2.03163
3082.89973 2.03200
3080.85129 2.03048
3078.80285 2.02769
3076.75441 2.02586
3074.70598 2.02601
3072.65754 2.02530
3070.60910 2.02230
3068.56066 2.02011
3066.51222 2.02067
3064.46378 2.02131
3062.41535 2.01988
3060.36691 2.01724
3058.31847 2.01510
3056.27003 2.01455
3054.22159 2.01399
3052.17315 2.01197
3050.12471 2.01010
3048.07628 2.01017
3046.02784 2.01065
3043.97940 2.00967
3041.93096 2.00883
3039.88252 2.00875
3037.83408 2.00844
3035.78565 2.00922
3033.73721 2.01135
3031.68877 2.01205
3029.64033 2.01066
3027.59189 2.00964
3025.54345 2.00926
3023.49502 2.00686
3021.44658 2.00331
3019.39814 2.00251
3017.34970 2.00433
3015.30126 2.00682
3013.25282 2.00883
3011.20439 2.00786
3009.15595 2.00423
3007.10751 2.00150
3005.05907 2.00030
3003.01063 1.99837
3000.96219 1.99637
2998.91376 1.99672
2996.86532 1.99825
2994.81688 1.99892
2992.76844 1.99872
2990.72000 1.99794
2988.67156 1.99792
2986.62313 1.99896
2984.57469 1.99938
2982.52625 1.99973
2980.47781 2.00111
2978.42937 2.00134
2976.38093 1.99945
2974.33250 1.99868
2972.28406 2.00066
2970.23562 2.00403
2968.18718 2.00660
2966.13874 2.00774
2964.09030 2.00914
2962.04187 2.01068
2959.99343 2.01191
2957.94499 2.01339
2955.89655 2.01335
2953.84811 2.01099
2951.79967 2.00893
2949.75124 2.00973
2947.70280 2.01290
2945.65436 2.01554
2943.60592 2.01651
2941.55748 2.01787
2939.50904 2.02139
2937.46061 2.02517
2935.41217 2.02670
2933.36373 2.02811
2931.31529 2.03222
2929.26685 2.03675
2927.21841 2.03818
2925.16998 2.03643
2923.12154 2.03252
2921.07310 2.02777
2919.02466 2.02288
2916.97622 2.01647
2914.92778 2.00829
2912.87934 2.00049
2910.83091 1.99511
2908.78247 1.99152
2906.73403 1.98839
2904.68559 1.98564
2902.63715 1.98171
2900.58871 1.97501
2898.54028 1.96893
2896.49184 1.96728
2894.44340 1.96798
2892.39496 1.96707
2890.34652 1.96406
2888.29808 1.96083
2886.24965 1.95877
2884.20121 1.95700
2882.15277 1.95466
2880.10433 1.95380
2878.05589 1.95424
2876.00745 1.95346
2873.95902 1.95306
2871.91058 1.95363
2869.86214 1.95264
2867.81370 1.95133
2865.76526 1.95248
2863.71682 1.95478
2861.66839 1.95678
2859.61995 1.95978
2857.57151 1.96321
2855.52307 1.96479
2853.47463 1.96460
2851.42619 1.96251
2849.37776 1.95663
2847.32932 1.94800
2845.28088 1.93884
2843.23244 1.92992
2841.18400 1.92296
2839.13556 1.91854
2837.08713 1.91478
2835.03869 1.91012
2832.99025 1.90546
2830.94181 1.90255
2828.89337 1.90088
2826.84493 1.89934
2824.79650 1.89734
2822.74806 1.89440
2820.69962 1.89072
2818.65118 1.88611
2816.60274 1.88071
2814.55430 1.87571
2812.50587 1.87265
2810.45743 1.87090
2808.40899 1.86848
2806.36055 1.86582
2804.31211 1.86307
2802.26367 1.85968
2800.21524 1.85658
2798.16680 1.85388
2796.11836 1.85126
2794.06992 1.84897
2792.02148 1.84676
2789.97304 1.84414
2787.92461 1.84092
2785.87617 1.83697
2783.82773 1.83269
2781.77929 1.82996
2779.73085 1.82927
2777.68241 1.82876
2775.63397 1.82777
2773.58554 1.82629
2771.53710 1.82420
2769.48866 1.82199
2767.44022 1.81980
2765.39178 1.81786
2763.34334 1.81601
2761.29491 1.81347
2759.24647 1.81123
2757.19803 1.81033
2755.14959 1.80883
2753.10115 1.80604
2751.05271 1.80406
2749.00428 1.80325
2746.95584 1.80209
2744.90740 1.80013
2742.85896 1.79766
2740.81052 1.79477
2738.76208 1.79260
2736.71365 1.79220
2734.66521 1.79220
2732.61677 1.79050
2730.56833 1.78781
2728.51989 1.78606
2726.47145 1.78456
2724.42302 1.78222
2722.37458 1.77989
2720.32614 1.77832
2718.27770 1.77712
2716.22926 1.77566
2714.18082 1.77399
2712.13239 1.77257
2710.08395 1.77142
2708.03551 1.77036
2705.98707 1.76884
2703.93863 1.76640
2701.89019 1.76380
2699.84176 1.76223
2697.79332 1.76212
2695.74488 1.76266
2693.69644 1.76200
2691.64800 1.76032
2689.59956 1.75962
2687.55113 1.75952
2685.50269 1.75936
2683.45425 1.76009
2681.40581 1.76117
2679.35737 1.76114
2677.30893 1.76029
2675.26050 1.76001
2673.21206 1.76152
2671.16362 1.76399
2669.11518 1.76542
2667.06674 1.76577
2665.01830 1.76564
2662.96987 1.76496
2660.92143 1.76459
2658.87299 1.76518
2656.82455 1.76563
2654.77611 1.76552
2652.72767 1.76577
2650.67924 1.76576
2648.63080 1.76476
2646.58236 1.76363
2644.53392 1.76283
2642.48548 1.76230
2640.43704 1.76233
2638.38860 1.76272
2636.34017 1.76262
2634.29173 1.76220
2632.24329 1.76168
2630.19485 1.76123
2628.14641 1.76111
2626.09797 1.76070
2624.04954 1.76020
2622.00110 1.75966
2619.95266 1.75926
2617.90422 1.75983
2615.85578 1.76019
2613.80734 1.76003
2611.75891 1.76062
2609.71047 1.76109
2607.66203 1.76021
2605.61359 1.75861
2603.56515 1.75754
2601.51671 1.75749
2599.46828 1.75807
2597.41984 1.75911
2595.37140 1.75988
2593.32296 1.75922
2591.27452 1.75810
2589.22608 1.75729
2587.17765 1.75576
2585.12921 1.75414
2583.08077 1.75327
2581.03233 1.75230
2578.98389 1.75120
2576.93545 1.75057
2574.88702 1.75061
2572.83858 1.75134
2570.79014 1.75222
2568.74170 1.75305
2566.69326 1.75402
2564.64482 1.75458
2562.59639 1.75433
2560.54795 1.75396
2558.49951 1.75429
2556.45107 1.75556
2554.40263 1.75707
2552.35419 1.75727
2550.30576 1.75634
2548.25732 1.75593
2546.20888 1.75642
2544.16044 1.75658
2542.11200 1.75567
2540.06356 1.75527
2538.01513 1.75576
2535.96669 1.75611
2533.91825 1.75675
2531.86981 1.75764
2529.82137 1.75808
2527.77293 1.75781
2525.72450 1.75782
2523.67606 1.75888
2521.62762 1.75896
2519.57918 1.75713
2517.53074 1.75536
2515.48230 1.75481
2513.43387 1.75537
2511.38543 1.75688
2509.33699 1.75836
2507.28855 1.75843
2505.24011 1.75728
2503.19167 1.75581
2501.14324 1.75490
2499.09480 1.75491
2497.04636 1.75458
2494.99792 1.75355
2492.94948 1.75272
2490.90104 1.75192
2488.85260 1.75091
2486.80417 1.75034
2484.75573 1.75024
2482.70729 1.74953
2480.65885 1.74796
2478.61041 1.74667
2476.56197 1.74591
2474.51354 1.74528
2472.46510 1.74460
2470.41666 1.74270
2468.36822 1.73969
2466.31978 1.73790
2464.27134 1.73721
2462.22291 1.73544
2460.17447 1.73324
2458.12603 1.73242
2456.07759 1.73213
2454.02915 1.73062
2451.98071 1.72787
2449.93228 1.72503
2447.88384 1.72319
2445.83540 1.72242
2443.78696 1.72114
2441.73852 1.71868
2439.69008 1.71650
2437.64165 1.71545
2435.59321 1.71461
2433.54477 1.71352
2431.49633 1.71303
2429.44789 1.71329
2427.39945 1.71377
2425.35102 1.71367
2423.30258 1.71298
2421.25414 1.71287
2419.20570 1.71278
2417.15726 1.71181
2415.10882 1.71037
2413.06039 1.70891
2411.01195 1.70779
2408.96351 1.70692
2406.91507 1.70658
2404.86663 1.70599
2402.81819 1.70490
2400.76976 1.70527
2398.72132 1.70570
2396.67288 1.70455
2394.62444 1.70427
2392.57600 1.70540
2390.52756 1.70623
2388.47913 1.70668
2386.43069 1.70735
2384.38225 1.70820
2382.33381 1.70917
2380.28537 1.71107
2378.23693 1.71461
2376.18850 1.71864
2374.14006 1.72191
2372.09162 1.72516
2370.04318 1.72920
2367.99474 1.73379
2365.94630 1.73691
2363.89787 1.73635
2361.84943 1.73466
2359.80099 1.73519
2357.75255 1.73605
2355.70411 1.73368
2353.65567 1.73025
2351.60723 1.72828
2349.55880 1.72673
2347.51036 1.72752
2345.46192 1.73148
2343.41348 1.73282
2341.36504 1.73065
2339.31660 1.72969
2337.26817 1.72942
2335.21973 1.73163
2333.17129 1.73750
2331.12285 1.74222
2329.07441 1.74277
2327.02597 1.74098
2324.97754 1.73932
2322.92910 1.73936
2320.88066 1.74083
2318.83222 1.74190
2316.78378 1.74158
2314.73534 1.74090
2312.68691 1.74117
2310.63847 1.74223
2308.59003 1.74225
2306.54159 1.74059
2304.49315 1.73977
2302.44471 1.74091
2300.39628 1.74247
2298.34784 1.74402
2296.29940 1.74573
2294.25096 1.74663
2292.20252 1.74651
2290.15408 1.74596
2288.10565 1.74567
2286.05721 1.74698
2284.00877 1.74923
2281.96033 1.75048
2279.91189 1.75200
2277.86345 1.75460
2275.81502 1.75587
2273.76658 1.75551
2271.71814 1.75542
2269.66970 1.75611
2267.62126 1.75759
2265.57282 1.75947
2263.52439 1.76130
2261.47595 1.76317
2259.42751 1.76427
2257.37907 1.76358
2255.33063 1.76195
2253.28219 1.76080
2251.23376 1.75969
2249.18532 1.75884
2247.13688 1.75966
2245.08844 1.76197
2243.04000 1.76401
2240.99156 1.76478
2238.94313 1.76581
2236.89469 1.76744
2234.84625 1.76801
2232.79781 1.76804
2230.74937 1.76825
2228.70093 1.76790
2226.65250 1.76718
2224.60406 1.76676
2222.55562 1.76711
2220.50718 1.76817
2218.45874 1.76862
2216.41030 1.76830
2214.36186 1.76885
2212.31343 1.77050
2210.26499 1.77272
2208.21655 1.77508
2206.16811 1.77591
2204.11967 1.77495
2202.07123 1.77381
2200.02280 1.77349
2197.97436 1.77405
2195.92592 1.77477
2193.87748 1.77464
2191.82904 1.77305
2189.78060 1.77141
2187.73217 1.77176
2185.68373 1.77352
2183.63529 1.77466
2181.58685 1.77444
2179.53841 1.77371
2177.48997 1.77341
2175.44154 1.77372
2173.39310 1.77362
2171.34466 1.77285
2169.29622 1.77240
2167.24778 1.77162
2165.19934 1.76935
2163.15091 1.76698
2161.10247 1.76622
2159.05403 1.76610
2157.00559 1.76511
2154.95715 1.76355
2152.90871 1.76216
2150.86028 1.76103
2148.81184 1.76020
2146.76340 1.75924
2144.71496 1.75743
2142.66652 1.75502
2140.61808 1.75278
2138.56965 1.75104
2136.52121 1.74983
2134.47277 1.74887
2132.42433 1.74769
2130.37589 1.74592
2128.32745 1.74423
2126.27902 1.74373
2124.23058 1.74385
2122.18214 1.74345
2120.13370 1.74234
2118.08526 1.74128
2116.03682 1.74091
2113.98839 1.74060
2111.93995 1.74017
2109.89151 1.74028
2107.84307 1.74035
2105.79463 1.73909
2103.74619 1.73744
2101.69776 1.73679
2099.64932 1.73694
2097.60088 1.73778
2095.55244 1.73850
2093.50400 1.73865
2091.45556 1.73862
2089.40713 1.73777
2087.35869 1.73653
2085.31025 1.73646
2083.26181 1.73719
2081.21337 1.73781
2079.16493 1.73893
2077.11649 1.74019
2075.06806 1.74075
2073.01962 1.74124
2070.97118 1.74203
2068.92274 1.74329
2066.87430 1.74507
2064.82586 1.74683
2062.77743 1.74822
2060.72899 1.74986
2058.68055 1.75224
2056.63211 1.75419
2054.58367 1.75566
2052.53523 1.75745
2050.48680 1.75854
2048.43836 1.75858
2046.38992 1.75841
2044.34148 1.75863
2042.29304 1.75970
2040.24460 1.76114
2038.19617 1.76175
2036.14773 1.76116
2034.09929 1.76045
2032.05085 1.75988
2030.00241 1.75903
2027.95397 1.75879
2025.90554 1.75908
2023.85710 1.75913
2021.80866 1.75960
2019.76022 1.76021
2017.71178 1.75995
2015.66334 1.75952
2013.61491 1.76002
2011.56647 1.76154
2009.51803 1.76344
2007.46959 1.76478
2005.42115 1.76544
2003.37271 1.76625
2001.32428 1.76721
1999.27584 1.76789
1997.22740 1.76902
1995.17896 1.77107
1993.13052 1.77317
1991.08208 1.77480
1989.03365 1.77590
1986.98521 1.77690
1984.93677 1.77845
1982.88833 1.78050
1980.83989 1.78293
1978.79145 1.78526
1976.74302 1.78748
1974.69458 1.78970
1972.64614 1.79131
1970.59770 1.79243
1968.54926 1.79460
1966.50082 1.79846
1964.45239 1.80171
1962.40395 1.80388
1960.35551 1.80622
1958.30707 1.80808
1956.25863 1.80983
1954.21019 1.81215
1952.16176 1.81437
1950.11332 1.81677
1948.06488 1.81917
1946.01644 1.82114
1943.96800 1.82339
1941.91956 1.82562
1939.87112 1.82698
1937.82269 1.82730
1935.77425 1.82724
1933.72581 1.82759
1931.67737 1.82874
1929.62893 1.83087
1927.58049 1.83279
1925.53206 1.83373
1923.48362 1.83485
1921.43518 1.83702
1919.38674 1.83909
1917.33830 1.84014
1915.28986 1.84083
1913.24143 1.84210
1911.19299 1.84417
1909.14455 1.84620
1907.09611 1.84715
1905.04767 1.84747
1902.99923 1.84816
1900.95080 1.84940
1898.90236 1.85090
1896.85392 1.85222
1894.80548 1.85360
1892.75704 1.85582
1890.70860 1.85855
1888.66017 1.86107
1886.61173 1.86354
1884.56329 1.86552
1882.51485 1.86608
1880.46641 1.86570
1878.41797 1.86509
1876.36954 1.86522
1874.32110 1.86705
1872.27266 1.86974
1870.22422 1.87221
1868.17578 1.87478
1866.12734 1.87680
1864.07891 1.87669
1862.03047 1.87523
1859.98203 1.87473
1857.93359 1.87605
1855.88515 1.87775
1853.83671 1.87845
1851.78828 1.87802
1849.73984 1.87734
1847.69140 1.87754
1845.64296 1.87938
1843.59452 1.88118
1841.54608 1.88064
1839.49765 1.88033
1837.44921 1.88149
1835.40077 1.88204
1833.35233 1.88181
1831.30389 1.88400
1829.25545 1.88837
1827.20702 1.88946
1825.15858 1.88738
1823.11014 1.88526
1821.06170 1.88453
1819.01326 1.88453
1816.96482 1.88429
1814.91639 1.88405
1812.86795 1.88491
1810.81951 1.88618
1808.77107 1.88611
1806.72263 1.88603
1804.67419 1.88711
1802.62575 1.88876
1800.57732 1.89039
1798.52888 1.89202
1796.48044 1.89390
1794.43200 1.89524
1792.38356 1.89538
1790.33512 1.89580
1788.28669 1.89776
1786.23825 1.90067
1784.18981 1.90389
1782.14137 1.90663
1780.09293 1.90869
1778.04449 1.91032
1775.99606 1.91183
1773.94762 1.91387
1771.89918 1.91635
1769.85074 1.91872
1767.80230 1.92097
1765.75386 1.92314
1763.70543 1.92589
1761.65699 1.93007
1759.60855 1.93607
1757.56011 1.94622
1755.51167 1.95969
1753.46323 1.97173
1751.41480 1.98536
1749.36636 2.00291
1747.31792 2.01610
1745.26948 2.02332
1743.22104 2.02842
1741.17260 2.03046
1739.12417 2.02863
1737.07573 2.02533
1735.02729 2.01968
1732.97885 2.01260
1730.93041 2.00900
1728.88197 2.00522
1726.83354 2.00064
1724.78510 1.99696
1722.73666 1.99493
1720.68822 1.99408
1718.63978 1.99443
1716.59134 1.99656
1714.54291 1.99860
1712.49447 2.00092
1710.44603 2.00387
1708.39759 2.00786
1706.34915 2.01361
1704.30071 2.01829
1702.25228 2.02099
1700.20384 2.02856
1698.15540 2.04051
1696.10696 2.04714
1694.05852 2.05216
1692.01008 2.06037
1689.96165 2.07104
1687.91321 2.07926
1685.86477 2.08616
1683.81633 2.09858
1681.76789 2.10531
1679.71945 2.10591
1677.67102 2.10750
1675.62258 2.11126
1673.57414 2.11603
1671.52570 2.12065
1669.47726 2.12455
1667.42882 2.12582
1665.38038 2.12608
1663.33195 2.12710
1661.28351 2.12834
1659.23507 2.13017
1657.18663 2.13397
1655.13819 2.14046
1653.08975 2.14629
1651.04132 2.14592
1648.99288 2.14770
1646.94444 2.15050
1644.89600 2.14770
1642.84756 2.14346
1640.79912 2.14139
1638.75069 2.14155
1636.70225 2.14339
1634.65381 2.14405
1632.60537 2.14503
1630.55693 2.14796
1628.50849 2.15095
1626.46006 2.15242
1624.41162 2.15313
1622.36318 2.15222
1620.31474 2.14953
1618.26630 2.14729
1616.21786 2.14164
1614.16943 2.13071
1612.12099 2.12000
1610.07255 2.11093
1608.02411 2.10229
1605.97567 2.09331
1603.92723 2.08461
1601.87880 2.07635
1599.83036 2.06758
1597.78192 2.05712
1595.73348 2.04464
1593.68504 2.02995
1591.63660 2.01410
1589.58817 1.99666
1587.53973 1.97651
1585.49129 1.95311
1583.44285 1.92466
1581.39441 1.89078
1579.34597 1.85648
1577.29754 1.81224
1575.24910 1.75325
1573.20066 1.71781
1571.15222 1.69656
1569.10378 1.67344
1567.05534 1.65590
1565.00691 1.64523
1562.95847 1.63785
1560.91003 1.63418
1558.86159 1.63120
1556.81315 1.62473
1554.76471 1.61715
1552.71628 1.60987
1550.66784 1.60458
1548.61940 1.60100
1546.57096 1.59998
1544.52252 1.60129
1542.47408 1.60279
1540.42565 1.60114
1538.37721 1.59681
1536.32877 1.59498
1534.28033 1.59870
1532.23189 1.60871
1530.18345 1.62051
1528.13501 1.63734
1526.08658 1.66271
1524.03814 1.68948
1521.98970 1.71841
1519.94126 1.74402
1517.89282 1.76001
1515.84438 1.77610
1513.79595 1.78871
1511.74751 1.79793
1509.69907 1.80785
1507.65063 1.82423
1505.60219 1.83977
1503.55375 1.84290
1501.50532 1.84784
1499.45688 1.85664
1497.40844 1.86671
1495.36000 1.87271
1493.31156 1.87454
1491.26312 1.87605
1489.21469 1.87361
1487.16625 1.85975
1485.11781 1.84016
1483.06937 1.81378
1481.02093 1.77489
1478.97249 1.73165
1476.92406 1.68888
1474.87562 1.64291
1472.82718 1.58805
1470.77874 1.54715
1468.73030 1.53396
1466.68186 1.53682
1464.63343 1.55664
1462.58499 1.58403
1460.53655 1.60716
1458.48811 1.63203
1456.43967 1.65719
1454.39123 1.66492
1452.34280 1.66658
1450.29436 1.66700
1448.24592 1.66344
1446.19748 1.65058
1444.14904 1.62784
1442.10060 1.59874
1440.05217 1.57193
1438.00373 1.55265
1435.95529 1.54074
1433.90685 1.53671
1431.85841 1.53820
1429.80997 1.54480
1427.76154 1.55361
1425.71310 1.56316
1423.66466 1.57483
1421.61622 1.58663
1419.56778 1.59989
1417.51934 1.61446
1415.47091 1.62583
1413.42247 1.64025
1411.37403 1.66351
1409.32559 1.69447
1407.27715 1.72816
1405.22871 1.76411
1403.18028 1.79560
1401.13184 1.81809
1399.08340 1.83932
1397.03496 1.85962
1394.98652 1.87512
1392.93808 1.88627
1390.88965 1.89479
1388.84121 1.90316
1386.79277 1.91040
1384.74433 1.91335
1382.69589 1.91516
1380.64745 1.91922
1378.59901 1.92543
1376.55058 1.93140
1374.50214 1.93720
1372.45370 1.94182
1370.40526 1.94462
1368.35682 1.94849
1366.30838 1.95400
1364.25995 1.95954
1362.21151 1.96296
1360.16307 1.96350
1358.11463 1.96438
1356.06619 1.96734
1354.01775 1.96983
1351.96932 1.97067
1349.92088 1.97095
1347.87244 1.97181
1345.82400 1.97365
1343.77556 1.97593
1341.72712 1.97871
1339.67869 1.98044
1337.63025 1.98012
1335.58181 1.97971
1333.53337 1.98100
1331.48493 1.98383
1329.43649 1.98631
1327.38806 1.98716
1325.33962 1.98760
1323.29118 1.98936
1321.24274 1.99259
1319.19430 1.99533
1317.14586 1.99563
1315.09743 1.99458
1313.04899 1.99380
1311.00055 1.99435
1308.95211 1.99588
1306.90367 1.99698
1304.85523 1.99732
1302.80680 1.99857
1300.75836 2.00100
1298.70992 2.00364
1296.66148 2.00676
1294.61304 2.00981
1292.56460 2.01160
1290.51617 2.01285
1288.46773 2.01544
1286.41929 2.01864
1284.37085 2.02040
1282.32241 2.02143
1280.27397 2.02364
1278.22554 2.02651
1276.17710 2.03010
1274.12866 2.03471
1272.08022 2.03879
1270.03178 2.04244
1267.98334 2.04583
1265.93491 2.04718
1263.88647 2.04713
1261.83803 2.04898
1259.78959 2.05179
1257.74115 2.05382
1255.69271 2.05661
1253.64428 2.05929
1251.59584 2.06072
1249.54740 2.06285
1247.49896 2.06576
1245.45052 2.06860
1243.40208 2.07270
1241.35364 2.07751
1239.30521 2.08055
1237.25677 2.08221
1235.20833 2.08485
1233.15989 2.08726
1231.11145 2.08688
1229.06301 2.08511
1227.01458 2.08555
1224.96614 2.08888
1222.91770 2.09218
1220.86926 2.09450
1218.82082 2.09746
1216.77238 2.10015
1214.72395 2.10153
1212.67551 2.10381
1210.62707 2.10644
1208.57863 2.10727
1206.53019 2.10831
1204.48175 2.11139
1202.43332 2.11388
1200.38488 2.11363
1198.33644 2.11193
1196.28800 2.11109
1194.23956 2.11277
1192.19112 2.11572
1190.14269 2.11808
1188.09425 2.11998
1186.04581 2.12157
1183.99737 2.12280
1181.94893 2.12611
1179.90049 2.13263
1177.85206 2.13796
1175.80362 2.14170
1173.75518 2.14746
1171.70674 2.15322
1169.65830 2.15657
1167.60986 2.16016
1165.56143 2.16566
1163.51299 2.17085
1161.46455 2.17487
1159.41611 2.17931
1157.36767 2.18308
1155.31923 2.18194
1153.27080 2.17785
1151.22236 2.17684
1149.17392 2.17794
1147.12548 2.17780
1145.07704 2.17744
1143.02860 2.17756
1140.98017 2.17659
1138.93173 2.17573
1136.88329 2.17613
1134.83485 2.17660
1132.78641 2.17749
1130.73797 2.17833
1128.68954 2.17759
1126.64110 2.17657
1124.59266 2.17752
1122.54422 2.18016
1120.49578 2.18249
1118.44734 2.18383
1116.39891 2.18636
1114.35047 2.18962
1112.30203 2.19131
1110.25359 2.19376
1108.20515 2.19908
1106.15671 2.20551
1104.10827 2.21150
1102.05984 2.21652
1100.01140 2.22033
1097.96296 2.22233
1095.91452 2.22025
1093.86608 2.21325
1091.81764 2.20600
1089.76921 2.20494
1087.72077 2.20974
1085.67233 2.21467
1083.62389 2.21861
1081.57545 2.22314
1079.52701 2.22660
1077.47858 2.23066
1075.43014 2.23777
1073.38170 2.24386
1071.33326 2.24691
1069.28482 2.24940
1067.23638 2.25350
1065.18795 2.25911
1063.13951 2.26364
1061.09107 2.26497
1059.04263 2.26522
1056.99419 2.26903
1054.94575 2.27407
1052.89732 2.27500
1050.84888 2.27565
1048.80044 2.28172
1046.75200 2.28969
1044.70356 2.29416
1042.65512 2.29656
1040.60669 2.29900
1038.55825 2.30031
1036.50981 2.29999
1034.46137 2.30081
1032.41293 2.30586
1030.36449 2.31202
1028.31606 2.31592
1026.26762 2.31927
1024.21918 2.32123
1022.17074 2.32334
1020.12230 2.32866
1018.07386 2.33532
1016.02543 2.34178
1013.97699 2.34605
1011.92855 2.35011
1009.88011 2.35807
1007.83167 2.36718
1005.78323 2.37538
1003.73480 2.38356
1001.68636 2.39295
999.63792 2.40251
997.58948 2.40803
995.54104 2.40752
993.49260 2.40350
991.44417 2.40151
989.39573 2.39687
987.34729 2.38309
985.29885 2.36242
983.25041 2.33208
981.20197 2.29161
979.15354 2.24648
977.10510 2.20094
975.05666 2.15935
973.00822 2.12517
970.95978 2.10027
968.91134 2.08238
966.86290 2.06559
964.81447 2.04605
962.76603 2.02398
960.71759 2.00336
958.66915 1.98664
956.62071 1.97401
954.57227 1.96769
952.52384 1.97022
950.47540 1.98371
948.42696 2.00765
946.37852 2.03758
944.33008 2.06804
942.28164 2.09544
940.23321 2.12080
938.18477 2.14376
936.13633 2.16209
934.08789 2.17970
932.03945 2.19780
929.99101 2.21220
927.94258 2.22235
925.89414 2.23025
923.84570 2.24081
921.79726 2.25509
919.74882 2.26699
917.70038 2.27558
915.65195 2.28347
913.60351 2.29139
911.55507 2.30049
909.50663 2.31124
907.45819 2.32098
905.40975 2.32511
903.36132 2.32588
901.31288 2.32940
899.26444 2.33651
897.21600 2.34676
895.16756 2.35687
893.11912 2.36434
891.07069 2.37129
889.02225 2.37555
886.97381 2.37964
884.92537 2.38724
882.87693 2.39590
880.82849 2.40895
878.78006 2.42590
876.73162 2.44103
874.68318 2.45035
872.63474 2.45003
870.58630 2.44755
868.53786 2.44594
866.48943 2.43324
864.44099 2.40177
862.39255 2.35145
860.34411 2.28734
858.29567 2.22066
856.24723 2.16374
854.19880 2.12214
852.15036 2.09832
850.10192 2.09538
848.05348 2.10722
846.00504 2.11500
843.95660 2.10589
841.90817 2.08938
839.85973 2.07985
837.81129 2.08220
835.76285 2.09445
833.71441 2.11266
831.66597 2.13296
829.61753 2.15104
827.56910 2.16892
825.52066 2.18899
823.47222 2.20491
821.42378 2.20289
819.37534 2.17376
817.32690 2.13445
815.27847 2.10933
813.23003 2.10588
811.18159 2.11771
809.13315 2.13430
807.08471 2.14989
805.03627 2.16392
802.98784 2.17656
800.93940 2.18411
798.89096 2.18623
796.84252 2.19269
794.79408 2.20516
792.74564 2.21483
790.69721 2.22119
788.64877 2.23246
786.60033 2.24613
784.55189 2.25073
782.50345 2.25258
780.45501 2.26207
778.40658 2.27529
776.35814 2.28296
774.30970 2.27550
772.26126 2.25343
770.21282 2.22596
768.16438 2.20500
766.11595 2.19828
764.06751 2.20219
762.01907 2.20726
759.97063 2.20854
757.92219 2.21286
755.87375 2.22593
753.82532 2.24338
751.77688 2.25868
749.72844 2.26546
747.68000 2.26440
745.63156 2.26626
743.58312 2.27140
741.53469 2.26480
739.48625 2.24885
737.43781 2.24073
735.38937 2.24165
733.34093 2.24027
731.29249 2.23903
729.24406 2.24906
727.19562 2.26313
725.14718 2.27139
723.09874 2.26822
721.05030 2.25156
719.00186 2.24044
716.95343 2.24035
714.90499 2.23898
712.85655 2.24085
710.80811 2.24788
708.75967 2.25402
706.71123 2.26167
704.66280 2.26630
702.61436 2.25923
700.56592 2.24750
698.51748 2.24277
696.46904 2.24670
694.42060 2.25280
692.37216 2.25028
690.32373 2.23997
688.27529 2.22924
686.22685 2.22526
684.17841 2.23548
682.12997 2.24416
680.08153 2.23886
678.03310 2.23257
675.98466 2.23034
673.93622 2.22535
671.88778 2.21020
669.83934 2.19007
667.79090 2.19397
665.74247 2.21203
663.69403 2.21794
661.64559 2.22322
659.59715 2.22792
657.54871 2.23890
655.50027 2.24391
653.45184 2.22358
651.40340 2.20616
649.35496 2.20935
647.30652 2.21773
645.25808 2.21279
643.20964 2.19873
641.16121 2.19607
639.11277 2.23366
637.06433 2.29830
635.01589 2.31639
632.96745 2.31164
630.91901 2.32472
628.87058 2.30547
626.82214 2.25389
624.77370 2.22777
622.72526 2.25528
620.67682 2.29933
618.62838 2.30416
616.57995 2.28450
614.53151 2.25464
612.48307 2.18936
610.43463 2.12230
608.38619 2.08991
606.33775 2.09593
604.28932 2.13915
602.24088 2.18728
600.19244 2.19513
598.14400 2.19720
