3996.50324 1.75739
3994.45480 1.75759
3992.40636 1.75859
3990.35792 1.76142
3988.30948 1.76513
3986.26104 1.76843
3984.21261 1.77103
3982.16417 1.77402
3980.11573 1.77878
3978.06729 1.78488
3976.01885 1.78975
3973.97041 1.79176
3971.92198 1.79240
3969.87354 1.79285
3967.82510 1.79225
3965.77666 1.79016
3963.72822 1.78861
3961.67978 1.78902
3959.63135 1.78852
3957.58291 1.78539
3955.53447 1.78199
3953.48603 1.77897
3951.43759 1.77547
3949.38915 1.77291
3947.34072 1.77241
3945.29228 1.77317
3943.24384 1.77421
3941.19540 1.77395
3939.14696 1.77289
3937.09852 1.77291
3935.05009 1.77463
3933.00165 1.77892
3930.95321 1.78435
3928.90477 1.78717
3926.85633 1.78889
3924.80789 1.79270
3922.75946 1.79698
3920.71102 1.80030
3918.66258 1.80386
3916.61414 1.80505
3914.56570 1.80153
3912.51726 1.79723
3910.46883 1.79750
3908.42039 1.80217
3906.37195 1.80834
3904.32351 1.81562
3902.27507 1.82208
3900.22663 1.82667
3898.17820 1.83146
3896.12976 1.83821
3894.08132 1.84729
3892.03288 1.85825
3889.98444 1.86829
3887.93600 1.87614
3885.88756 1.88635
3883.83913 1.89948
3881.79069 1.91193
3879.74225 1.92099
3877.69381 1.92091
3875.64537 1.91709
3873.59693 1.91541
3871.54850 1.91309
3869.50006 1.89735
3867.45162 1.87729
3865.40318 1.86440
3863.35474 1.85111
3861.30630 1.83727
3859.25787 1.83006
3857.20943 1.83056
3855.16099 1.83619
3853.11255 1.84308
3851.06411 1.84263
3849.01567 1.84048
3846.96724 1.84041
3844.91880 1.84244
3842.87036 1.84748
3840.82192 1.85406
3838.77348 1.85706
3836.72504 1.85427
3834.67661 1.85111
3832.62817 1.85025
3830.57973 1.85035
3828.53129 1.84948
3826.48285 1.84690
3824.43441 1.84328
3822.38598 1.84039
3820.33754 1.83735
3818.28910 1.83222
3816.24066 1.82306
3814.19222 1.81028
3812.14378 1.80126
3810.09535 1.79772
3808.04691 1.79891
3805.99847 1.80099
3803.95003 1.80064
3801.90159 1.79989
3799.85315 1.79835
3797.80472 1.79721
3795.75628 1.79536
3793.70784 1.79082
3791.65940 1.78700
3789.61096 1.78583
3787.56252 1.78701
3785.51409 1.78891
3783.46565 1.78922
3781.41721 1.78848
3779.36877 1.78701
3777.32033 1.78419
3775.27189 1.78174
3773.22346 1.78125
3771.17502 1.78400
3769.12658 1.78774
3767.07814 1.78752
3765.02970 1.78586
3762.98126 1.78515
3760.93283 1.78551
3758.88439 1.78856
3756.83595 1.79162
3754.78751 1.79317
3752.73907 1.79869
3750.69063 1.81048
3748.64219 1.81559
3746.59376 1.81503
3744.54532 1.81596
3742.49688 1.81778
3740.44844 1.81929
3738.40000 1.82348
3736.35156 1.83254
3734.30313 1.83600
3732.25469 1.82699
3730.20625 1.81968
3728.15781 1.81701
3726.10937 1.81690
3724.06093 1.81821
3722.01250 1.81864
3719.96406 1.81871
3717.91562 1.81932
3715.86718 1.82001
3713.81874 1.82341
3711.77030 1.83151
3709.72187 1.83435
3707.67343 1.83048
3705.62499 1.82623
3703.57655 1.82136
3701.52811 1.81532
3699.47967 1.81047
3697.43124 1.80948
3695.38280 1.81042
3693.33436 1.81038
3691.28592 1.81228
3689.23748 1.82115
3687.18904 1.82920
3685.14061 1.83122
3683.09217 1.83278
3681.04373 1.83879
3678.99529 1.84990
3676.94685 1.86449
3674.89841 1.87873
3672.84998 1.88162
3670.80154 1.88298
3668.75310 1.88910
3666.70466 1.89248
3664.65622 1.89338
3662.60778 1.89568
3660.55935 1.90082
3658.51091 1.90675
3656.46247 1.91136
3654.41403 1.91208
3652.36559 1.91158
3650.31715 1.91715
3648.26872 1.92811
3646.22028 1.92859
3644.17184 1.92444
3642.12340 1.92245
3640.07496 1.92451
3638.02652 1.93123
3635.97809 1.94025
3633.92965 1.94760
3631.88121 1.95282
3629.83277 1.96122
3627.78433 1.97413
3625.73589 1.97928
3623.68746 1.98155
3621.63902 1.98845
3619.59058 2.00005
3617.54214 2.00828
3615.49370 2.01495
3613.44526 2.02421
3611.39682 2.03209
3609.34839 2.04066
3607.29995 2.05046
3605.25151 2.05560
3603.20307 2.05963
3601.15463 2.06738
3599.10619 2.07649
3597.05776 2.08456
3595.00932 2.09665
3592.96088 2.11452
3590.91244 2.13250
3588.86400 2.15311
3586.81556 2.17879
3584.76713 2.19461
3582.71869 2.19885
3580.67025 2.20571
3578.62181 2.22447
3576.57337 2.24957
3574.52493 2.27005
3572.47650 2.27930
3570.42806 2.28509
3568.37962 2.30075
3566.33118 2.32052
3564.28274 2.31934
3562.23430 2.30711
3560.18587 2.29635
3558.13743 2.28971
3556.08899 2.29035
3554.04055 2.30002
3551.99211 2.31558
3549.94367 2.33035
3547.89524 2.34362
3545.84680 2.35641
3543.79836 2.36706
3541.74992 2.37591
3539.70148 2.37989
3537.65304 2.38172
3535.60461 2.39029
3533.55617 2.39713
3531.50773 2.39628
3529.45929 2.40111
3527.41085 2.41763
3525.36241 2.43751
3523.31398 2.44911
3521.26554 2.44725
3519.21710 2.44477
3517.16866 2.45389
3515.12022 2.46908
3513.07178 2.48700
3511.02335 2.50832
3508.97491 2.52224
3506.92647 2.53078
3504.87803 2.54636
3502.82959 2.56227
3500.78115 2.56660
3498.73272 2.56506
3496.68428 2.56408
3494.63584 2.56802
3492.58740 2.58009
3490.53896 2.59028
3488.49052 2.59035
3486.44209 2.59017
3484.39365 2.58797
3482.34521 2.58148
3480.29677 2.58638
3478.24833 2.59833
3476.19989 2.59953
3474.15146 2.59301
3472.10302 2.58673
3470.05458 2.58228
3468.00614 2.59047
3465.95770 2.60455
3463.90926 2.60675
3461.86082 2.60276
3459.81239 2.60031
3457.76395 2.59772
3455.71551 2.59385
3453.66707 2.59872
3451.61863 2.61177
3449.57019 2.61786
3447.52176 2.62011
3445.47332 2.62546
3443.42488 2.62739
3441.37644 2.60503
3439.32800 2.53287
3437.27956 2.42835
3435.23113 2.33802
3433.18269 2.28941
3431.13425 2.28329
3429.08581 2.30592
3427.03737 2.34197
3424.98893 2.37840
3422.94050 2.40206
3420.89206 2.41228
3418.84362 2.42056
3416.79518 2.42675
3414.74674 2.42546
3412.69830 2.42231
3410.64987 2.42105
3408.60143 2.42049
3406.55299 2.42429
3404.50455 2.43002
3402.45611 2.43369
3400.40767 2.44099
3398.35924 2.45126
3396.31080 2.45604
3394.26236 2.45151
3392.21392 2.44306
3390.16548 2.43832
3388.11704 2.43666
3386.06861 2.43884
3384.02017 2.44680
3381.97173 2.45390
3379.92329 2.45708
3377.87485 2.45952
3375.82641 2.46114
3373.77798 2.46055
3371.72954 2.46263
3369.68110 2.46991
3367.63266 2.47414
3365.58422 2.47189
3363.53578 2.46927
3361.48735 2.46889
3359.43891 2.47211
3357.39047 2.47736
3355.34203 2.47155
3353.29359 2.45784
3351.24515 2.45197
3349.19672 2.45553
3347.14828 2.46543
3345.09984 2.46971
3343.05140 2.45801
3341.00296 2.44022
3338.95452 2.43070
3336.90609 2.43300
3334.85765 2.44251
3332.80921 2.44981
3330.76077 2.44658
3328.71233 2.43665
3326.66389 2.42629
3324.61545 2.41775
3322.56702 2.40990
3320.51858 2.40401
3318.47014 2.40346
3316.42170 2.40293
3314.37326 2.40131
3312.32482 2.40280
3310.27639 2.40457
3308.22795 2.40239
3306.17951 2.39597
3304.13107 2.39068
3302.08263 2.39194
3300.03419 2.39627
3297.98576 2.39428
3295.93732 2.38825
3293.88888 2.38977
3291.84044 2.39625
3289.79200 2.39942
3287.74356 2.39693
3285.69513 2.38954
3283.64669 2.38270
3281.59825 2.37773
3279.54981 2.37606
3277.50137 2.37587
3275.45293 2.37104
3273.40450 2.36612
3271.35606 2.36217
3269.30762 2.35687
3267.25918 2.35521
3265.21074 2.35350
3263.16230 2.34658
3261.11387 2.34148
3259.06543 2.33789
3257.01699 2.33163
3254.96855 2.32939
3252.92011 2.33281
3250.87167 2.33562
3248.82324 2.33463
3246.77480 2.33180
3244.72636 2.32939
3242.67792 2.32372
3240.62948 2.31470
3238.58104 2.30867
3236.53261 2.30725
3234.48417 2.30559
3232.43573 2.29830
3230.38729 2.28964
3228.33885 2.28637
3226.29041 2.28475
3224.24198 2.28472
3222.19354 2.28752
3220.14510 2.28513
3218.09666 2.27919
3216.04822 2.27863
3213.99978 2.28269
3211.95135 2.28453
3209.90291 2.28084
3207.85447 2.27602
3205.80603 2.27401
3203.75759 2.27050
3201.70915 2.26665
3199.66072 2.27063
3197.61228 2.27504
3195.56384 2.27162
3193.51540 2.26965
3191.46696 2.27335
3189.41852 2.27568
3187.37008 2.27389
3185.32165 2.27226
3183.27321 2.27026
3181.22477 2.26662
3179.17633 2.26421
3177.12789 2.26161
3175.07945 2.25769
3173.03102 2.25402
3170.98258 2.24786
3168.93414 2.23988
3166.88570 2.23404
3164.83726 2.22747
3162.78882 2.22169
3160.74039 2.22250
3158.69195 2.22615
3156.64351 2.22791
3154.59507 2.22950
3152.54663 2.23029
3150.49819 2.22948
3148.44976 2.22852
3146.40132 2.22670
3144.35288 2.22564
3142.30444 2.22560
3140.25600 2.22255
3138.20756 2.21737
3136.15913 2.21493
3134.11069 2.21432
3132.06225 2.21326
3130.01381 2.21453
3127.96537 2.21775
3125.91693 2.22030
3123.86850 2.22150
3121.82006 2.21905
3119.77162 2.21361
3117.72318 2.21216
3115.67474 2.21450
3113.62630 2.21222
3111.57787 2.20621
3109.52943 2.20463
3107.48099 2.20562
3105.43255 2.20173
3103.38411 2.19756
3101.33567 2.19729
3099.28724 2.19511
3097.23880 2.19059
3095.19036 2.18836
3093.14192 2.18822
3091.09348 2.18880
3089.04504 2.18905
3086.99661 2.18555
3084.94817 2.18081
3082.89973 2.17972
3080.85129 2.18204
3078.80285 2.18529
3076.75441 2.18501
3074.70598 2.18246
3072.65754 2.18421
3070.60910 2.18825
3068.56066 2.18857
3066.51222 2.18680
3064.46378 2.18576
3062.41535 2.18474
3060.36691 2.18596
3058.31847 2.19187
3056.27003 2.19817
3054.22159 2.19965
3052.17315 2.19835
3050.12471 2.19913
3048.07628 2.20214
3046.02784 2.20451
3043.97940 2.20578
3041.93096 2.20814
3039.88252 2.21232
3037.83408 2.21746
3035.78565 2.22512
3033.73721 2.23410
3031.68877 2.23976
3029.64033 2.24245
3027.59189 2.24637
3025.54345 2.25312
3023.49502 2.25997
3021.44658 2.26533
3019.39814 2.27083
3017.34970 2.27527
3015.30126 2.27737
3013.25282 2.28132
3011.20439 2.29138
3009.15595 2.30592
3007.10751 2.31744
3005.05907 2.32572
3003.01063 2.33712
3000.96219 2.34662
2998.91376 2.35259
2996.86532 2.36181
2994.81688 2.37177
2992.76844 2.37716
2990.72000 2.37881
2988.67156 2.38358
2986.62313 2.39389
2984.57469 2.40425
2982.52625 2.41294
2980.47781 2.41932
2978.42937 2.42395
2976.38093 2.42923
2974.33250 2.43323
2972.28406 2.43367
2970.23562 2.43184
2968.18718 2.43419
2966.13874 2.44110
2964.09030 2.44609
2962.04187 2.44933
2959.99343 2.45191
2957.94499 2.45117
2955.89655 2.44367
2953.84811 2.43552
2951.79967 2.43867
2949.75124 2.44900
2947.70280 2.45218
2945.65436 2.44536
2943.60592 2.43869
2941.55748 2.44220
2939.50904 2.45373
2937.46061 2.46207
2935.41217 2.46336
2933.36373 2.46153
2931.31529 2.45929
2929.26685 2.46092
2927.21841 2.46927
2925.16998 2.47728
2923.12154 2.47890
2921.07310 2.47765
2919.02466 2.47715
2916.97622 2.48200
2914.92778 2.49235
2912.87934 2.50212
2910.83091 2.51023
2908.78247 2.51638
2906.73403 2.51903
2904.68559 2.51604
2902.63715 2.50862
2900.58871 2.50556
2898.54028 2.50752
2896.49184 2.50787
2894.44340 2.51042
2892.39496 2.51936
2890.34652 2.52661
2888.29808 2.52708
2886.24965 2.52540
2884.20121 2.52225
2882.15277 2.51641
2880.10433 2.50838
2878.05589 2.49523
2876.00745 2.47718
2873.95902 2.45943
2871.91058 2.44255
2869.86214 2.42317
2867.81370 2.40388
2865.76526 2.39028
2863.71682 2.38002
2861.66839 2.36817
2859.61995 2.35723
2857.57151 2.35001
2855.52307 2.34486
2853.47463 2.34324
2851.42619 2.34678
2849.37776 2.35061
2847.32932 2.34982
2845.28088 2.34503
2843.23244 2.34120
2841.18400 2.34253
2839.13556 2.34492
2837.08713 2.34482
2835.03869 2.34424
2832.99025 2.34247
2830.94181 2.33934
2828.89337 2.33314
2826.84493 2.31880
2824.79650 2.29629
2822.74806 2.27203
2820.69962 2.25002
2818.65118 2.22690
2816.60274 2.20153
2814.55430 2.17827
2812.50587 2.15865
2810.45743 2.13951
2808.40899 2.11994
2806.36055 2.10322
2804.31211 2.08959
2802.26367 2.07791
2800.21524 2.06922
2798.16680 2.06218
2796.11836 2.05521
2794.06992 2.04881
2792.02148 2.04330
2789.97304 2.03844
2787.92461 2.03275
2785.87617 2.02555
2783.82773 2.01809
2781.77929 2.01277
2779.73085 2.01087
2777.68241 2.00927
2775.63397 2.00570
2773.58554 2.00207
2771.53710 1.99933
2769.48866 1.99690
2767.44022 1.99544
2765.39178 1.99490
2763.34334 1.99441
2761.29491 1.99477
2759.24647 1.99529
2757.19803 1.99353
2755.14959 1.99009
2753.10115 1.98801
2751.05271 1.98772
2749.00428 1.98718
2746.95584 1.98607
2744.90740 1.98598
2742.85896 1.98627
2740.81052 1.98438
2738.76208 1.98212
2736.71365 1.98126
2734.66521 1.97924
2732.61677 1.97647
2730.56833 1.97464
2728.51989 1.97305
2726.47145 1.97182
2724.42302 1.97047
2722.37458 1.96826
2720.32614 1.96759
2718.27770 1.96904
2716.22926 1.96971
2714.18082 1.96908
2712.13239 1.96846
2710.08395 1.96765
2708.03551 1.96728
2705.98707 1.96864
2703.93863 1.97003
2701.89019 1.96917
2699.84176 1.96691
2697.79332 1.96573
2695.74488 1.96669
2693.69644 1.96913
2691.64800 1.97194
2689.59956 1.97418
2687.55113 1.97595
2685.50269 1.97834
2683.45425 1.98166
2681.40581 1.98631
2679.35737 1.99311
2677.30893 2.00239
2675.26050 2.01337
2673.21206 2.02451
2671.16362 2.03578
2669.11518 2.04781
2667.06674 2.06057
2665.01830 2.07347
2662.96987 2.08431
2660.92143 2.09151
2658.87299 2.09768
2656.82455 2.10660
2654.77611 2.11722
2652.72767 2.12630
2650.67924 2.13271
2648.63080 2.13883
2646.58236 2.14639
2644.53392 2.15462
2642.48548 2.16431
2640.43704 2.17485
2638.38860 2.18339
2636.34017 2.18921
2634.29173 2.19398
2632.24329 2.19985
2630.19485 2.20956
2628.14641 2.22361
2626.09797 2.23742
2624.04954 2.24794
2622.00110 2.25813
2619.95266 2.26970
2617.90422 2.28105
2615.85578 2.29372
2613.80734 2.30828
2611.75891 2.32384
2609.71047 2.34053
2607.66203 2.35781
2605.61359 2.37642
2603.56515 2.39289
2601.51671 2.40258
2599.46828 2.40966
2597.41984 2.41720
2595.37140 2.42185
2593.32296 2.42104
2591.27452 2.41651
2589.22608 2.41143
2587.17765 2.40426
2585.12921 2.39403
2583.08077 2.38459
2581.03233 2.37739
2578.98389 2.37066
2576.93545 2.36742
2574.88702 2.37397
2572.83858 2.38704
2570.79014 2.39961
2568.74170 2.41199
2566.69326 2.42544
2564.64482 2.43907
2562.59639 2.45106
2560.54795 2.46028
2558.49951 2.47010
2556.45107 2.47843
2554.40263 2.47886
2552.35419 2.47868
2550.30576 2.48322
2548.25732 2.48720
2546.20888 2.49113
2544.16044 2.49682
2542.11200 2.50226
2540.06356 2.50680
2538.01513 2.51322
2535.96669 2.52438
2533.91825 2.53666
2531.86981 2.54565
2529.82137 2.55336
2527.77293 2.56277
2525.72450 2.57319
2523.67606 2.58175
2521.62762 2.58939
2519.57918 2.59657
2517.53074 2.60029
2515.48230 2.60134
2513.43387 2.60059
2511.38543 2.60066
2509.33699 2.60640
2507.28855 2.61726
2505.24011 2.62810
2503.19167 2.63273
2501.14324 2.63135
2499.09480 2.63024
2497.04636 2.62589
2494.99792 2.60814
2492.94948 2.58034
2490.90104 2.55125
2488.85260 2.52066
2486.80417 2.48509
2484.75573 2.44645
2482.70729 2.40898
2480.65885 2.37297
2478.61041 2.33939
2476.56197 2.31026
2474.51354 2.28391
2472.46510 2.25972
2470.41666 2.23808
2468.36822 2.21635
2466.31978 2.19397
2464.27134 2.17286
2462.22291 2.15360
2460.17447 2.13482
2458.12603 2.11480
2456.07759 2.09461
2454.02915 2.07686
2451.98071 2.06305
2449.93228 2.05172
2447.88384 2.04117
2445.83540 2.03177
2443.78696 2.02438
2441.73852 2.01968
2439.69008 2.01618
2437.64165 2.01150
2435.59321 2.00676
2433.54477 2.00348
2431.49633 2.00040
2429.44789 1.99739
2427.39945 1.99460
2425.35102 1.99033
2423.30258 1.98533
2421.25414 1.98166
2419.20570 1.97934
2417.15726 1.97676
2415.10882 1.97300
2413.06039 1.96944
2411.01195 1.96654
2408.96351 1.96287
2406.91507 1.95927
2404.86663 1.95750
2402.81819 1.95636
2400.76976 1.95458
2398.72132 1.95234
2396.67288 1.95082
2394.62444 1.95072
2392.57600 1.95033
2390.52756 1.94976
2388.47913 1.94983
2386.43069 1.94915
2384.38225 1.94910
2382.33381 1.95220
2380.28537 1.95639
2378.23693 1.95880
2376.18850 1.96041
2374.14006 1.96162
2372.09162 1.96140
2370.04318 1.96281
2367.99474 1.96687
2365.94630 1.96733
2363.89787 1.96100
2361.84943 1.95580
2359.80099 1.96154
2357.75255 1.97052
2355.70411 1.96975
2353.65567 1.96372
2351.60723 1.95942
2349.55880 1.95645
2347.51036 1.95604
2345.46192 1.95965
2343.41348 1.96223
2341.36504 1.96020
2339.31660 1.96119
2337.26817 1.96746
2335.21973 1.96605
2333.17129 1.95348
2331.12285 1.94709
2329.07441 1.95455
2327.02597 1.96319
2324.97754 1.96460
2322.92910 1.96380
2320.88066 1.96454
2318.83222 1.96502
2316.78378 1.96373
2314.73534 1.96097
2312.68691 1.95944
2310.63847 1.96126
2308.59003 1.96380
2306.54159 1.96473
2304.49315 1.96601
2302.44471 1.96873
2300.39628 1.97165
2298.34784 1.97433
2296.29940 1.97763
2294.25096 1.98110
2292.20252 1.98365
2290.15408 1.98648
2288.10565 1.99038
2286.05721 1.99347
2284.00877 1.99414
2281.96033 1.99376
2279.91189 1.99418
2277.86345 1.99548
2275.81502 1.99747
2273.76658 2.00017
2271.71814 2.00413
2269.66970 2.00906
2267.62126 2.01347
2265.57282 2.01687
2263.52439 2.01977
2261.47595 2.02097
2259.42751 2.01946
2257.37907 2.01749
2255.33063 2.01589
2253.28219 2.01466
2251.23376 2.01386
2249.18532 2.01210
2247.13688 2.00986
2245.08844 2.00819
2243.04000 2.00663
2240.99156 2.00537
2238.94313 2.00553
2236.89469 2.00698
2234.84625 2.00970
2232.79781 2.01379
2230.74937 2.01656
2228.70093 2.01511
2226.65250 2.01076
2224.60406 2.00789
2222.55562 2.00732
2220.50718 2.00609
2218.45874 2.00500
2216.41030 2.00632
2214.36186 2.00840
2212.31343 2.01087
2210.26499 2.01486
2208.21655 2.01875
2206.16811 2.02078
2204.11967 2.02052
2202.07123 2.01806
2200.02280 2.01470
2197.97436 2.01242
2195.92592 2.01109
2193.87748 2.00853
2191.82904 2.00564
2189.78060 2.00483
2187.73217 2.00571
2185.68373 2.00746
2183.63529 2.00826
2181.58685 2.00692
2179.53841 2.00557
2177.48997 2.00529
2175.44154 2.00455
2173.39310 2.00286
2171.34466 2.00083
2169.29622 1.99889
2167.24778 1.99754
2165.19934 1.99550
2163.15091 1.99196
2161.10247 1.98874
2159.05403 1.98650
2157.00559 1.98448
2154.95715 1.98253
2152.90871 1.98057
2150.86028 1.97823
2148.81184 1.97475
2146.76340 1.96930
2144.71496 1.96326
2142.66652 1.95807
2140.61808 1.95314
2138.56965 1.94810
2136.52121 1.94487
2134.47277 1.94380
2132.42433 1.94159
2130.37589 1.93848
2128.32745 1.93672
2126.27902 1.93555
2124.23058 1.93484
2122.18214 1.93462
2120.13370 1.93337
2118.08526 1.93167
2116.03682 1.93105
2113.98839 1.93077
2111.93995 1.92958
2109.89151 1.92781
2107.84307 1.92702
2105.79463 1.92813
2103.74619 1.92993
2101.69776 1.93040
2099.64932 1.92953
2097.60088 1.92874
2095.55244 1.92920
2093.50400 1.93071
2091.45556 1.93154
2089.40713 1.93143
2087.35869 1.93171
2085.31025 1.93206
2083.26181 1.93105
2081.21337 1.93031
2079.16493 1.93197
2077.11649 1.93459
2075.06806 1.93665
2073.01962 1.93835
2070.97118 1.94044
2068.92274 1.94373
2066.87430 1.94731
2064.82586 1.94962
2062.77743 1.95160
2060.72899 1.95552
2058.68055 1.96161
2056.63211 1.96725
2054.58367 1.97066
2052.53523 1.97339
2050.48680 1.97648
2048.43836 1.97889
2046.38992 1.97968
2044.34148 1.97944
2042.29304 1.97847
2040.24460 1.97710
2038.19617 1.97637
2036.14773 1.97517
2034.09929 1.97294
2032.05085 1.97129
2030.00241 1.97078
2027.95397 1.97097
2025.90554 1.97118
2023.85710 1.97134
2021.80866 1.97252
2019.76022 1.97507
2017.71178 1.97773
2015.66334 1.97902
2013.61491 1.97978
2011.56647 1.98146
2009.51803 1.98434
2007.46959 1.98806
2005.42115 1.99180
2003.37271 1.99592
2001.32428 2.00092
1999.27584 2.00637
1997.22740 2.01249
1995.17896 2.01874
1993.13052 2.02386
1991.08208 2.02908
1989.03365 2.03530
1986.98521 2.03985
1984.93677 2.04328
1982.88833 2.04806
1980.83989 2.05373
1978.79145 2.05948
1976.74302 2.06453
1974.69458 2.07084
1972.64614 2.08001
1970.59770 2.08782
1968.54926 2.09473
1966.50082 2.10446
1964.45239 2.11615
1962.40395 2.12936
1960.35551 2.14266
1958.30707 2.15420
1956.25863 2.16545
1954.21019 2.17808
1952.16176 2.19104
1950.11332 2.20429
1948.06488 2.22015
1946.01644 2.23623
1943.96800 2.25016
1941.91956 2.26341
1939.87112 2.27178
1937.82269 2.27457
1935.77425 2.27833
1933.72581 2.28564
1931.67737 2.29310
1929.62893 2.29981
1927.58049 2.30947
1925.53206 2.32162
1923.48362 2.33498
1921.43518 2.34986
1919.38674 2.36392
1917.33830 2.38212
1915.28986 2.40699
1913.24143 2.43143
1911.19299 2.44974
1909.14455 2.46053
1907.09611 2.47031
1905.04767 2.48169
1902.99923 2.49397
1900.95080 2.50791
1898.90236 2.52159
1896.85392 2.53745
1894.80548 2.55777
1892.75704 2.57533
1890.70860 2.59093
1888.66017 2.61003
1886.61173 2.62647
1884.56329 2.63993
1882.51485 2.65321
1880.46641 2.66201
1878.41797 2.66324
1876.36954 2.66388
1874.32110 2.67134
1872.27266 2.67722
1870.22422 2.67412
1868.17578 2.67613
1866.12734 2.68939
1864.07891 2.69679
1862.03047 2.69608
1859.98203 2.69497
1857.93359 2.69952
1855.88515 2.70361
1853.83671 2.69717
1851.78828 2.69071
1849.73984 2.69444
1847.69140 2.69229
1845.64296 2.67663
1843.59452 2.66819
1841.54608 2.67158
1839.49765 2.67856
1837.44921 2.68608
1835.40077 2.68156
1833.35233 2.66672
1831.30389 2.65408
1829.25545 2.64433
1827.20702 2.63477
1825.15858 2.62062
1823.11014 2.60309
1821.06170 2.58812
1819.01326 2.57367
1816.96482 2.55854
1814.91639 2.54457
1812.86795 2.53306
1810.81951 2.51893
1808.77107 2.50236
1806.72263 2.49284
1804.67419 2.49197
1802.62575 2.49462
1800.57732 2.49563
1798.52888 2.49551
1796.48044 2.49625
1794.43200 2.49887
1792.38356 2.50976
1790.33512 2.52400
1788.28669 2.52810
1786.23825 2.52614
1784.18981 2.52039
1782.14137 2.51266
1780.09293 2.50860
1778.04449 2.50578
1775.99606 2.49635
1773.94762 2.47966
1771.89918 2.46258
1769.85074 2.44986
1767.80230 2.43852
1765.75386 2.43000
1763.70543 2.42336
1761.65699 2.41358
1759.60855 2.40519
1757.56011 2.40433
1755.51167 2.40533
1753.46323 2.40301
1751.41480 2.40170
1749.36636 2.40552
1747.31792 2.40921
1745.26948 2.41203
1743.22104 2.41696
1741.17260 2.41958
1739.12417 2.41983
1737.07573 2.42045
1735.02729 2.41746
1732.97885 2.41612
1730.93041 2.42206
1728.88197 2.42897
1726.83354 2.43423
1724.78510 2.43565
1722.73666 2.43612
1720.68822 2.43983
1718.63978 2.44559
1716.59134 2.45539
1714.54291 2.47117
1712.49447 2.48645
1710.44603 2.49964
1708.39759 2.51237
1706.34915 2.52913
1704.30071 2.54434
1702.25228 2.54936
1700.20384 2.55671
1698.15540 2.57010
1696.10696 2.57096
1694.05852 2.56414
1692.01008 2.56171
1689.96165 2.56688
1687.91321 2.57309
1685.86477 2.57881
1683.81633 2.60697
1681.76789 2.63515
1679.71945 2.64864
1677.67102 2.66378
1675.62258 2.68029
1673.57414 2.69883
1671.52570 2.72629
1669.47726 2.75837
1667.42882 2.77133
1665.38038 2.77517
1663.33195 2.78645
1661.28351 2.80443
1659.23507 2.81789
1657.18663 2.82825
1655.13819 2.84384
1653.08975 2.87091
1651.04132 2.87965
1648.99288 2.87105
1646.94444 2.87478
1644.89600 2.91126
1642.84756 2.93580
1640.79912 2.94499
1638.75069 2.95103
1636.70225 2.95666
1634.65381 2.96331
1632.60537 2.96987
1630.55693 2.97593
1628.50849 2.97909
1626.46006 2.98079
1624.41162 2.99679
1622.36318 3.02351
1620.31474 3.02620
1618.26630 3.00947
1616.21786 2.98696
1614.16943 2.97810
1612.12099 2.97994
1610.07255 2.98089
1608.02411 2.96753
1605.97567 2.93993
1603.92723 2.91167
1601.87880 2.88643
1599.83036 2.86117
1597.78192 2.82969
1595.73348 2.79202
1593.68504 2.75230
1591.63660 2.71294
1589.58817 2.66942
1587.53973 2.61498
1585.49129 2.54408
1583.44285 2.46387
1581.39441 2.38559
1579.34597 2.31407
1577.29754 2.23163
1575.24910 2.14184
1573.20066 2.09658
1571.15222 2.07347
1569.10378 2.05051
1567.05534 2.03257
1565.00691 2.02153
1562.95847 2.01336
1560.91003 2.00758
1558.86159 2.00560
1556.81315 2.00276
1554.76471 1.99747
1552.71628 1.99297
1550.66784 1.99312
1548.61940 1.99955
1546.57096 2.00923
1544.52252 2.02237
1542.47408 2.03791
1540.42565 2.05425
1538.37721 2.06659
1536.32877 2.07026
1534.28033 2.07642
1532.23189 2.08696
1530.18345 2.09284
1528.13501 2.09900
1526.08658 2.10891
1524.03814 2.11692
1521.98970 2.12386
1519.94126 2.12916
1517.89282 2.13290
1515.84438 2.13930
1513.79595 2.14623
1511.74751 2.15528
1509.69907 2.16857
1507.65063 2.18675
1505.60219 2.19899
1503.55375 2.19812
1501.50532 2.19783
1499.45688 2.20285
1497.40844 2.21807
1495.36000 2.23395
1493.31156 2.24060
1491.26312 2.24695
1489.21469 2.25619
1487.16625 2.24826
1485.11781 2.21611
1483.06937 2.16458
1481.02093 2.09641
1478.97249 2.03184
1476.92406 1.97859
1474.87562 1.92792
1472.82718 1.86715
1470.77874 1.81546
1468.73030 1.78995
1466.68186 1.78202
1464.63343 1.79746
1462.58499 1.82815
1460.53655 1.85744
1458.48811 1.89547
1456.43967 1.94378
1454.39123 1.95987
1452.34280 1.96417
1450.29436 1.96843
1448.24592 1.96685
1446.19748 1.95139
1444.14904 1.92067
1442.10060 1.87602
1440.05217 1.82909
1438.00373 1.78699
1435.95529 1.74764
1433.90685 1.72225
1431.85841 1.70701
1429.80997 1.69400
1427.76154 1.68405
1425.71310 1.67949
1423.66466 1.67913
1421.61622 1.68200
1419.56778 1.69238
1417.51934 1.71012
1415.47091 1.72727
1413.42247 1.75188
1411.37403 1.79188
1409.32559 1.84384
1407.27715 1.90049
1405.22871 1.96315
1403.18028 2.01968
1401.13184 2.05931
1399.08340 2.09554
1397.03496 2.13159
1394.98652 2.16299
1392.93808 2.18367
1390.88965 2.19472
1388.84121 2.20608
1386.79277 2.21893
1384.74433 2.22840
1382.69589 2.23684
1380.64745 2.24582
1378.59901 2.25622
1376.55058 2.26749
1374.50214 2.27880
1372.45370 2.28929
1370.40526 2.29946
1368.35682 2.31061
1366.30838 2.32256
1364.25995 2.33781
1362.21151 2.35105
1360.16307 2.35440
1358.11463 2.35489
1356.06619 2.35791
1354.01775 2.36251
1351.96932 2.36686
1349.92088 2.36798
1347.87244 2.36686
1345.82400 2.36951
1343.77556 2.37682
1341.72712 2.38571
1339.67869 2.39580
1337.63025 2.40350
1335.58181 2.40521
1333.53337 2.40613
1331.48493 2.40697
1329.43649 2.40703
1327.38806 2.41005
1325.33962 2.41607
1323.29118 2.42162
1321.24274 2.42814
1319.19430 2.43644
1317.14586 2.44127
1315.09743 2.44134
1313.04899 2.43938
1311.00055 2.43770
1308.95211 2.43776
1306.90367 2.43831
1304.85523 2.43679
1302.80680 2.43606
1300.75836 2.43817
1298.70992 2.44043
1296.66148 2.43985
1294.61304 2.43543
1292.56460 2.43033
1290.51617 2.42748
1288.46773 2.42673
1286.41929 2.42832
1284.37085 2.43089
1282.32241 2.42894
1280.27397 2.42482
1278.22554 2.42515
1276.17710 2.42920
1274.12866 2.43448
1272.08022 2.43959
1270.03178 2.44384
1267.98334 2.44759
1265.93491 2.44933
1263.88647 2.44842
1261.83803 2.44772
1259.78959 2.44775
1257.74115 2.44662
1255.69271 2.44514
1253.64428 2.44395
1251.59584 2.44083
1249.54740 2.43777
1247.49896 2.43769
1245.45052 2.43966
1243.40208 2.44486
1241.35364 2.45385
1239.30521 2.46107
1237.25677 2.46255
1235.20833 2.46249
1233.15989 2.46347
1231.11145 2.46219
1229.06301 2.45917
1227.01458 2.45824
1224.96614 2.45529
1222.91770 2.44541
1220.86926 2.43319
1218.82082 2.42523
1216.77238 2.42375
1214.72395 2.42601
1212.67551 2.42607
1210.62707 2.42104
1208.57863 2.41552
1206.53019 2.41281
1204.48175 2.41335
1202.43332 2.41737
1200.38488 2.42166
1198.33644 2.42451
1196.28800 2.42550
1194.23956 2.42447
1192.19112 2.42688
1190.14269 2.43292
1188.09425 2.43409
1186.04581 2.43032
1183.99737 2.42626
1181.94893 2.41966
1179.90049 2.41383
1177.85206 2.41586
1175.80362 2.42042
1173.75518 2.42015
1171.70674 2.41747
1169.65830 2.41587
1167.60986 2.41679
1165.56143 2.41878
1163.51299 2.41475
1161.46455 2.40744
1159.41611 2.40995
1157.36767 2.41880
1155.31923 2.42230
1153.27080 2.42321
1151.22236 2.42320
1149.17392 2.41972
1147.12548 2.41704
1145.07704 2.41736
1143.02860 2.42030
1140.98017 2.42527
1138.93173 2.43049
1136.88329 2.43667
1134.83485 2.44425
1132.78641 2.45169
1130.73797 2.45937
1128.68954 2.46702
1126.64110 2.47187
1124.59266 2.47788
1122.54422 2.48640
1120.49578 2.49348
1118.44734 2.50445
1116.39891 2.52078
1114.35047 2.53612
1112.30203 2.54891
1110.25359 2.55993
1108.20515 2.57488
1106.15671 2.59661
1104.10827 2.61800
1102.05984 2.64165
1100.01140 2.66795
1097.96296 2.68740
1095.91452 2.69876
1093.86608 2.69002
1091.81764 2.66514
1089.76921 2.65181
1087.72077 2.64764
1085.67233 2.64104
1083.62389 2.63707
1081.57545 2.63738
1079.52701 2.63889
1077.47858 2.63921
1075.43014 2.63952
1073.38170 2.64476
1071.33326 2.65256
1069.28482 2.65604
1067.23638 2.65603
1065.18795 2.65551
1063.13951 2.65912
1061.09107 2.67204
1059.04263 2.68507
1056.99419 2.68717
1054.94575 2.68408
1052.89732 2.68390
1050.84888 2.68618
1048.80044 2.68283
1046.75200 2.67775
1044.70356 2.68319
1042.65512 2.68815
1040.60669 2.68326
1038.55825 2.68128
1036.50981 2.69026
1034.46137 2.70097
1032.41293 2.70428
1030.36449 2.71022
1028.31606 2.72289
1026.26762 2.72917
1024.21918 2.72991
1022.17074 2.73751
1020.12230 2.74870
1018.07386 2.75799
1016.02543 2.76434
1013.97699 2.76116
1011.92855 2.75780
1009.88011 2.77385
1007.83167 2.80325
1005.78323 2.82159
1003.73480 2.82274
1001.68636 2.82266
999.63792 2.83194
997.58948 2.83612
995.54104 2.82773
993.49260 2.82465
991.44417 2.83284
989.39573 2.83458
987.34729 2.81927
985.29885 2.79802
983.25041 2.76710
981.20197 2.70962
979.15354 2.63465
977.10510 2.56435
975.05666 2.50637
973.00822 2.45818
970.95978 2.41717
968.91134 2.38154
966.86290 2.34783
964.81447 2.31452
962.76603 2.28076
960.71759 2.24547
958.66915 2.21450
956.62071 2.19170
954.57227 2.17673
952.52384 2.17480
950.47540 2.19047
948.42696 2.21974
946.37852 2.25625
944.33008 2.29797
942.28164 2.34144
940.23321 2.38034
938.18477 2.41398
936.13633 2.44172
934.08789 2.45883
932.03945 2.47288
929.99101 2.49327
927.94258 2.51449
925.89414 2.53359
923.84570 2.55378
921.79726 2.57553
919.74882 2.59353
917.70038 2.60085
915.65195 2.60256
913.60351 2.60630
911.55507 2.61597
909.50663 2.63512
907.45819 2.65490
905.40975 2.66306
903.36132 2.66440
901.31288 2.66846
899.26444 2.67454
897.21600 2.68004
895.16756 2.68673
893.11912 2.69086
891.07069 2.69643
889.02225 2.71563
886.97381 2.74085
884.92537 2.75447
882.87693 2.75772
880.82849 2.76388
878.78006 2.77685
876.73162 2.79675
874.68318 2.81547
872.63474 2.81293
870.58630 2.80664
868.53786 2.81189
866.48943 2.79294
864.44099 2.74525
862.39255 2.68630
860.34411 2.61752
858.29567 2.55257
856.24723 2.49799
854.19880 2.45099
852.15036 2.41313
850.10192 2.38783
848.05348 2.37245
846.00504 2.35586
843.95660 2.32905
841.90817 2.29973
839.85973 2.28462
837.81129 2.28875
835.76285 2.30826
833.71441 2.33876
831.66597 2.37299
829.61753 2.40746
827.56910 2.44299
825.52066 2.47646
823.47222 2.50402
821.42378 2.50752
819.37534 2.47207
817.32690 2.42418
815.27847 2.39568
813.23003 2.39926
811.18159 2.42486
809.13315 2.45336
807.08471 2.48205
805.03627 2.50569
802.98784 2.52355
800.93940 2.54491
798.89096 2.55516
796.84252 2.54984
794.79408 2.54400
792.74564 2.54801
790.69721 2.56405
788.64877 2.57100
786.60033 2.56606
784.55189 2.56989
782.50345 2.59112
780.45501 2.62453
778.40658 2.64562
776.35814 2.65296
774.30970 2.65677
772.26126 2.63221
770.21282 2.58288
768.16438 2.55709
766.11595 2.57523
764.06751 2.60316
762.01907 2.60749
759.97063 2.60825
757.92219 2.62367
755.87375 2.63443
753.82532 2.62034
751.77688 2.60379
749.72844 2.61400
747.68000 2.62741
745.63156 2.61333
743.58312 2.59678
741.53469 2.59765
739.48625 2.60899
737.43781 2.61212
735.38937 2.59907
733.34093 2.59821
731.29249 2.61531
729.24406 2.62601
727.19562 2.61785
725.14718 2.60292
723.09874 2.60462
721.05030 2.61812
719.00186 2.63229
716.95343 2.64665
714.90499 2.64828
712.85655 2.64215
710.80811 2.65628
708.75967 2.69647
706.71123 2.71517
704.66280 2.66724
702.61436 2.60961
700.56592 2.57798
698.51748 2.53918
696.46904 2.51320
694.42060 2.54856
692.37216 2.61689
690.32373 2.63961
688.27529 2.61122
686.22685 2.57153
684.17841 2.55514
682.12997 2.57256
680.08153 2.58807
678.03310 2.57854
675.98466 2.55224
673.93622 2.55219
671.88778 2.59630
669.83934 2.62659
667.79090 2.57322
665.74247 2.52754
663.69403 2.54385
661.64559 2.57193
659.59715 2.61230
657.54871 2.72192
655.50027 2.79016
653.45184 2.71737
651.40340 2.64819
649.35496 2.60318
647.30652 2.56289
645.25808 2.54051
643.20964 2.52966
641.16121 2.52318
639.11277 2.54244
637.06433 2.64828
635.01589 2.80222
632.96745 2.73948
630.91901 2.57050
628.87058 2.49167
626.82214 2.48650
624.77370 2.50238
622.72526 2.54660
620.67682 2.64165
618.62838 2.74120
616.57995 2.92621
614.53151 3.05622
612.48307 2.76610
610.43463 2.62898
608.38619 2.69406
606.33775 2.77221
604.28932 2.77477
602.24088 2.76965
600.19244 2.76520
598.14400 2.60787
