3996.50324 1.84608
3994.45480 1.84689
3992.40636 1.85006
3990.35792 1.85131
3988.30948 1.85062
3986.26104 1.85104
3984.21261 1.85318
3982.16417 1.85662
3980.11573 1.86031
3978.06729 1.86354
3976.01885 1.86703
3973.97041 1.87044
3971.92198 1.87376
3969.87354 1.87643
3967.82510 1.87556
3965.77666 1.87284
3963.72822 1.87122
3961.67978 1.86975
3959.63135 1.86661
3957.58291 1.86174
3955.53447 1.85799
3953.48603 1.85773
3951.43759 1.85986
3949.38915 1.86109
3947.34072 1.85836
3945.29228 1.85381
3943.24384 1.85167
3941.19540 1.85150
3939.14696 1.85160
3937.09852 1.85305
3935.05009 1.85607
3933.00165 1.86082
3930.95321 1.86558
3928.90477 1.86703
3926.85633 1.86690
3924.80789 1.86908
3922.75946 1.87419
3920.71102 1.87955
3918.66258 1.88380
3916.61414 1.88475
3914.56570 1.88081
3912.51726 1.87607
3910.46883 1.87366
3908.42039 1.87223
3906.37195 1.87178
3904.32351 1.87365
3902.27507 1.87588
3900.22663 1.87911
3898.17820 1.88451
3896.12976 1.88786
3894.08132 1.89011
3892.03288 1.89836
3889.98444 1.90928
3887.93600 1.91354
3885.88756 1.91815
3883.83913 1.92388
3881.79069 1.92503
3879.74225 1.92562
3877.69381 1.92317
3875.64537 1.91921
3873.59693 1.91801
3871.54850 1.91500
3869.50006 1.90954
3867.45162 1.90422
3865.40318 1.89797
3863.35474 1.89453
3861.30630 1.89224
3859.25787 1.88921
3857.20943 1.88844
3855.16099 1.89095
3853.11255 1.89964
3851.06411 1.90488
3849.01567 1.90379
3846.96724 1.90168
3844.91880 1.90114
3842.87036 1.90385
3840.82192 1.90626
3838.77348 1.90682
3836.72504 1.90782
3834.67661 1.90678
3832.62817 1.90546
3830.57973 1.90403
3828.53129 1.89963
3826.48285 1.89499
3824.43441 1.89328
3822.38598 1.89716
3820.33754 1.90507
3818.28910 1.90317
3816.24066 1.89542
3814.19222 1.88748
3812.14378 1.87971
3810.09535 1.87277
3808.04691 1.86933
3805.99847 1.87193
3803.95003 1.87578
3801.90159 1.88059
3799.85315 1.88386
3797.80472 1.88067
3795.75628 1.87708
3793.70784 1.87490
3791.65940 1.87235
3789.61096 1.86927
3787.56252 1.86540
3785.51409 1.86221
3783.46565 1.86185
3781.41721 1.86437
3779.36877 1.86820
3777.32033 1.86788
3775.27189 1.86390
3773.22346 1.86161
3771.17502 1.86275
3769.12658 1.86543
3767.07814 1.86588
3765.02970 1.86529
3762.98126 1.86475
3760.93283 1.86532
3758.88439 1.87000
3756.83595 1.87402
3754.78751 1.87484
3752.73907 1.87881
3750.69063 1.88975
3748.64219 1.89435
3746.59376 1.89517
3744.54532 1.89973
3742.49688 1.89780
3740.44844 1.89184
3738.40000 1.89001
3736.35156 1.89644
3734.30313 1.90379
3732.25469 1.89955
3730.20625 1.89364
3728.15781 1.89221
3726.10937 1.89430
3724.06093 1.89466
3722.01250 1.89103
3719.96406 1.88801
3717.91562 1.88757
3715.86718 1.88822
3713.81874 1.89122
3711.77030 1.90104
3709.72187 1.90861
3707.67343 1.90570
3705.62499 1.90108
3703.57655 1.89823
3701.52811 1.89683
3699.47967 1.89405
3697.43124 1.89132
3695.38280 1.89017
3693.33436 1.88968
3691.28592 1.89488
3689.23748 1.90870
3687.18904 1.91575
3685.14061 1.91647
3683.09217 1.91825
3681.04373 1.92025
3678.99529 1.92267
3676.94685 1.93339
3674.89841 1.95612
3672.84998 1.96611
3670.80154 1.96926
3668.75310 1.97306
3666.70466 1.97168
3664.65622 1.97048
3662.60778 1.97115
3660.55935 1.97260
3658.51091 1.97499
3656.46247 1.98029
3654.41403 1.98499
3652.36559 1.98460
3650.31715 1.98677
3648.26872 1.99539
3646.22028 1.99840
3644.17184 2.00202
3642.12340 2.00889
3640.07496 2.01553
3638.02652 2.02061
3635.97809 2.02508
3633.92965 2.03049
3631.88121 2.03681
3629.83277 2.04567
3627.78433 2.05804
3625.73589 2.06353
3623.68746 2.06568
3621.63902 2.06972
3619.59058 2.07706
3617.54214 2.08251
3615.49370 2.08585
3613.44526 2.09458
3611.39682 2.10620
3609.34839 2.11518
3607.29995 2.12227
3605.25151 2.12551
3603.20307 2.12971
3601.15463 2.13898
3599.10619 2.14563
3597.05776 2.15153
3595.00932 2.16504
3592.96088 2.17900
3590.91244 2.18564
3588.86400 2.19160
3586.81556 2.20456
3584.76713 2.21498
3582.71869 2.21775
3580.67025 2.22138
3578.62181 2.23163
3576.57337 2.24143
3574.52493 2.24510
3572.47650 2.24845
3570.42806 2.25566
3568.37962 2.26560
3566.33118 2.27412
3564.28274 2.27300
3562.23430 2.26902
3560.18587 2.26810
3558.13743 2.26620
3556.08899 2.26541
3554.04055 2.26992
3551.99211 2.27599
3549.94367 2.28180
3547.89524 2.29030
3545.84680 2.29833
3543.79836 2.30031
3541.74992 2.29985
3539.70148 2.30135
3537.65304 2.30560
3535.60461 2.31180
3533.55617 2.31734
3531.50773 2.32110
3529.45929 2.32312
3527.41085 2.32350
3525.36241 2.32784
3523.31398 2.33742
3521.26554 2.34266
3519.21710 2.34124
3517.16866 2.34067
3515.12022 2.34398
3513.07178 2.34735
3511.02335 2.34965
3508.97491 2.35336
3506.92647 2.35722
3504.87803 2.35958
3502.82959 2.35960
3500.78115 2.35854
3498.73272 2.36063
3496.68428 2.36474
3494.63584 2.36556
3492.58740 2.36396
3490.53896 2.36690
3488.49052 2.37472
3486.44209 2.38382
3484.39365 2.39363
3482.34521 2.39910
3480.29677 2.39586
3478.24833 2.39092
3476.19989 2.38899
3474.15146 2.38630
3472.10302 2.38346
3470.05458 2.38593
3468.00614 2.39236
3465.95770 2.39706
3463.90926 2.39746
3461.86082 2.39460
3459.81239 2.39396
3457.76395 2.39723
3455.71551 2.40325
3453.66707 2.41167
3451.61863 2.41737
3449.57019 2.41898
3447.52176 2.41658
3445.47332 2.41298
3443.42488 2.41599
3441.37644 2.42127
3439.32800 2.41445
3437.27956 2.38744
3435.23113 2.35315
3433.18269 2.33399
3431.13425 2.33620
3429.08581 2.34836
3427.03737 2.36011
3424.98893 2.37152
3422.94050 2.37726
3420.89206 2.37361
3418.84362 2.37401
3416.79518 2.38399
3414.74674 2.39468
3412.69830 2.39902
3410.64987 2.39472
3408.60143 2.38766
3406.55299 2.38761
3404.50455 2.39559
3402.45611 2.40294
3400.40767 2.40186
3398.35924 2.39956
3396.31080 2.40287
3394.26236 2.40406
3392.21392 2.40031
3390.16548 2.39813
3388.11704 2.40180
3386.06861 2.40549
3384.02017 2.40662
3381.97173 2.41074
3379.92329 2.41271
3377.87485 2.41068
3375.82641 2.40910
3373.77798 2.40558
3371.72954 2.40284
3369.68110 2.40491
3367.63266 2.40786
3365.58422 2.41017
3363.53578 2.41266
3361.48735 2.41391
3359.43891 2.41404
3357.39047 2.41186
3355.34203 2.40617
3353.29359 2.40160
3351.24515 2.40406
3349.19672 2.41209
3347.14828 2.41417
3345.09984 2.40721
3343.05140 2.40286
3341.00296 2.40289
3338.95452 2.40363
3336.90609 2.40521
3334.85765 2.40462
3332.80921 2.40169
3330.76077 2.40159
3328.71233 2.40311
3326.66389 2.40256
3324.61545 2.40480
3322.56702 2.40995
3320.51858 2.41149
3318.47014 2.40874
3316.42170 2.40694
3314.37326 2.40535
3312.32482 2.40012
3310.27639 2.39728
3308.22795 2.39865
3306.17951 2.39903
3304.13107 2.39706
3302.08263 2.39271
3300.03419 2.39148
3297.98576 2.40082
3295.93732 2.41116
3293.88888 2.41304
3291.84044 2.41322
3289.79200 2.41188
3287.74356 2.40872
3285.69513 2.40684
3283.64669 2.40512
3281.59825 2.40545
3279.54981 2.40796
3277.50137 2.40932
3275.45293 2.40988
3273.40450 2.41012
3271.35606 2.40595
3269.30762 2.39721
3267.25918 2.39248
3265.21074 2.39494
3263.16230 2.39897
3261.11387 2.40349
3259.06543 2.40861
3257.01699 2.40875
3254.96855 2.40262
3252.92011 2.39801
3250.87167 2.39792
3248.82324 2.39666
3246.77480 2.39371
3244.72636 2.39304
3242.67792 2.39295
3240.62948 2.39098
3238.58104 2.38911
3236.53261 2.38895
3234.48417 2.39075
3232.43573 2.39199
3230.38729 2.39003
3228.33885 2.38497
3226.29041 2.37958
3224.24198 2.38293
3222.19354 2.39475
3220.14510 2.39698
3218.09666 2.38595
3216.04822 2.37778
3213.99978 2.37780
3211.95135 2.38033
3209.90291 2.37914
3207.85447 2.37581
3205.80603 2.37663
3203.75759 2.38150
3201.70915 2.38480
3199.66072 2.38440
3197.61228 2.38373
3195.56384 2.38309
3193.51540 2.38279
3191.46696 2.38106
3189.41852 2.37501
3187.37008 2.36750
3185.32165 2.36473
3183.27321 2.36835
3181.22477 2.36890
3179.17633 2.36315
3177.12789 2.35869
3175.07945 2.35752
3173.03102 2.35800
3170.98258 2.36093
3168.93414 2.36388
3166.88570 2.36437
3164.83726 2.36257
3162.78882 2.35816
3160.74039 2.35502
3158.69195 2.35596
3156.64351 2.35606
3154.59507 2.35227
3152.54663 2.35107
3150.49819 2.35266
3148.44976 2.35082
3146.40132 2.34976
3144.35288 2.35332
3142.30444 2.35455
3140.25600 2.34817
3138.20756 2.34396
3136.15913 2.34817
3134.11069 2.35096
3132.06225 2.34834
3130.01381 2.34391
3127.96537 2.33864
3125.91693 2.33822
3123.86850 2.34495
3121.82006 2.34940
3119.77162 2.34512
3117.72318 2.33737
3115.67474 2.33288
3113.62630 2.33113
3111.57787 2.33020
3109.52943 2.32946
3107.48099 2.32848
3105.43255 2.32808
3103.38411 2.32710
3101.33567 2.32699
3099.28724 2.32892
3097.23880 2.32771
3095.19036 2.32261
3093.14192 2.31917
3091.09348 2.31893
3089.04504 2.32010
3086.99661 2.32170
3084.94817 2.32120
3082.89973 2.31717
3080.85129 2.31184
3078.80285 2.30851
3076.75441 2.30844
3074.70598 2.30899
3072.65754 2.30832
3070.60910 2.30808
3068.56066 2.31022
3066.51222 2.31326
3064.46378 2.31358
3062.41535 2.31187
3060.36691 2.31050
3058.31847 2.30916
3056.27003 2.30860
3054.22159 2.30951
3052.17315 2.30841
3050.12471 2.30408
3048.07628 2.30202
3046.02784 2.30533
3043.97940 2.30946
3041.93096 2.31083
3039.88252 2.31084
3037.83408 2.31061
3035.78565 2.31214
3033.73721 2.31538
3031.68877 2.31470
3029.64033 2.31026
3027.59189 2.30666
3025.54345 2.30500
3023.49502 2.30651
3021.44658 2.31153
3019.39814 2.31589
3017.34970 2.31444
3015.30126 2.30946
3013.25282 2.30825
3011.20439 2.31250
3009.15595 2.31626
3007.10751 2.31518
3005.05907 2.31307
3003.01063 2.31520
3000.96219 2.32001
2998.91376 2.32410
2996.86532 2.32757
2994.81688 2.32742
2992.76844 2.32338
2990.72000 2.32213
2988.67156 2.32236
2986.62313 2.31824
2984.57469 2.31455
2982.52625 2.31565
2980.47781 2.31665
2978.42937 2.31746
2976.38093 2.32105
2974.33250 2.32509
2972.28406 2.32650
2970.23562 2.32369
2968.18718 2.32081
2966.13874 2.32135
2964.09030 2.32204
2962.04187 2.32098
2959.99343 2.31954
2957.94499 2.31901
2955.89655 2.31883
2953.84811 2.31852
2951.79967 2.31785
2949.75124 2.31639
2947.70280 2.31444
2945.65436 2.31401
2943.60592 2.31678
2941.55748 2.31889
2939.50904 2.31859
2937.46061 2.32164
2935.41217 2.32770
2933.36373 2.32803
2931.31529 2.32268
2929.26685 2.31886
2927.21841 2.31799
2925.16998 2.31688
2923.12154 2.31390
2921.07310 2.31245
2919.02466 2.31402
2916.97622 2.31628
2914.92778 2.31585
2912.87934 2.31195
2910.83091 2.31024
2908.78247 2.31149
2906.73403 2.31000
2904.68559 2.30742
2902.63715 2.30682
2900.58871 2.30432
2898.54028 2.30191
2896.49184 2.30345
2894.44340 2.30404
2892.39496 2.30233
2890.34652 2.30089
2888.29808 2.29964
2886.24965 2.29962
2884.20121 2.29906
2882.15277 2.29599
2880.10433 2.29397
2878.05589 2.29404
2876.00745 2.29420
2873.95902 2.29644
2871.91058 2.29992
2869.86214 2.29611
2867.81370 2.28529
2865.76526 2.27820
2863.71682 2.27902
2861.66839 2.28383
2859.61995 2.28672
2857.57151 2.28469
2855.52307 2.27962
2853.47463 2.27632
2851.42619 2.27727
2849.37776 2.27801
2847.32932 2.27355
2845.28088 2.26604
2843.23244 2.26075
2841.18400 2.25974
2839.13556 2.26009
2837.08713 2.25763
2835.03869 2.25417
2832.99025 2.25414
2830.94181 2.25578
2828.89337 2.25372
2826.84493 2.24609
2824.79650 2.23752
2822.74806 2.23329
2820.69962 2.23072
2818.65118 2.22384
2816.60274 2.21389
2814.55430 2.20535
2812.50587 2.20049
2810.45743 2.19947
2808.40899 2.19693
2806.36055 2.19024
2804.31211 2.18340
2802.26367 2.17844
2800.21524 2.17596
2798.16680 2.17421
2796.11836 2.17107
2794.06992 2.16795
2792.02148 2.16404
2789.97304 2.15830
2787.92461 2.15482
2785.87617 2.15389
2783.82773 2.15068
2781.77929 2.14512
2779.73085 2.14008
2777.68241 2.13771
2775.63397 2.13730
2773.58554 2.13586
2771.53710 2.13374
2769.48866 2.13174
2767.44022 2.12959
2765.39178 2.12823
2763.34334 2.12644
2761.29491 2.12390
2759.24647 2.12264
2757.19803 2.12176
2755.14959 2.12104
2753.10115 2.12097
2751.05271 2.12020
2749.00428 2.11851
2746.95584 2.11546
2744.90740 2.11160
2742.85896 2.10987
2740.81052 2.11028
2738.76208 2.11043
2736.71365 2.10899
2734.66521 2.10628
2732.61677 2.10527
2730.56833 2.10652
2728.51989 2.10639
2726.47145 2.10431
2724.42302 2.10338
2722.37458 2.10283
2720.32614 2.09996
2718.27770 2.09632
2716.22926 2.09378
2714.18082 2.09259
2712.13239 2.09253
2710.08395 2.09243
2708.03551 2.09214
2705.98707 2.09201
2703.93863 2.09118
2701.89019 2.09008
2699.84176 2.09047
2697.79332 2.09155
2695.74488 2.09172
2693.69644 2.09162
2691.64800 2.09205
2689.59956 2.09239
2687.55113 2.09289
2685.50269 2.09452
2683.45425 2.09659
2681.40581 2.09875
2679.35737 2.10157
2677.30893 2.10544
2675.26050 2.11015
2673.21206 2.11438
2671.16362 2.11778
2669.11518 2.12187
2667.06674 2.12689
2665.01830 2.13038
2662.96987 2.13255
2660.92143 2.13538
2658.87299 2.13702
2656.82455 2.13764
2654.77611 2.14022
2652.72767 2.14344
2650.67924 2.14466
2648.63080 2.14518
2646.58236 2.14686
2644.53392 2.14931
2642.48548 2.15101
2640.43704 2.15200
2638.38860 2.15434
2636.34017 2.15808
2634.29173 2.16026
2632.24329 2.15885
2630.19485 2.15798
2628.14641 2.16132
2626.09797 2.16512
2624.04954 2.16709
2622.00110 2.16760
2619.95266 2.16640
2617.90422 2.16557
2615.85578 2.16618
2613.80734 2.16711
2611.75891 2.16857
2609.71047 2.17044
2607.66203 2.17191
2605.61359 2.17331
2603.56515 2.17411
2601.51671 2.17386
2599.46828 2.17275
2597.41984 2.17206
2595.37140 2.17404
2593.32296 2.17600
2591.27452 2.17474
2589.22608 2.17169
2587.17765 2.16740
2585.12921 2.16394
2583.08077 2.16529
2581.03233 2.16955
2578.98389 2.17180
2576.93545 2.17118
2574.88702 2.16922
2572.83858 2.16776
2570.79014 2.16879
2568.74170 2.17104
2566.69326 2.17199
2564.64482 2.17204
2562.59639 2.17232
2560.54795 2.17297
2558.49951 2.17306
2556.45107 2.17297
2554.40263 2.17304
2552.35419 2.17295
2550.30576 2.17383
2548.25732 2.17439
2546.20888 2.17321
2544.16044 2.17176
2542.11200 2.17208
2540.06356 2.17340
2538.01513 2.17256
2535.96669 2.17174
2533.91825 2.17486
2531.86981 2.17856
2529.82137 2.17905
2527.77293 2.17837
2525.72450 2.17859
2523.67606 2.18027
2521.62762 2.18181
2519.57918 2.17997
2517.53074 2.17682
2515.48230 2.17758
2513.43387 2.18076
2511.38543 2.18175
2509.33699 2.18176
2507.28855 2.18234
2505.24011 2.18124
2503.19167 2.17896
2501.14324 2.17725
2499.09480 2.17617
2497.04636 2.17674
2494.99792 2.17810
2492.94948 2.17782
2490.90104 2.17628
2488.85260 2.17615
2486.80417 2.17763
2484.75573 2.17799
2482.70729 2.17676
2480.65885 2.17576
2478.61041 2.17614
2476.56197 2.17618
2474.51354 2.17421
2472.46510 2.17112
2470.41666 2.16698
2468.36822 2.16378
2466.31978 2.16275
2464.27134 2.15978
2462.22291 2.15338
2460.17447 2.14678
2458.12603 2.14210
2456.07759 2.13857
2454.02915 2.13363
2451.98071 2.12722
2449.93228 2.12244
2447.88384 2.11896
2445.83540 2.11336
2443.78696 2.10736
2441.73852 2.10482
2439.69008 2.10436
2437.64165 2.10232
2435.59321 2.09850
2433.54477 2.09595
2431.49633 2.09550
2429.44789 2.09421
2427.39945 2.09054
2425.35102 2.08757
2423.30258 2.08663
2421.25414 2.08436
2419.20570 2.08090
2417.15726 2.07944
2415.10882 2.07991
2413.06039 2.07957
2411.01195 2.07748
2408.96351 2.07588
2406.91507 2.07516
2404.86663 2.07429
2402.81819 2.07394
2400.76976 2.07354
2398.72132 2.07223
2396.67288 2.07079
2394.62444 2.06910
2392.57600 2.06715
2390.52756 2.06555
2388.47913 2.06416
2386.43069 2.06325
2384.38225 2.06328
2382.33381 2.06341
2380.28537 2.06325
2378.23693 2.06461
2376.18850 2.06698
2374.14006 2.06928
2372.09162 2.07239
2370.04318 2.07085
2367.99474 2.06943
2365.94630 2.07682
2363.89787 2.07693
2361.84943 2.07090
2359.80099 2.07533
2357.75255 2.08193
2355.70411 2.08309
2353.65567 2.08235
2351.60723 2.08083
2349.55880 2.07845
2347.51036 2.07541
2345.46192 2.07213
2343.41348 2.07169
2341.36504 2.07372
2339.31660 2.07459
2337.26817 2.07467
2335.21973 2.07174
2333.17129 2.06615
2331.12285 2.06659
2329.07441 2.07304
2327.02597 2.07374
2324.97754 2.06982
2322.92910 2.07181
2320.88066 2.07671
2318.83222 2.07805
2316.78378 2.07893
2314.73534 2.07907
2312.68691 2.07936
2310.63847 2.08363
2308.59003 2.08756
2306.54159 2.08774
2304.49315 2.08834
2302.44471 2.09057
2300.39628 2.09069
2298.34784 2.09004
2296.29940 2.09383
2294.25096 2.10095
2292.20252 2.10533
2290.15408 2.10547
2288.10565 2.10446
2286.05721 2.10390
2284.00877 2.10489
2281.96033 2.10747
2279.91189 2.10961
2277.86345 2.10963
2275.81502 2.10873
2273.76658 2.11064
2271.71814 2.11512
2269.66970 2.11812
2267.62126 2.11850
2265.57282 2.11826
2263.52439 2.11906
2261.47595 2.12106
2259.42751 2.12268
2257.37907 2.12126
2255.33063 2.11773
2253.28219 2.11620
2251.23376 2.11700
2249.18532 2.11702
2247.13688 2.11642
2245.08844 2.11658
2243.04000 2.11624
2240.99156 2.11521
2238.94313 2.11549
2236.89469 2.11743
2234.84625 2.11978
2232.79781 2.12301
2230.74937 2.12523
2228.70093 2.12235
2226.65250 2.11778
2224.60406 2.11705
2222.55562 2.11970
2220.50718 2.12291
2218.45874 2.12405
2216.41030 2.12312
2214.36186 2.12291
2212.31343 2.12508
2210.26499 2.12897
2208.21655 2.13188
2206.16811 2.13230
2204.11967 2.13181
2202.07123 2.13143
2200.02280 2.13028
2197.97436 2.12803
2195.92592 2.12606
2193.87748 2.12496
2191.82904 2.12415
2189.78060 2.12340
2187.73217 2.12270
2185.68373 2.12231
2183.63529 2.12241
2181.58685 2.12222
2179.53841 2.12065
2177.48997 2.11826
2175.44154 2.11706
2173.39310 2.11701
2171.34466 2.11551
2169.29622 2.11240
2167.24778 2.10901
2165.19934 2.10657
2163.15091 2.10729
2161.10247 2.10965
2159.05403 2.11065
2157.00559 2.10957
2154.95715 2.10628
2152.90871 2.10242
2150.86028 2.09973
2148.81184 2.09731
2146.76340 2.09298
2144.71496 2.08820
2142.66652 2.08691
2140.61808 2.08700
2138.56965 2.08350
2136.52121 2.07797
2134.47277 2.07452
2132.42433 2.07294
2130.37589 2.07018
2128.32745 2.06775
2126.27902 2.06891
2124.23058 2.07071
2122.18214 2.07035
2120.13370 2.06930
2118.08526 2.06901
2116.03682 2.06869
2113.98839 2.06739
2111.93995 2.06660
2109.89151 2.06674
2107.84307 2.06630
2105.79463 2.06500
2103.74619 2.06364
2101.69776 2.06284
2099.64932 2.06136
2097.60088 2.05801
2095.55244 2.05629
2093.50400 2.05937
2091.45556 2.06428
2089.40713 2.06649
2087.35869 2.06533
2085.31025 2.06424
2083.26181 2.06583
2081.21337 2.06755
2079.16493 2.06774
2077.11649 2.06895
2075.06806 2.07087
2073.01962 2.07194
2070.97118 2.07221
2068.92274 2.07257
2066.87430 2.07498
2064.82586 2.07944
2062.77743 2.08438
2060.72899 2.08810
2058.68055 2.09025
2056.63211 2.09271
2054.58367 2.09560
2052.53523 2.09846
2050.48680 2.10212
2048.43836 2.10540
2046.38992 2.10629
2044.34148 2.10469
2042.29304 2.10288
2040.24460 2.10277
2038.19617 2.10315
2036.14773 2.10221
2034.09929 2.10111
2032.05085 2.10245
2030.00241 2.10483
2027.95397 2.10491
2025.90554 2.10373
2023.85710 2.10410
2021.80866 2.10492
2019.76022 2.10541
2017.71178 2.10725
2015.66334 2.10907
2013.61491 2.11008
2011.56647 2.11149
2009.51803 2.11401
2007.46959 2.11874
2005.42115 2.12338
2003.37271 2.12550
2001.32428 2.12712
1999.27584 2.12914
1997.22740 2.13096
1995.17896 2.13257
1993.13052 2.13321
1991.08208 2.13424
1989.03365 2.13852
1986.98521 2.14490
1984.93677 2.15010
1982.88833 2.15295
1980.83989 2.15367
1978.79145 2.15388
1976.74302 2.15619
1974.69458 2.16085
1972.64614 2.16519
1970.59770 2.16675
1968.54926 2.16831
1966.50082 2.17365
1964.45239 2.18036
1962.40395 2.18465
1960.35551 2.18765
1958.30707 2.19313
1956.25863 2.19902
1954.21019 2.20154
1952.16176 2.20292
1950.11332 2.20547
1948.06488 2.20950
1946.01644 2.21353
1943.96800 2.21569
1941.91956 2.21808
1939.87112 2.22183
1937.82269 2.22369
1935.77425 2.22367
1933.72581 2.22535
1931.67737 2.22837
1929.62893 2.22972
1927.58049 2.22987
1925.53206 2.23046
1923.48362 2.23183
1921.43518 2.23400
1919.38674 2.23713
1917.33830 2.24198
1915.28986 2.24612
1913.24143 2.24866
1911.19299 2.25071
1909.14455 2.25106
1907.09611 2.25206
1905.04767 2.25437
1902.99923 2.25565
1900.95080 2.25855
1898.90236 2.26187
1896.85392 2.26032
1894.80548 2.25789
1892.75704 2.25982
1890.70860 2.26364
1888.66017 2.26690
1886.61173 2.26735
1884.56329 2.26437
1882.51485 2.26044
1880.46641 2.25911
1878.41797 2.26088
1876.36954 2.26262
1874.32110 2.26391
1872.27266 2.26474
1870.22422 2.26450
1868.17578 2.26659
1866.12734 2.26919
1864.07891 2.26811
1862.03047 2.26548
1859.98203 2.26456
1857.93359 2.26707
1855.88515 2.27046
1853.83671 2.27184
1851.78828 2.27138
1849.73984 2.27152
1847.69140 2.27316
1845.64296 2.27656
1843.59452 2.28223
1841.54608 2.28225
1839.49765 2.27782
1837.44921 2.27710
1835.40077 2.27913
1833.35233 2.27742
1831.30389 2.27441
1829.25545 2.27593
1827.20702 2.27891
1825.15858 2.28146
1823.11014 2.28296
1821.06170 2.28109
1819.01326 2.27849
1816.96482 2.27899
1814.91639 2.28103
1812.86795 2.28088
1810.81951 2.28193
1808.77107 2.28559
1806.72263 2.28586
1804.67419 2.28236
1802.62575 2.27912
1800.57732 2.28000
1798.52888 2.28469
1796.48044 2.28799
1794.43200 2.28861
1792.38356 2.28986
1790.33512 2.29046
1788.28669 2.28855
1786.23825 2.28603
1784.18981 2.28410
1782.14137 2.28514
1780.09293 2.28758
1778.04449 2.28838
1775.99606 2.28813
1773.94762 2.28952
1771.89918 2.29491
1769.85074 2.29611
1767.80230 2.29228
1765.75386 2.29056
1763.70543 2.29299
1761.65699 2.29608
1759.60855 2.29398
1757.56011 2.29204
1755.51167 2.29395
1753.46323 2.29456
1751.41480 2.29632
1749.36636 2.30366
1747.31792 2.30864
1745.26948 2.31069
1743.22104 2.31387
1741.17260 2.31738
1739.12417 2.31881
1737.07573 2.31658
1735.02729 2.31495
1732.97885 2.31820
1730.93041 2.32023
1728.88197 2.32003
1726.83354 2.31932
1724.78510 2.32138
1722.73666 2.32743
1720.68822 2.33292
1718.63978 2.34070
1716.59134 2.35383
1714.54291 2.35594
1712.49447 2.35247
1710.44603 2.35450
1708.39759 2.36326
1706.34915 2.37416
1704.30071 2.38061
1702.25228 2.38448
1700.20384 2.38654
1698.15540 2.38140
1696.10696 2.38490
1694.05852 2.39509
1692.01008 2.40058
1689.96165 2.40910
1687.91321 2.41835
1685.86477 2.42196
1683.81633 2.42902
1681.76789 2.43376
1679.71945 2.43202
1677.67102 2.43073
1675.62258 2.43423
1673.57414 2.44508
1671.52570 2.45731
1669.47726 2.46241
1667.42882 2.45807
1665.38038 2.45477
1663.33195 2.45423
1661.28351 2.45291
1659.23507 2.45324
1657.18663 2.45449
1655.13819 2.45521
1653.08975 2.46930
1651.04132 2.48054
1648.99288 2.47727
1646.94444 2.47742
1644.89600 2.47760
1642.84756 2.47043
1640.79912 2.46480
1638.75069 2.46767
1636.70225 2.47873
1634.65381 2.47890
1632.60537 2.46995
1630.55693 2.46864
1628.50849 2.47686
1626.46006 2.48783
1624.41162 2.49366
1622.36318 2.49586
1620.31474 2.49610
1618.26630 2.49469
1616.21786 2.48783
1614.16943 2.48202
1612.12099 2.48185
1610.07255 2.48003
1608.02411 2.46850
1605.97567 2.45427
1603.92723 2.44652
1601.87880 2.43872
1599.83036 2.42737
1597.78192 2.41624
1595.73348 2.40375
1593.68504 2.38558
1591.63660 2.36126
1589.58817 2.33292
1587.53973 2.30128
1585.49129 2.26278
1583.44285 2.21497
1581.39441 2.16061
1579.34597 2.10633
1577.29754 2.03804
1575.24910 1.95456
1573.20066 1.90785
1571.15222 1.88407
1569.10378 1.86441
1567.05534 1.85036
1565.00691 1.84178
1562.95847 1.83618
1560.91003 1.83507
1558.86159 1.84371
1556.81315 1.84635
1554.76471 1.84387
1552.71628 1.84637
1550.66784 1.85325
1548.61940 1.86083
1546.57096 1.86633
1544.52252 1.87338
1542.47408 1.88619
1540.42565 1.90484
1538.37721 1.90951
1536.32877 1.90452
1534.28033 1.90750
1532.23189 1.92082
1530.18345 1.93154
1528.13501 1.94384
1526.08658 1.96334
1524.03814 1.98308
1521.98970 2.00771
1519.94126 2.03425
1517.89282 2.05441
1515.84438 2.07349
1513.79595 2.08507
1511.74751 2.09448
1509.69907 2.10731
1507.65063 2.13164
1505.60219 2.16294
1503.55375 2.17240
1501.50532 2.18145
1499.45688 2.19762
1497.40844 2.21727
1495.36000 2.22643
1493.31156 2.22781
1491.26312 2.23175
1489.21469 2.23293
1487.16625 2.21307
1485.11781 2.17424
1483.06937 2.11510
1481.02093 2.03263
1478.97249 1.95145
1476.92406 1.88252
1474.87562 1.81857
1472.82718 1.74790
1470.77874 1.69280
1468.73030 1.66971
1466.68186 1.66624
1464.63343 1.68537
1462.58499 1.71681
1460.53655 1.74489
1458.48811 1.77870
1456.43967 1.81926
1454.39123 1.83337
1452.34280 1.83743
1450.29436 1.84089
1448.24592 1.83980
1446.19748 1.82525
1444.14904 1.79454
1442.10060 1.75240
1440.05217 1.71135
1438.00373 1.67893
1435.95529 1.65537
1433.90685 1.64376
1431.85841 1.63878
1429.80997 1.63717
1427.76154 1.63730
1425.71310 1.63916
1423.66466 1.64342
1421.61622 1.64864
1419.56778 1.65823
1417.51934 1.67350
1415.47091 1.68653
1413.42247 1.70223
1411.37403 1.72684
1409.32559 1.75926
1407.27715 1.79574
1405.22871 1.83601
1403.18028 1.87106
1401.13184 1.89613
1399.08340 1.92084
1397.03496 1.94494
1394.98652 1.96579
1392.93808 1.98381
1390.88965 1.99715
1388.84121 2.00910
1386.79277 2.02066
1384.74433 2.02784
1382.69589 2.03319
1380.64745 2.04056
1378.59901 2.04899
1376.55058 2.05720
1374.50214 2.06756
1372.45370 2.07739
1370.40526 2.08364
1368.35682 2.08774
1366.30838 2.09184
1364.25995 2.10038
1362.21151 2.11237
1360.16307 2.11954
1358.11463 2.12172
1356.06619 2.12436
1354.01775 2.12795
1351.96932 2.13116
1349.92088 2.13495
1347.87244 2.13904
1345.82400 2.14200
1343.77556 2.14412
1341.72712 2.14785
1339.67869 2.15474
1337.63025 2.16085
1335.58181 2.16306
1333.53337 2.16439
1331.48493 2.16769
1329.43649 2.17277
1327.38806 2.17635
1325.33962 2.17731
1323.29118 2.17757
1321.24274 2.18004
1319.19430 2.18408
1317.14586 2.18644
1315.09743 2.18896
1313.04899 2.19257
1311.00055 2.19484
1308.95211 2.19725
1306.90367 2.20274
1304.85523 2.20796
1302.80680 2.20936
1300.75836 2.20955
1298.70992 2.21109
1296.66148 2.21325
1294.61304 2.21615
1292.56460 2.22074
1290.51617 2.22517
1288.46773 2.22757
1286.41929 2.22778
1284.37085 2.22679
1282.32241 2.22844
1280.27397 2.23405
1278.22554 2.23857
1276.17710 2.23898
1274.12866 2.23822
1272.08022 2.24096
1270.03178 2.24659
1267.98334 2.25097
1265.93491 2.25301
1263.88647 2.25346
1261.83803 2.25447
1259.78959 2.25771
1257.74115 2.26219
1255.69271 2.26550
1253.64428 2.26735
1251.59584 2.26785
1249.54740 2.26762
1247.49896 2.26904
1245.45052 2.27171
1243.40208 2.27364
1241.35364 2.27414
1239.30521 2.27416
1237.25677 2.27660
1235.20833 2.28225
1233.15989 2.28741
1231.11145 2.28835
1229.06301 2.28601
1227.01458 2.28477
1224.96614 2.28671
1222.91770 2.28938
1220.86926 2.28885
1218.82082 2.28612
1216.77238 2.28654
1214.72395 2.29081
1212.67551 2.29598
1210.62707 2.30041
1208.57863 2.30222
1206.53019 2.30123
1204.48175 2.30135
1202.43332 2.30493
1200.38488 2.31032
1198.33644 2.31432
1196.28800 2.31579
1194.23956 2.31639
1192.19112 2.31970
1190.14269 2.32602
1188.09425 2.32757
1186.04581 2.32446
1183.99737 2.32623
1181.94893 2.33236
1179.90049 2.33696
1177.85206 2.33844
1175.80362 2.33709
1173.75518 2.33542
1171.70674 2.33622
1169.65830 2.34051
1167.60986 2.34622
1165.56143 2.35040
1163.51299 2.35256
1161.46455 2.35301
1159.41611 2.35492
1157.36767 2.36017
1155.31923 2.36394
1153.27080 2.36324
1151.22236 2.36086
1149.17392 2.36073
1147.12548 2.36500
1145.07704 2.36958
1143.02860 2.37130
1140.98017 2.37210
1138.93173 2.37288
1136.88329 2.37550
1134.83485 2.37998
1132.78641 2.38329
1130.73797 2.38337
1128.68954 2.38081
1126.64110 2.38052
1124.59266 2.38548
1122.54422 2.39047
1120.49578 2.39099
1118.44734 2.39227
1116.39891 2.39701
1114.35047 2.39972
1112.30203 2.40127
1110.25359 2.40817
1108.20515 2.41767
1106.15671 2.42214
1104.10827 2.42578
1102.05984 2.43557
1100.01140 2.44506
1097.96296 2.44588
1095.91452 2.43894
1093.86608 2.43037
1091.81764 2.42438
1089.76921 2.42205
1087.72077 2.42606
1085.67233 2.43386
1083.62389 2.43916
1081.57545 2.44264
1079.52701 2.44566
1077.47858 2.44952
1075.43014 2.45589
1073.38170 2.45973
1071.33326 2.45838
1069.28482 2.45629
1067.23638 2.45476
1065.18795 2.45314
1063.13951 2.45362
1061.09107 2.45563
1059.04263 2.45574
1056.99419 2.45271
1054.94575 2.44962
1052.89732 2.45204
1050.84888 2.45888
1048.80044 2.46443
1046.75200 2.46736
1044.70356 2.46728
1042.65512 2.46550
1040.60669 2.46444
1038.55825 2.46378
1036.50981 2.46656
1034.46137 2.47223
1032.41293 2.47408
1030.36449 2.47411
1028.31606 2.47895
1026.26762 2.48910
1024.21918 2.49826
1022.17074 2.50060
1020.12230 2.50013
1018.07386 2.50068
1016.02543 2.50080
1013.97699 2.50317
1011.92855 2.51087
1009.88011 2.52058
1007.83167 2.52742
1005.78323 2.53309
1003.73480 2.54002
1001.68636 2.54810
999.63792 2.55788
997.58948 2.56287
995.54104 2.56222
993.49260 2.56697
991.44417 2.57741
989.39573 2.58061
987.34729 2.56784
985.29885 2.54298
983.25041 2.51112
981.20197 2.46886
979.15354 2.41199
977.10510 2.34892
975.05666 2.29287
973.00822 2.24789
970.95978 2.21357
968.91134 2.18681
966.86290 2.16233
964.81447 2.13740
962.76603 2.11142
960.71759 2.08477
958.66915 2.05967
956.62071 2.04082
954.57227 2.03163
952.52384 2.03307
950.47540 2.04483
948.42696 2.06557
946.37852 2.09321
944.33008 2.12394
942.28164 2.15520
940.23321 2.18545
938.18477 2.21079
936.13633 2.23049
934.08789 2.24813
932.03945 2.26460
929.99101 2.28038
927.94258 2.29735
925.89414 2.31301
923.84570 2.32219
921.79726 2.32741
919.74882 2.33646
917.70038 2.34976
915.65195 2.36342
913.60351 2.37341
911.55507 2.37639
909.50663 2.37731
907.45819 2.38460
905.40975 2.39762
903.36132 2.40847
901.31288 2.41504
899.26444 2.42004
897.21600 2.42604
895.16756 2.44055
893.11912 2.45813
891.07069 2.46378
889.02225 2.46708
886.97381 2.47555
884.92537 2.48323
882.87693 2.49224
880.82849 2.50261
878.78006 2.51666
876.73162 2.53759
874.68318 2.55438
872.63474 2.55575
870.58630 2.54953
868.53786 2.54452
866.48943 2.52961
864.44099 2.49086
862.39255 2.43001
860.34411 2.35921
858.29567 2.29004
856.24723 2.23499
854.19880 2.19968
852.15036 2.17528
850.10192 2.15797
848.05348 2.14905
846.00504 2.13830
843.95660 2.11757
841.90817 2.09552
839.85973 2.08498
837.81129 2.08782
835.76285 2.10109
833.71441 2.12526
831.66597 2.15590
829.61753 2.18044
827.56910 2.19701
825.52066 2.21741
823.47222 2.23696
821.42378 2.23483
819.37534 2.20687
817.32690 2.17011
815.27847 2.14514
813.23003 2.14257
811.18159 2.15803
809.13315 2.18357
807.08471 2.21148
805.03627 2.23338
802.98784 2.25116
800.93940 2.26425
798.89096 2.26878
796.84252 2.27533
794.79408 2.29198
792.74564 2.30866
790.69721 2.31484
788.64877 2.31348
786.60033 2.31495
784.55189 2.32738
782.50345 2.34759
780.45501 2.36522
778.40658 2.36786
776.35814 2.35919
774.30970 2.35159
772.26126 2.33690
770.21282 2.31239
768.16438 2.29078
766.11595 2.28174
764.06751 2.28334
762.01907 2.28829
759.97063 2.29414
757.92219 2.29889
755.87375 2.31175
753.82532 2.33160
751.77688 2.33530
749.72844 2.33071
747.68000 2.33769
745.63156 2.34974
743.58312 2.35848
741.53469 2.35731
739.48625 2.34446
737.43781 2.33069
735.38937 2.32364
733.34093 2.32771
731.29249 2.33716
729.24406 2.33755
727.19562 2.32722
725.14718 2.31749
723.09874 2.31777
721.05030 2.32744
719.00186 2.33452
716.95343 2.33011
714.90499 2.32997
712.85655 2.34391
710.80811 2.35255
708.75967 2.34584
706.71123 2.34200
704.66280 2.35291
702.61436 2.36613
700.56592 2.37036
698.51748 2.36702
696.46904 2.36129
694.42060 2.37059
692.37216 2.40279
690.32373 2.42793
688.27529 2.41925
686.22685 2.39862
684.17841 2.39438
682.12997 2.40826
680.08153 2.41216
678.03310 2.38930
675.98466 2.37552
673.93622 2.38819
671.88778 2.39742
669.83934 2.37813
667.79090 2.35717
665.74247 2.38448
663.69403 2.41396
661.64559 2.42557
659.59715 2.42135
657.54871 2.39953
655.50027 2.39462
653.45184 2.40254
651.40340 2.37730
649.35496 2.35404
647.30652 2.36352
645.25808 2.38256
643.20964 2.41528
641.16121 2.43865
639.11277 2.38902
637.06433 2.34824
635.01589 2.40858
632.96745 2.46357
630.91901 2.42740
628.87058 2.44753
626.82214 2.51328
624.77370 2.50626
622.72526 2.48156
620.67682 2.46902
618.62838 2.41447
616.57995 2.34744
614.53151 2.33161
612.48307 2.35833
610.43463 2.39779
608.38619 2.42241
606.33775 2.39168
604.28932 2.34669
602.24088 2.34752
600.19244 2.36626
598.14400 2.37960
