3996.50324 0.01839
3994.45480 0.01845
3992.40636 0.01841
3990.35792 0.01837
3988.30948 0.01841
3986.26104 0.01845
3984.21261 0.01845
3982.16417 0.01841
3980.11573 0.01836
3978.06729 0.01833
3976.01885 0.01831
3973.97041 0.01832
3971.92198 0.01830
3969.87354 0.01828
3967.82510 0.01832
3965.77666 0.01835
3963.72822 0.01834
3961.67978 0.01834
3959.63135 0.01835
3957.58291 0.01837
3955.53447 0.01839
3953.48603 0.01839
3951.43759 0.01838
3949.38915 0.01835
3947.34072 0.01833
3945.29228 0.01833
3943.24384 0.01838
3941.19540 0.01847
3939.14696 0.01848
3937.09852 0.01844
3935.05009 0.01844
3933.00165 0.01851
3930.95321 0.01856
3928.90477 0.01853
3926.85633 0.01842
3924.80789 0.01827
3922.75946 0.01829
3920.71102 0.01837
3918.66258 0.01831
3916.61414 0.01825
3914.56570 0.01834
3912.51726 0.01840
3910.46883 0.01837
3908.42039 0.01832
3906.37195 0.01822
3904.32351 0.01808
3902.27507 0.01800
3900.22663 0.01801
3898.17820 0.01810
3896.12976 0.01818
3894.08132 0.01819
3892.03288 0.01817
3889.98444 0.01819
3887.93600 0.01820
3885.88756 0.01815
3883.83913 0.01806
3881.79069 0.01804
3879.74225 0.01813
3877.69381 0.01823
3875.64537 0.01821
3873.59693 0.01809
3871.54850 0.01798
3869.50006 0.01793
3867.45162 0.01795
3865.40318 0.01794
3863.35474 0.01788
3861.30630 0.01789
3859.25787 0.01798
3857.20943 0.01809
3855.16099 0.01816
3853.11255 0.01801
3851.06411 0.01783
3849.01567 0.01793
3846.96724 0.01806
3844.91880 0.01805
3842.87036 0.01791
3840.82192 0.01777
3838.77348 0.01768
3836.72504 0.01780
3834.67661 0.01803
3832.62817 0.01812
3830.57973 0.01802
3828.53129 0.01790
3826.48285 0.01789
3824.43441 0.01789
3822.38598 0.01776
3820.33754 0.01765
3818.28910 0.01781
3816.24066 0.01798
3814.19222 0.01810
3812.14378 0.01824
3810.09535 0.01836
3808.04691 0.01832
3805.99847 0.01818
3803.95003 0.01805
3801.90159 0.01794
3799.85315 0.01805
3797.80472 0.01827
3795.75628 0.01843
3793.70784 0.01854
3791.65940 0.01858
3789.61096 0.01853
3787.56252 0.01842
3785.51409 0.01836
3783.46565 0.01841
3781.41721 0.01848
3779.36877 0.01850
3777.32033 0.01853
3775.27189 0.01855
3773.22346 0.01848
3771.17502 0.01831
3769.12658 0.01820
3767.07814 0.01825
3765.02970 0.01839
3762.98126 0.01845
3760.93283 0.01833
3758.88439 0.01817
3756.83595 0.01821
3754.78751 0.01827
3752.73907 0.01811
3750.69063 0.01780
3748.64219 0.01773
3746.59376 0.01777
3744.54532 0.01774
3742.49688 0.01775
3740.44844 0.01783
3738.40000 0.01788
3736.35156 0.01781
3734.30313 0.01771
3732.25469 0.01781
3730.20625 0.01797
3728.15781 0.01806
3726.10937 0.01805
3724.06093 0.01806
3722.01250 0.01811
3719.96406 0.01813
3717.91562 0.01817
3715.86718 0.01821
3713.81874 0.01817
3711.77030 0.01804
3709.72187 0.01801
3707.67343 0.01814
3705.62499 0.01824
3703.57655 0.01826
3701.52811 0.01820
3699.47967 0.01820
3697.43124 0.01827
3695.38280 0.01830
3693.33436 0.01821
3691.28592 0.01796
3689.23748 0.01773
3687.18904 0.01788
3685.14061 0.01810
3683.09217 0.01818
3681.04373 0.01809
3678.99529 0.01784
3676.94685 0.01755
3674.89841 0.01745
3672.84998 0.01756
3670.80154 0.01765
3668.75310 0.01779
3666.70466 0.01791
3664.65622 0.01793
3662.60778 0.01793
3660.55935 0.01792
3658.51091 0.01787
3656.46247 0.01780
3654.41403 0.01780
3652.36559 0.01775
3650.31715 0.01748
3648.26872 0.01732
3646.22028 0.01758
3644.17184 0.01777
3642.12340 0.01784
3640.07496 0.01788
3638.02652 0.01792
3635.97809 0.01783
3633.92965 0.01761
3631.88121 0.01743
3629.83277 0.01728
3627.78433 0.01727
3625.73589 0.01739
3623.68746 0.01738
3621.63902 0.01727
3619.59058 0.01710
3617.54214 0.01696
3615.49370 0.01692
3613.44526 0.01685
3611.39682 0.01675
3609.34839 0.01665
3607.29995 0.01657
3605.25151 0.01653
3603.20307 0.01640
3601.15463 0.01615
3599.10619 0.01591
3597.05776 0.01569
3595.00932 0.01536
3592.96088 0.01501
3590.91244 0.01477
3588.86400 0.01454
3586.81556 0.01439
3584.76713 0.01447
3582.71869 0.01461
3580.67025 0.01473
3578.62181 0.01482
3576.57337 0.01486
3574.52493 0.01480
3572.47650 0.01467
3570.42806 0.01448
3568.37962 0.01419
3566.33118 0.01384
3564.28274 0.01372
3562.23430 0.01382
3560.18587 0.01400
3558.13743 0.01420
3556.08899 0.01435
3554.04055 0.01442
3551.99211 0.01441
3549.94367 0.01445
3547.89524 0.01449
3545.84680 0.01451
3543.79836 0.01454
3541.74992 0.01457
3539.70148 0.01453
3537.65304 0.01443
3535.60461 0.01437
3533.55617 0.01439
3531.50773 0.01441
3529.45929 0.01437
3527.41085 0.01428
3525.36241 0.01419
3523.31398 0.01417
3521.26554 0.01424
3519.21710 0.01430
3517.16866 0.01429
3515.12022 0.01422
3513.07178 0.01413
3511.02335 0.01406
3508.97491 0.01401
3506.92647 0.01400
3504.87803 0.01402
3502.82959 0.01400
3500.78115 0.01395
3498.73272 0.01393
3496.68428 0.01391
3494.63584 0.01388
3492.58740 0.01387
3490.53896 0.01384
3488.49052 0.01379
3486.44209 0.01374
3484.39365 0.01366
3482.34521 0.01356
3480.29677 0.01350
3478.24833 0.01353
3476.19989 0.01356
3474.15146 0.01354
3472.10302 0.01349
3470.05458 0.01342
3468.00614 0.01332
3465.95770 0.01326
3463.90926 0.01326
3461.86082 0.01322
3459.81239 0.01318
3457.76395 0.01317
3455.71551 0.01315
3453.66707 0.01312
3451.61863 0.01310
3449.57019 0.01308
3447.52176 0.01303
3445.47332 0.01295
3443.42488 0.01289
3441.37644 0.01287
3439.32800 0.01284
3437.27956 0.01279
3435.23113 0.01273
3433.18269 0.01268
3431.13425 0.01259
3429.08581 0.01246
3427.03737 0.01232
3424.98893 0.01218
3422.94050 0.01207
3420.89206 0.01200
3418.84362 0.01195
3416.79518 0.01188
3414.74674 0.01179
3412.69830 0.01174
3410.64987 0.01175
3408.60143 0.01176
3406.55299 0.01172
3404.50455 0.01172
3402.45611 0.01177
3400.40767 0.01181
3398.35924 0.01181
3396.31080 0.01176
3394.26236 0.01171
3392.21392 0.01170
3390.16548 0.01170
3388.11704 0.01166
3386.06861 0.01168
3384.02017 0.01177
3381.97173 0.01183
3379.92329 0.01186
3377.87485 0.01187
3375.82641 0.01184
3373.77798 0.01184
3371.72954 0.01183
3369.68110 0.01179
3367.63266 0.01177
3365.58422 0.01179
3363.53578 0.01183
3361.48735 0.01189
3359.43891 0.01195
3357.39047 0.01198
3355.34203 0.01201
3353.29359 0.01206
3351.24515 0.01215
3349.19672 0.01222
3347.14828 0.01223
3345.09984 0.01219
3343.05140 0.01216
3341.00296 0.01220
3338.95452 0.01226
3336.90609 0.01226
3334.85765 0.01221
3332.80921 0.01216
3330.76077 0.01210
3328.71233 0.01208
3326.66389 0.01213
3324.61545 0.01218
3322.56702 0.01217
3320.51858 0.01218
3318.47014 0.01225
3316.42170 0.01233
3314.37326 0.01234
3312.32482 0.01233
3310.27639 0.01237
3308.22795 0.01244
3306.17951 0.01246
3304.13107 0.01246
3302.08263 0.01246
3300.03419 0.01244
3297.98576 0.01242
3295.93732 0.01243
3293.88888 0.01242
3291.84044 0.01240
3289.79200 0.01242
3287.74356 0.01246
3285.69513 0.01248
3283.64669 0.01250
3281.59825 0.01252
3279.54981 0.01252
3277.50137 0.01250
3275.45293 0.01245
3273.40450 0.01243
3271.35606 0.01247
3269.30762 0.01254
3267.25918 0.01262
3265.21074 0.01270
3263.16230 0.01272
3261.11387 0.01273
3259.06543 0.01275
3257.01699 0.01276
3254.96855 0.01281
3252.92011 0.01290
3250.87167 0.01298
3248.82324 0.01305
3246.77480 0.01310
3244.72636 0.01314
3242.67792 0.01320
3240.62948 0.01326
3238.58104 0.01333
3236.53261 0.01336
3234.48417 0.01331
3232.43573 0.01323
3230.38729 0.01322
3228.33885 0.01328
3226.29041 0.01334
3224.24198 0.01338
3222.19354 0.01343
3220.14510 0.01349
3218.09666 0.01352
3216.04822 0.01348
3213.99978 0.01343
3211.95135 0.01344
3209.90291 0.01350
3207.85447 0.01361
3205.80603 0.01371
3203.75759 0.01370
3201.70915 0.01367
3199.66072 0.01370
3197.61228 0.01375
3195.56384 0.01378
3193.51540 0.01379
3191.46696 0.01376
3189.41852 0.01373
3187.37008 0.01374
3185.32165 0.01381
3183.27321 0.01388
3181.22477 0.01388
3179.17633 0.01385
3177.12789 0.01387
3175.07945 0.01392
3173.03102 0.01397
3170.98258 0.01403
3168.93414 0.01412
3166.88570 0.01418
3164.83726 0.01421
3162.78882 0.01425
3160.74039 0.01433
3158.69195 0.01437
3156.64351 0.01439
3154.59507 0.01446
3152.54663 0.01449
3150.49819 0.01445
3148.44976 0.01445
3146.40132 0.01452
3144.35288 0.01461
3142.30444 0.01469
3140.25600 0.01469
3138.20756 0.01470
3136.15913 0.01479
3134.11069 0.01486
3132.06225 0.01487
3130.01381 0.01489
3127.96537 0.01496
3125.91693 0.01501
3123.86850 0.01501
3121.82006 0.01503
3119.77162 0.01506
3117.72318 0.01506
3115.67474 0.01507
3113.62630 0.01514
3111.57787 0.01518
3109.52943 0.01519
3107.48099 0.01520
3105.43255 0.01523
3103.38411 0.01524
3101.33567 0.01522
3099.28724 0.01522
3097.23880 0.01530
3095.19036 0.01536
3093.14192 0.01538
3091.09348 0.01540
3089.04504 0.01542
3086.99661 0.01540
3084.94817 0.01544
3082.89973 0.01551
3080.85129 0.01555
3078.80285 0.01558
3076.75441 0.01564
3074.70598 0.01569
3072.65754 0.01577
3070.60910 0.01585
3068.56066 0.01587
3066.51222 0.01583
3064.46378 0.01581
3062.41535 0.01588
3060.36691 0.01596
3058.31847 0.01597
3056.27003 0.01594
3054.22159 0.01595
3052.17315 0.01598
3050.12471 0.01600
3048.07628 0.01605
3046.02784 0.01616
3043.97940 0.01624
3041.93096 0.01628
3039.88252 0.01628
3037.83408 0.01629
3035.78565 0.01630
3033.73721 0.01630
3031.68877 0.01635
3029.64033 0.01642
3027.59189 0.01647
3025.54345 0.01651
3023.49502 0.01651
3021.44658 0.01651
3019.39814 0.01653
3017.34970 0.01654
3015.30126 0.01654
3013.25282 0.01655
3011.20439 0.01657
3009.15595 0.01661
3007.10751 0.01661
3005.05907 0.01663
3003.01063 0.01666
3000.96219 0.01669
2998.91376 0.01674
2996.86532 0.01680
2994.81688 0.01685
2992.76844 0.01683
2990.72000 0.01675
2988.67156 0.01676
2986.62313 0.01684
2984.57469 0.01690
2982.52625 0.01689
2980.47781 0.01685
2978.42937 0.01683
2976.38093 0.01686
2974.33250 0.01692
2972.28406 0.01696
2970.23562 0.01696
2968.18718 0.01694
2966.13874 0.01692
2964.09030 0.01688
2962.04187 0.01684
2959.99343 0.01684
2957.94499 0.01683
2955.89655 0.01679
2953.84811 0.01677
2951.79967 0.01679
2949.75124 0.01682
2947.70280 0.01684
2945.65436 0.01688
2943.60592 0.01691
2941.55748 0.01693
2939.50904 0.01691
2937.46061 0.01685
2935.41217 0.01679
2933.36373 0.01677
2931.31529 0.01680
2929.26685 0.01682
2927.21841 0.01684
2925.16998 0.01686
2923.12154 0.01686
2921.07310 0.01687
2919.02466 0.01692
2916.97622 0.01699
2914.92778 0.01703
2912.87934 0.01707
2910.83091 0.01708
2908.78247 0.01705
2906.73403 0.01703
2904.68559 0.01706
2902.63715 0.01710
2900.58871 0.01712
2898.54028 0.01714
2896.49184 0.01714
2894.44340 0.01715
2892.39496 0.01718
2890.34652 0.01723
2888.29808 0.01726
2886.24965 0.01727
2884.20121 0.01727
2882.15277 0.01729
2880.10433 0.01733
2878.05589 0.01735
2876.00745 0.01736
2873.95902 0.01735
2871.91058 0.01734
2869.86214 0.01734
2867.81370 0.01737
2865.76526 0.01738
2863.71682 0.01737
2861.66839 0.01739
2859.61995 0.01740
2857.57151 0.01739
2855.52307 0.01739
2853.47463 0.01738
2851.42619 0.01739
2849.37776 0.01744
2847.32932 0.01752
2845.28088 0.01758
2843.23244 0.01761
2841.18400 0.01763
2839.13556 0.01761
2837.08713 0.01757
2835.03869 0.01762
2832.99025 0.01767
2830.94181 0.01766
2828.89337 0.01765
2826.84493 0.01767
2824.79650 0.01769
2822.74806 0.01777
2820.69962 0.01785
2818.65118 0.01788
2816.60274 0.01789
2814.55430 0.01791
2812.50587 0.01791
2810.45743 0.01791
2808.40899 0.01793
2806.36055 0.01797
2804.31211 0.01800
2802.26367 0.01801
2800.21524 0.01800
2798.16680 0.01800
2796.11836 0.01802
2794.06992 0.01807
2792.02148 0.01812
2789.97304 0.01816
2787.92461 0.01818
2785.87617 0.01820
2783.82773 0.01824
2781.77929 0.01828
2779.73085 0.01829
2777.68241 0.01829
2775.63397 0.01830
2773.58554 0.01830
2771.53710 0.01827
2769.48866 0.01827
2767.44022 0.01833
2765.39178 0.01842
2763.34334 0.01847
2761.29491 0.01849
2759.24647 0.01847
2757.19803 0.01845
2755.14959 0.01847
2753.10115 0.01849
2751.05271 0.01849
2749.00428 0.01850
2746.95584 0.01852
2744.90740 0.01856
2742.85896 0.01861
2740.81052 0.01863
2738.76208 0.01863
2736.71365 0.01862
2734.66521 0.01862
2732.61677 0.01865
2730.56833 0.01871
2728.51989 0.01876
2726.47145 0.01878
2724.42302 0.01880
2722.37458 0.01883
2720.32614 0.01884
2718.27770 0.01886
2716.22926 0.01885
2714.18082 0.01882
2712.13239 0.01881
2710.08395 0.01883
2708.03551 0.01885
2705.98707 0.01886
2703.93863 0.01885
2701.89019 0.01883
2699.84176 0.01879
2697.79332 0.01876
2695.74488 0.01878
2693.69644 0.01881
2691.64800 0.01881
2689.59956 0.01881
2687.55113 0.01882
2685.50269 0.01883
2683.45425 0.01883
2681.40581 0.01882
2679.35737 0.01879
2677.30893 0.01876
2675.26050 0.01877
2673.21206 0.01879
2671.16362 0.01880
2669.11518 0.01880
2667.06674 0.01879
2665.01830 0.01875
2662.96987 0.01873
2660.92143 0.01872
2658.87299 0.01870
2656.82455 0.01871
2654.77611 0.01875
2652.72767 0.01873
2650.67924 0.01868
2648.63080 0.01868
2646.58236 0.01871
2644.53392 0.01870
2642.48548 0.01865
2640.43704 0.01863
2638.38860 0.01865
2636.34017 0.01868
2634.29173 0.01867
2632.24329 0.01867
2630.19485 0.01868
2628.14641 0.01869
2626.09797 0.01867
2624.04954 0.01861
2622.00110 0.01856
2619.95266 0.01856
2617.90422 0.01860
2615.85578 0.01859
2613.80734 0.01857
2611.75891 0.01858
2609.71047 0.01863
2607.66203 0.01864
2605.61359 0.01862
2603.56515 0.01859
2601.51671 0.01855
2599.46828 0.01854
2597.41984 0.01858
2595.37140 0.01863
2593.32296 0.01864
2591.27452 0.01862
2589.22608 0.01858
2587.17765 0.01856
2585.12921 0.01855
2583.08077 0.01857
2581.03233 0.01856
2578.98389 0.01852
2576.93545 0.01851
2574.88702 0.01852
2572.83858 0.01854
2570.79014 0.01851
2568.74170 0.01844
2566.69326 0.01841
2564.64482 0.01845
2562.59639 0.01847
2560.54795 0.01845
2558.49951 0.01843
2556.45107 0.01841
2554.40263 0.01837
2552.35419 0.01833
2550.30576 0.01832
2548.25732 0.01832
2546.20888 0.01833
2544.16044 0.01831
2542.11200 0.01827
2540.06356 0.01825
2538.01513 0.01824
2535.96669 0.01822
2533.91825 0.01820
2531.86981 0.01820
2529.82137 0.01820
2527.77293 0.01821
2525.72450 0.01823
2523.67606 0.01823
2521.62762 0.01821
2519.57918 0.01820
2517.53074 0.01819
2515.48230 0.01818
2513.43387 0.01819
2511.38543 0.01823
2509.33699 0.01827
2507.28855 0.01829
2505.24011 0.01829
2503.19167 0.01828
2501.14324 0.01826
2499.09480 0.01822
2497.04636 0.01819
2494.99792 0.01820
2492.94948 0.01822
2490.90104 0.01823
2488.85260 0.01821
2486.80417 0.01825
2484.75573 0.01831
2482.70729 0.01833
2480.65885 0.01830
2478.61041 0.01827
2476.56197 0.01827
2474.51354 0.01829
2472.46510 0.01830
2470.41666 0.01832
2468.36822 0.01837
2466.31978 0.01841
2464.27134 0.01842
2462.22291 0.01843
2460.17447 0.01848
2458.12603 0.01848
2456.07759 0.01846
2454.02915 0.01844
2451.98071 0.01844
2449.93228 0.01846
2447.88384 0.01846
2445.83540 0.01845
2443.78696 0.01847
2441.73852 0.01848
2439.69008 0.01849
2437.64165 0.01852
2435.59321 0.01856
2433.54477 0.01858
2431.49633 0.01858
2429.44789 0.01857
2427.39945 0.01855
2425.35102 0.01854
2423.30258 0.01855
2421.25414 0.01855
2419.20570 0.01856
2417.15726 0.01855
2415.10882 0.01855
2413.06039 0.01858
2411.01195 0.01862
2408.96351 0.01863
2406.91507 0.01862
2404.86663 0.01862
2402.81819 0.01865
2400.76976 0.01866
2398.72132 0.01867
2396.67288 0.01872
2394.62444 0.01875
2392.57600 0.01876
2390.52756 0.01876
2388.47913 0.01875
2386.43069 0.01874
2384.38225 0.01870
2382.33381 0.01863
2380.28537 0.01858
2378.23693 0.01856
2376.18850 0.01855
2374.14006 0.01852
2372.09162 0.01849
2370.04318 0.01846
2367.99474 0.01846
2365.94630 0.01851
2363.89787 0.01854
2361.84943 0.01845
2359.80099 0.01822
2357.75255 0.01807
2355.70411 0.01815
2353.65567 0.01827
2351.60723 0.01837
2349.55880 0.01845
2347.51036 0.01849
2345.46192 0.01843
2343.41348 0.01822
2341.36504 0.01810
2339.31660 0.01819
2337.26817 0.01829
2335.21973 0.01833
2333.17129 0.01834
2331.12285 0.01846
2329.07441 0.01864
2327.02597 0.01871
2324.97754 0.01872
2322.92910 0.01873
2320.88066 0.01874
2318.83222 0.01876
2316.78378 0.01882
2314.73534 0.01887
2312.68691 0.01889
2310.63847 0.01891
2308.59003 0.01894
2306.54159 0.01903
2304.49315 0.01915
2302.44471 0.01925
2300.39628 0.01927
2298.34784 0.01924
2296.29940 0.01925
2294.25096 0.01927
2292.20252 0.01930
2290.15408 0.01933
2288.10565 0.01933
2286.05721 0.01933
2284.00877 0.01936
2281.96033 0.01937
2279.91189 0.01938
2277.86345 0.01940
2275.81502 0.01940
2273.76658 0.01939
2271.71814 0.01940
2269.66970 0.01942
2267.62126 0.01943
2265.57282 0.01943
2263.52439 0.01944
2261.47595 0.01945
2259.42751 0.01947
2257.37907 0.01946
2255.33063 0.01944
2253.28219 0.01944
2251.23376 0.01944
2249.18532 0.01943
2247.13688 0.01945
2245.08844 0.01946
2243.04000 0.01948
2240.99156 0.01952
2238.94313 0.01955
2236.89469 0.01955
2234.84625 0.01952
2232.79781 0.01951
2230.74937 0.01951
2228.70093 0.01951
2226.65250 0.01953
2224.60406 0.01956
2222.55562 0.01959
2220.50718 0.01955
2218.45874 0.01950
2216.41030 0.01948
2214.36186 0.01949
2212.31343 0.01952
2210.26499 0.01955
2208.21655 0.01953
2206.16811 0.01953
2204.11967 0.01955
2202.07123 0.01954
2200.02280 0.01952
2197.97436 0.01952
2195.92592 0.01952
2193.87748 0.01954
2191.82904 0.01958
2189.78060 0.01959
2187.73217 0.01958
2185.68373 0.01958
2183.63529 0.01959
2181.58685 0.01959
2179.53841 0.01956
2177.48997 0.01952
2175.44154 0.01949
2173.39310 0.01952
2171.34466 0.01960
2169.29622 0.01965
2167.24778 0.01966
2165.19934 0.01965
2163.15091 0.01962
2161.10247 0.01960
2159.05403 0.01958
2157.00559 0.01955
2154.95715 0.01955
2152.90871 0.01957
2150.86028 0.01958
2148.81184 0.01955
2146.76340 0.01952
2144.71496 0.01953
2142.66652 0.01955
2140.61808 0.01956
2138.56965 0.01957
2136.52121 0.01959
2134.47277 0.01960
2132.42433 0.01958
2130.37589 0.01953
2128.32745 0.01951
2126.27902 0.01952
2124.23058 0.01953
2122.18214 0.01950
2120.13370 0.01946
2118.08526 0.01943
2116.03682 0.01942
2113.98839 0.01940
2111.93995 0.01937
2109.89151 0.01932
2107.84307 0.01928
2105.79463 0.01927
2103.74619 0.01929
2101.69776 0.01927
2099.64932 0.01923
2097.60088 0.01918
2095.55244 0.01914
2093.50400 0.01914
2091.45556 0.01913
2089.40713 0.01910
2087.35869 0.01911
2085.31025 0.01913
2083.26181 0.01913
2081.21337 0.01912
2079.16493 0.01911
2077.11649 0.01908
2075.06806 0.01906
2073.01962 0.01905
2070.97118 0.01903
2068.92274 0.01896
2066.87430 0.01892
2064.82586 0.01894
2062.77743 0.01895
2060.72899 0.01895
2058.68055 0.01895
2056.63211 0.01897
2054.58367 0.01900
2052.53523 0.01899
2050.48680 0.01897
2048.43836 0.01898
2046.38992 0.01897
2044.34148 0.01894
2042.29304 0.01892
2040.24460 0.01893
2038.19617 0.01894
2036.14773 0.01894
2034.09929 0.01892
2032.05085 0.01892
2030.00241 0.01893
2027.95397 0.01894
2025.90554 0.01894
2023.85710 0.01892
2021.80866 0.01889
2019.76022 0.01889
2017.71178 0.01889
2015.66334 0.01887
2013.61491 0.01885
2011.56647 0.01883
2009.51803 0.01884
2007.46959 0.01882
2005.42115 0.01878
2003.37271 0.01873
2001.32428 0.01869
1999.27584 0.01866
1997.22740 0.01862
1995.17896 0.01855
1993.13052 0.01851
1991.08208 0.01851
1989.03365 0.01850
1986.98521 0.01846
1984.93677 0.01842
1982.88833 0.01840
1980.83989 0.01838
1978.79145 0.01835
1976.74302 0.01833
1974.69458 0.01836
1972.64614 0.01841
1970.59770 0.01841
1968.54926 0.01834
1966.50082 0.01829
1964.45239 0.01830
1962.40395 0.01834
1960.35551 0.01836
1958.30707 0.01834
1956.25863 0.01832
1954.21019 0.01833
1952.16176 0.01832
1950.11332 0.01829
1948.06488 0.01826
1946.01644 0.01828
1943.96800 0.01833
1941.91956 0.01832
1939.87112 0.01830
1937.82269 0.01834
1935.77425 0.01839
1933.72581 0.01838
1931.67737 0.01836
1929.62893 0.01837
1927.58049 0.01838
1925.53206 0.01835
1923.48362 0.01828
1921.43518 0.01825
1919.38674 0.01826
1917.33830 0.01830
1915.28986 0.01832
1913.24143 0.01831
1911.19299 0.01831
1909.14455 0.01830
1907.09611 0.01828
1905.04767 0.01829
1902.99923 0.01831
1900.95080 0.01832
1898.90236 0.01833
1896.85392 0.01835
1894.80548 0.01835
1892.75704 0.01834
1890.70860 0.01831
1888.66017 0.01832
1886.61173 0.01837
1884.56329 0.01839
1882.51485 0.01840
1880.46641 0.01840
1878.41797 0.01839
1876.36954 0.01843
1874.32110 0.01849
1872.27266 0.01852
1870.22422 0.01850
1868.17578 0.01843
1866.12734 0.01839
1864.07891 0.01841
1862.03047 0.01844
1859.98203 0.01845
1857.93359 0.01843
1855.88515 0.01841
1853.83671 0.01840
1851.78828 0.01841
1849.73984 0.01843
1847.69140 0.01841
1845.64296 0.01834
1843.59452 0.01828
1841.54608 0.01831
1839.49765 0.01836
1837.44921 0.01840
1835.40077 0.01841
1833.35233 0.01839
1831.30389 0.01833
1829.25545 0.01831
1827.20702 0.01838
1825.15858 0.01841
1823.11014 0.01841
1821.06170 0.01845
1819.01326 0.01850
1816.96482 0.01851
1814.91639 0.01850
1812.86795 0.01849
1810.81951 0.01847
1808.77107 0.01847
1806.72263 0.01850
1804.67419 0.01850
1802.62575 0.01847
1800.57732 0.01846
1798.52888 0.01849
1796.48044 0.01851
1794.43200 0.01848
1792.38356 0.01846
1790.33512 0.01851
1788.28669 0.01858
1786.23825 0.01859
1784.18981 0.01856
1782.14137 0.01859
1780.09293 0.01864
1778.04449 0.01865
1775.99606 0.01861
1773.94762 0.01855
1771.89918 0.01850
1769.85074 0.01854
1767.80230 0.01861
1765.75386 0.01867
1763.70543 0.01871
1761.65699 0.01870
1759.60855 0.01865
1757.56011 0.01865
1755.51167 0.01867
1753.46323 0.01864
1751.41480 0.01854
1749.36636 0.01841
1747.31792 0.01839
1745.26948 0.01844
1743.22104 0.01848
1741.17260 0.01850
1739.12417 0.01849
1737.07573 0.01848
1735.02729 0.01844
1732.97885 0.01830
1730.93041 0.01824
1728.88197 0.01830
1726.83354 0.01837
1724.78510 0.01838
1722.73666 0.01833
1720.68822 0.01830
1718.63978 0.01826
1716.59134 0.01820
1714.54291 0.01819
1712.49447 0.01822
1710.44603 0.01825
1708.39759 0.01827
1706.34915 0.01826
1704.30071 0.01825
1702.25228 0.01824
1700.20384 0.01812
1698.15540 0.01793
1696.10696 0.01795
1694.05852 0.01806
1692.01008 0.01812
1689.96165 0.01809
1687.91321 0.01804
1685.86477 0.01808
1683.81633 0.01814
1681.76789 0.01812
1679.71945 0.01816
1677.67102 0.01822
1675.62258 0.01820
1673.57414 0.01810
1671.52570 0.01803
1669.47726 0.01799
1667.42882 0.01810
1665.38038 0.01822
1663.33195 0.01823
1661.28351 0.01827
1659.23507 0.01838
1657.18663 0.01845
1655.13819 0.01837
1653.08975 0.01814
1651.04132 0.01815
1648.99288 0.01826
1646.94444 0.01834
1644.89600 0.01844
1642.84756 0.01853
1640.79912 0.01859
1638.75069 0.01861
1636.70225 0.01857
1634.65381 0.01860
1632.60537 0.01874
1630.55693 0.01884
1628.50849 0.01886
1626.46006 0.01883
1624.41162 0.01881
1622.36318 0.01886
1620.31474 0.01897
1618.26630 0.01904
1616.21786 0.01911
1614.16943 0.01922
1612.12099 0.01931
1610.07255 0.01936
1608.02411 0.01941
1605.97567 0.01949
1603.92723 0.01959
1601.87880 0.01968
1599.83036 0.01979
1597.78192 0.01989
1595.73348 0.01992
1593.68504 0.01994
1591.63660 0.02001
1589.58817 0.02008
1587.53973 0.02013
1585.49129 0.02015
1583.44285 0.02015
1581.39441 0.02014
1579.34597 0.02008
1577.29754 0.01996
1575.24910 0.01999
1573.20066 0.02012
1571.15222 0.02015
1569.10378 0.02009
1567.05534 0.02007
1565.00691 0.02004
1562.95847 0.02002
1560.91003 0.01998
1558.86159 0.01972
1556.81315 0.01953
1554.76471 0.01955
1552.71628 0.01953
1550.66784 0.01945
1548.61940 0.01937
1546.57096 0.01925
1544.52252 0.01900
1542.47408 0.01869
1540.42565 0.01849
1538.37721 0.01855
1536.32877 0.01857
1534.28033 0.01845
1532.23189 0.01827
1530.18345 0.01819
1528.13501 0.01811
1526.08658 0.01798
1524.03814 0.01781
1521.98970 0.01761
1519.94126 0.01755
1517.89282 0.01758
1515.84438 0.01764
1513.79595 0.01768
1511.74751 0.01766
1509.69907 0.01755
1507.65063 0.01743
1505.60219 0.01763
1503.55375 0.01782
1501.50532 0.01789
1499.45688 0.01786
1497.40844 0.01783
1495.36000 0.01796
1493.31156 0.01808
1491.26312 0.01807
1489.21469 0.01801
1487.16625 0.01814
1485.11781 0.01834
1483.06937 0.01846
1481.02093 0.01851
1478.97249 0.01856
1476.92406 0.01858
1474.87562 0.01854
1472.82718 0.01853
1470.77874 0.01861
1468.73030 0.01866
1466.68186 0.01858
1464.63343 0.01849
1462.58499 0.01851
1460.53655 0.01849
1458.48811 0.01823
1456.43967 0.01808
1454.39123 0.01826
1452.34280 0.01838
1450.29436 0.01838
1448.24592 0.01830
1446.19748 0.01825
1444.14904 0.01825
1442.10060 0.01819
1440.05217 0.01806
1438.00373 0.01789
1435.95529 0.01772
1433.90685 0.01771
1431.85841 0.01772
1429.80997 0.01770
1427.76154 0.01768
1425.71310 0.01766
1423.66466 0.01762
1421.61622 0.01760
1419.56778 0.01756
1417.51934 0.01750
1415.47091 0.01744
1413.42247 0.01736
1411.37403 0.01725
1409.32559 0.01716
1407.27715 0.01710
1405.22871 0.01700
1403.18028 0.01691
1401.13184 0.01687
1399.08340 0.01682
1397.03496 0.01676
1394.98652 0.01671
1392.93808 0.01671
1390.88965 0.01674
1388.84121 0.01670
1386.79277 0.01667
1384.74433 0.01673
1382.69589 0.01678
1380.64745 0.01679
1378.59901 0.01679
1376.55058 0.01677
1374.50214 0.01675
1372.45370 0.01682
1370.40526 0.01692
1368.35682 0.01698
1366.30838 0.01702
1364.25995 0.01705
1362.21151 0.01707
1360.16307 0.01715
1358.11463 0.01722
1356.06619 0.01724
1354.01775 0.01723
1351.96932 0.01722
1349.92088 0.01721
1347.87244 0.01724
1345.82400 0.01726
1343.77556 0.01721
1341.72712 0.01711
1339.67869 0.01703
1337.63025 0.01704
1335.58181 0.01705
1333.53337 0.01702
1331.48493 0.01698
1329.43649 0.01695
1327.38806 0.01691
1325.33962 0.01686
1323.29118 0.01682
1321.24274 0.01676
1319.19430 0.01673
1317.14586 0.01673
1315.09743 0.01673
1313.04899 0.01674
1311.00055 0.01675
1308.95211 0.01673
1306.90367 0.01672
1304.85523 0.01673
1302.80680 0.01673
1300.75836 0.01670
1298.70992 0.01668
1296.66148 0.01667
1294.61304 0.01665
1292.56460 0.01663
1290.51617 0.01663
1288.46773 0.01664
1286.41929 0.01663
1284.37085 0.01661
1282.32241 0.01662
1280.27397 0.01663
1278.22554 0.01662
1276.17710 0.01657
1274.12866 0.01648
1272.08022 0.01642
1270.03178 0.01642
1267.98334 0.01642
1265.93491 0.01640
1263.88647 0.01638
1261.83803 0.01637
1259.78959 0.01635
1257.74115 0.01633
1255.69271 0.01631
1253.64428 0.01629
1251.59584 0.01630
1249.54740 0.01633
1247.49896 0.01638
1245.45052 0.01642
1243.40208 0.01643
1241.35364 0.01644
1239.30521 0.01645
1237.25677 0.01648
1235.20833 0.01654
1233.15989 0.01659
1231.11145 0.01662
1229.06301 0.01662
1227.01458 0.01662
1224.96614 0.01663
1222.91770 0.01665
1220.86926 0.01663
1218.82082 0.01658
1216.77238 0.01656
1214.72395 0.01657
1212.67551 0.01657
1210.62707 0.01656
1208.57863 0.01653
1206.53019 0.01650
1204.48175 0.01647
1202.43332 0.01642
1200.38488 0.01636
1198.33644 0.01630
1196.28800 0.01625
1194.23956 0.01621
1192.19112 0.01618
1190.14269 0.01615
1188.09425 0.01612
1186.04581 0.01605
1183.99737 0.01599
1181.94893 0.01596
1179.90049 0.01591
1177.85206 0.01583
1175.80362 0.01577
1173.75518 0.01572
1171.70674 0.01567
1169.65830 0.01559
1167.60986 0.01553
1165.56143 0.01549
1163.51299 0.01544
1161.46455 0.01538
1159.41611 0.01530
1157.36767 0.01520
1155.31923 0.01509
1153.27080 0.01503
1151.22236 0.01500
1149.17392 0.01499
1147.12548 0.01494
1145.07704 0.01479
1143.02860 0.01461
1140.98017 0.01442
1138.93173 0.01421
1136.88329 0.01399
1134.83485 0.01381
1132.78641 0.01363
1130.73797 0.01341
1128.68954 0.01322
1126.64110 0.01310
1124.59266 0.01304
1122.54422 0.01302
1120.49578 0.01301
1118.44734 0.01300
1116.39891 0.01299
1114.35047 0.01300
1112.30203 0.01303
1110.25359 0.01310
1108.20515 0.01315
1106.15671 0.01314
1104.10827 0.01313
1102.05984 0.01314
1100.01140 0.01315
1097.96296 0.01316
1095.91452 0.01316
1093.86608 0.01319
1091.81764 0.01324
1089.76921 0.01327
1087.72077 0.01326
1085.67233 0.01322
1083.62389 0.01316
1081.57545 0.01309
1079.52701 0.01305
1077.47858 0.01308
1075.43014 0.01312
1073.38170 0.01315
1071.33326 0.01317
1069.28482 0.01318
1067.23638 0.01317
1065.18795 0.01317
1063.13951 0.01318
1061.09107 0.01317
1059.04263 0.01311
1056.99419 0.01303
1054.94575 0.01303
1052.89732 0.01309
1050.84888 0.01317
1048.80044 0.01325
1046.75200 0.01335
1044.70356 0.01348
1042.65512 0.01360
1040.60669 0.01374
1038.55825 0.01390
1036.50981 0.01405
1034.46137 0.01419
1032.41293 0.01432
1030.36449 0.01440
1028.31606 0.01445
1026.26762 0.01449
1024.21918 0.01455
1022.17074 0.01464
1020.12230 0.01470
1018.07386 0.01470
1016.02543 0.01468
1013.97699 0.01469
1011.92855 0.01469
1009.88011 0.01463
1007.83167 0.01455
1005.78323 0.01449
1003.73480 0.01447
1001.68636 0.01440
999.63792 0.01426
997.58948 0.01413
995.54104 0.01401
993.49260 0.01390
991.44417 0.01382
989.39573 0.01375
987.34729 0.01368
985.29885 0.01362
983.25041 0.01358
981.20197 0.01357
979.15354 0.01364
977.10510 0.01380
975.05666 0.01392
973.00822 0.01398
970.95978 0.01403
968.91134 0.01408
966.86290 0.01409
964.81447 0.01408
962.76603 0.01403
960.71759 0.01395
958.66915 0.01387
956.62071 0.01377
954.57227 0.01367
952.52384 0.01358
950.47540 0.01346
948.42696 0.01332
946.37852 0.01328
944.33008 0.01331
942.28164 0.01330
940.23321 0.01321
938.18477 0.01314
936.13633 0.01312
934.08789 0.01313
932.03945 0.01316
929.99101 0.01321
927.94258 0.01325
925.89414 0.01329
923.84570 0.01335
921.79726 0.01338
919.74882 0.01336
917.70038 0.01338
915.65195 0.01347
913.60351 0.01353
911.55507 0.01353
909.50663 0.01353
907.45819 0.01359
905.40975 0.01360
903.36132 0.01354
901.31288 0.01351
899.26444 0.01347
897.21600 0.01335
895.16756 0.01325
893.11912 0.01323
891.07069 0.01320
889.02225 0.01312
886.97381 0.01305
884.92537 0.01304
882.87693 0.01308
880.82849 0.01307
878.78006 0.01299
876.73162 0.01288
874.68318 0.01284
872.63474 0.01291
870.58630 0.01300
868.53786 0.01303
866.48943 0.01301
864.44099 0.01305
862.39255 0.01313
860.34411 0.01314
858.29567 0.01309
856.24723 0.01312
854.19880 0.01321
852.15036 0.01333
850.10192 0.01339
848.05348 0.01332
846.00504 0.01317
843.95660 0.01310
841.90817 0.01300
839.85973 0.01286
837.81129 0.01281
835.76285 0.01284
833.71441 0.01282
831.66597 0.01282
829.61753 0.01288
827.56910 0.01292
825.52066 0.01292
823.47222 0.01285
821.42378 0.01262
819.37534 0.01227
817.32690 0.01200
815.27847 0.01192
813.23003 0.01209
811.18159 0.01231
809.13315 0.01237
807.08471 0.01226
805.03627 0.01214
802.98784 0.01212
800.93940 0.01209
798.89096 0.01199
796.84252 0.01194
794.79408 0.01197
792.74564 0.01194
790.69721 0.01184
788.64877 0.01180
786.60033 0.01184
784.55189 0.01191
782.50345 0.01192
780.45501 0.01184
778.40658 0.01173
776.35814 0.01168
774.30970 0.01164
772.26126 0.01164
770.21282 0.01172
768.16438 0.01181
766.11595 0.01188
764.06751 0.01191
762.01907 0.01184
759.97063 0.01162
757.92219 0.01137
755.87375 0.01120
753.82532 0.01112
751.77688 0.01112
749.72844 0.01112
747.68000 0.01107
745.63156 0.01108
743.58312 0.01114
741.53469 0.01103
739.48625 0.01079
737.43781 0.01067
735.38937 0.01055
733.34093 0.01039
731.29249 0.01033
729.24406 0.01031
727.19562 0.01026
725.14718 0.01023
723.09874 0.01023
721.05030 0.01023
719.00186 0.01016
716.95343 0.01003
714.90499 0.00985
712.85655 0.00971
710.80811 0.00966
708.75967 0.00967
706.71123 0.00973
704.66280 0.00973
702.61436 0.00952
700.56592 0.00919
698.51748 0.00914
696.46904 0.00938
694.42060 0.00950
692.37216 0.00943
690.32373 0.00934
688.27529 0.00918
686.22685 0.00909
684.17841 0.00908
682.12997 0.00892
680.08153 0.00868
678.03310 0.00863
675.98466 0.00868
673.93622 0.00851
671.88778 0.00843
669.83934 0.00889
667.79090 0.00932
665.74247 0.00911
663.69403 0.00923
661.64559 0.00976
659.59715 0.00995
657.54871 0.00971
655.50027 0.00978
653.45184 0.01005
651.40340 0.00977
649.35496 0.00921
647.30652 0.00900
645.25808 0.00912
643.20964 0.00935
641.16121 0.00955
639.11277 0.00972
637.06433 0.00977
635.01589 0.00951
632.96745 0.00948
630.91901 0.00989
628.87058 0.01016
626.82214 0.01011
624.77370 0.00984
622.72526 0.01000
620.67682 0.01102
618.62838 0.01144
616.57995 0.01073
614.53151 0.01082
612.48307 0.01158
610.43463 0.01096
608.38619 0.00975
606.33775 0.01016
604.28932 0.01117
602.24088 0.01050
600.19244 0.00904
598.14400 0.00838
