3996.50324 1.88034
3994.45480 1.87967
3992.40636 1.88083
3990.35792 1.88231
3988.30948 1.88343
3986.26104 1.88466
3984.21261 1.88680
3982.16417 1.89038
3980.11573 1.89514
3978.06729 1.89973
3976.01885 1.90168
3973.97041 1.90229
3971.92198 1.90403
3969.87354 1.90579
3967.82510 1.90504
3965.77666 1.90165
3963.72822 1.89940
3961.67978 1.89865
3959.63135 1.89760
3957.58291 1.89610
3955.53447 1.89446
3953.48603 1.89406
3951.43759 1.89334
3949.38915 1.89060
3947.34072 1.88864
3945.29228 1.89047
3943.24384 1.89372
3941.19540 1.89352
3939.14696 1.89209
3937.09852 1.89223
3935.05009 1.89262
3933.00165 1.89343
3930.95321 1.89484
3928.90477 1.89516
3926.85633 1.89554
3924.80789 1.89945
3922.75946 1.90400
3920.71102 1.90424
3918.66258 1.90363
3916.61414 1.90469
3914.56570 1.90421
3912.51726 1.90291
3910.46883 1.90359
3908.42039 1.90473
3906.37195 1.90439
3904.32351 1.90319
3902.27507 1.90329
3900.22663 1.90743
3898.17820 1.91348
3896.12976 1.91731
3894.08132 1.91965
3892.03288 1.92213
3889.98444 1.92461
3887.93600 1.92733
3885.88756 1.93000
3883.83913 1.93169
3881.79069 1.93213
3879.74225 1.93029
3877.69381 1.92819
3875.64537 1.92761
3873.59693 1.92803
3871.54850 1.92750
3869.50006 1.92471
3867.45162 1.92294
3865.40318 1.92286
3863.35474 1.92118
3861.30630 1.91861
3859.25787 1.91757
3857.20943 1.91773
3855.16099 1.92205
3853.11255 1.93191
3851.06411 1.93033
3849.01567 1.92520
3846.96724 1.92437
3844.91880 1.92673
3842.87036 1.92800
3840.82192 1.92332
3838.77348 1.91695
3836.72504 1.91889
3834.67661 1.92470
3832.62817 1.92731
3830.57973 1.92626
3828.53129 1.92477
3826.48285 1.92457
3824.43441 1.92480
3822.38598 1.92484
3820.33754 1.92713
3818.28910 1.92761
3816.24066 1.92001
3814.19222 1.91147
3812.14378 1.90815
3810.09535 1.90774
3808.04691 1.91090
3805.99847 1.91491
3803.95003 1.91470
3801.90159 1.91374
3799.85315 1.91039
3797.80472 1.90582
3795.75628 1.90482
3793.70784 1.90239
3791.65940 1.89735
3789.61096 1.89507
3787.56252 1.89718
3785.51409 1.89911
3783.46565 1.89739
3781.41721 1.89442
3779.36877 1.89189
3777.32033 1.89041
3775.27189 1.89071
3773.22346 1.89310
3771.17502 1.89538
3769.12658 1.89492
3767.07814 1.89397
3765.02970 1.89473
3762.98126 1.89616
3760.93283 1.89747
3758.88439 1.89860
3756.83595 1.89999
3754.78751 1.90224
3752.73907 1.90426
3750.69063 1.90558
3748.64219 1.90714
3746.59376 1.90875
3744.54532 1.91054
3742.49688 1.91200
3740.44844 1.91317
3738.40000 1.91725
3736.35156 1.92580
3734.30313 1.92926
3732.25469 1.92183
3730.20625 1.91531
3728.15781 1.91437
3726.10937 1.91500
3724.06093 1.91338
3722.01250 1.91106
3719.96406 1.90994
3717.91562 1.90949
3715.86718 1.90961
3713.81874 1.91225
3711.77030 1.91692
3709.72187 1.91680
3707.67343 1.91137
3705.62499 1.90592
3703.57655 1.90265
3701.52811 1.90138
3699.47967 1.90044
3697.43124 1.90014
3695.38280 1.90176
3693.33436 1.90439
3691.28592 1.90759
3689.23748 1.91027
3687.18904 1.90899
3685.14061 1.90722
3683.09217 1.90684
3681.04373 1.90874
3678.99529 1.91500
3676.94685 1.92495
3674.89841 1.93267
3672.84998 1.93332
3670.80154 1.93211
3668.75310 1.92904
3666.70466 1.92555
3664.65622 1.92370
3662.60778 1.92319
3660.55935 1.92383
3658.51091 1.92547
3656.46247 1.92682
3654.41403 1.92577
3652.36559 1.92558
3650.31715 1.93057
3648.26872 1.93052
3646.22028 1.92338
3644.17184 1.92274
3642.12340 1.92477
3640.07496 1.92531
3638.02652 1.92737
3635.97809 1.93106
3633.92965 1.93135
3631.88121 1.92871
3629.83277 1.92978
3627.78433 1.93519
3625.73589 1.93419
3623.68746 1.93192
3621.63902 1.93252
3619.59058 1.93612
3617.54214 1.94200
3615.49370 1.94429
3613.44526 1.94179
3611.39682 1.93919
3609.34839 1.93841
3607.29995 1.93758
3605.25151 1.93731
3603.20307 1.93910
3601.15463 1.94279
3599.10619 1.94605
3597.05776 1.94770
3595.00932 1.94945
3592.96088 1.95180
3590.91244 1.95392
3588.86400 1.95584
3586.81556 1.95805
3584.76713 1.95851
3582.71869 1.95797
3580.67025 1.95965
3578.62181 1.96223
3576.57337 1.96345
3574.52493 1.96448
3572.47650 1.96585
3570.42806 1.96704
3568.37962 1.96781
3566.33118 1.96812
3564.28274 1.96660
3562.23430 1.96396
3560.18587 1.96244
3558.13743 1.96227
3556.08899 1.96264
3554.04055 1.96315
3551.99211 1.96297
3549.94367 1.96276
3547.89524 1.96413
3545.84680 1.96528
3543.79836 1.96417
3541.74992 1.96251
3539.70148 1.96118
3537.65304 1.96082
3535.60461 1.96241
3533.55617 1.96442
3531.50773 1.96588
3529.45929 1.96698
3527.41085 1.96783
3525.36241 1.96860
3523.31398 1.96779
3521.26554 1.96735
3519.21710 1.96843
3517.16866 1.96871
3515.12022 1.96925
3513.07178 1.97030
3511.02335 1.97061
3508.97491 1.97072
3506.92647 1.97168
3504.87803 1.97324
3502.82959 1.97403
3500.78115 1.97419
3498.73272 1.97392
3496.68428 1.97378
3494.63584 1.97467
3492.58740 1.97591
3490.53896 1.97599
3488.49052 1.97364
3486.44209 1.97262
3484.39365 1.97696
3482.34521 1.98166
3480.29677 1.98162
3478.24833 1.97915
3476.19989 1.97613
3474.15146 1.97390
3472.10302 1.97406
3470.05458 1.97468
3468.00614 1.97335
3465.95770 1.97067
3463.90926 1.96915
3461.86082 1.96993
3459.81239 1.97151
3457.76395 1.97181
3455.71551 1.97057
3453.66707 1.96886
3451.61863 1.96698
3449.57019 1.96539
3447.52176 1.96423
3445.47332 1.96126
3443.42488 1.95631
3441.37644 1.95349
3439.32800 1.95902
3437.27956 1.97540
3435.23113 1.99375
3433.18269 2.00146
3431.13425 1.99884
3429.08581 1.99546
3427.03737 1.99532
3424.98893 1.99523
3422.94050 1.99296
3420.89206 1.98891
3418.84362 1.98429
3416.79518 1.98185
3414.74674 1.98235
3412.69830 1.98335
3410.64987 1.98334
3408.60143 1.98288
3406.55299 1.98241
3404.50455 1.98134
3402.45611 1.97998
3400.40767 1.97881
3398.35924 1.97739
3396.31080 1.97683
3394.26236 1.97705
3392.21392 1.97701
3390.16548 1.97832
3388.11704 1.98080
3386.06861 1.98075
3384.02017 1.97848
3381.97173 1.97836
3379.92329 1.97914
3377.87485 1.97841
3375.82641 1.97751
3373.77798 1.97681
3371.72954 1.97736
3369.68110 1.97940
3367.63266 1.98068
3365.58422 1.98084
3363.53578 1.98163
3361.48735 1.98336
3359.43891 1.98363
3357.39047 1.98232
3355.34203 1.98170
3353.29359 1.98073
3351.24515 1.97850
3349.19672 1.97713
3347.14828 1.97759
3345.09984 1.97990
3343.05140 1.98345
3341.00296 1.98496
3338.95452 1.98291
3336.90609 1.98091
3334.85765 1.97996
3332.80921 1.97700
3330.76077 1.97468
3328.71233 1.97505
3326.66389 1.97413
3324.61545 1.97182
3322.56702 1.97268
3320.51858 1.97738
3318.47014 1.97954
3316.42170 1.97614
3314.37326 1.97252
3312.32482 1.97229
3310.27639 1.97429
3308.22795 1.97567
3306.17951 1.97563
3304.13107 1.97536
3302.08263 1.97453
3300.03419 1.97288
3297.98576 1.97153
3295.93732 1.97151
3293.88888 1.97266
3291.84044 1.97375
3289.79200 1.97429
3287.74356 1.97525
3285.69513 1.97601
3283.64669 1.97535
3281.59825 1.97440
3279.54981 1.97327
3277.50137 1.97266
3275.45293 1.97417
3273.40450 1.97362
3271.35606 1.96954
3269.30762 1.96856
3267.25918 1.97065
3265.21074 1.97088
3263.16230 1.97046
3261.11387 1.96958
3259.06543 1.96659
3257.01699 1.96429
3254.96855 1.96419
3252.92011 1.96478
3250.87167 1.96503
3248.82324 1.96444
3246.77480 1.96328
3244.72636 1.96255
3242.67792 1.96255
3240.62948 1.96265
3238.58104 1.96293
3236.53261 1.96391
3234.48417 1.96553
3232.43573 1.96630
3230.38729 1.96586
3228.33885 1.96587
3226.29041 1.96602
3224.24198 1.96420
3222.19354 1.96081
3220.14510 1.95981
3218.09666 1.96094
3216.04822 1.96029
3213.99978 1.95918
3211.95135 1.95923
3209.90291 1.95878
3207.85447 1.95694
3205.80603 1.95451
3203.75759 1.95429
3201.70915 1.95800
3199.66072 1.96219
3197.61228 1.96373
3195.56384 1.96316
3193.51540 1.96095
3191.46696 1.95849
3189.41852 1.95752
3187.37008 1.95758
3185.32165 1.95839
3183.27321 1.96033
3181.22477 1.96190
3179.17633 1.96158
3177.12789 1.96000
3175.07945 1.95817
3173.03102 1.95695
3170.98258 1.95666
3168.93414 1.95661
3166.88570 1.95516
3164.83726 1.95213
3162.78882 1.94975
3160.74039 1.94894
3158.69195 1.94931
3156.64351 1.94922
3154.59507 1.94770
3152.54663 1.94733
3150.49819 1.94907
3148.44976 1.95002
3146.40132 1.95007
3144.35288 1.95216
3142.30444 1.95527
3140.25600 1.95613
3138.20756 1.95392
3136.15913 1.95078
3134.11069 1.94844
3132.06225 1.94666
3130.01381 1.94775
3127.96537 1.95181
3125.91693 1.95352
3123.86850 1.95163
3121.82006 1.94988
3119.77162 1.94991
3117.72318 1.95024
3115.67474 1.94913
3113.62630 1.94777
3111.57787 1.94827
3109.52943 1.94897
3107.48099 1.94788
3105.43255 1.94646
3103.38411 1.94572
3101.33567 1.94520
3099.28724 1.94483
3097.23880 1.94515
3095.19036 1.94617
3093.14192 1.94663
3091.09348 1.94657
3089.04504 1.94672
3086.99661 1.94691
3084.94817 1.94733
3082.89973 1.94773
3080.85129 1.94809
3078.80285 1.94815
3076.75441 1.94720
3074.70598 1.94734
3072.65754 1.94877
3070.60910 1.94895
3068.56066 1.94828
3066.51222 1.94750
3064.46378 1.94793
3062.41535 1.94960
3060.36691 1.94978
3058.31847 1.94871
3056.27003 1.94810
3054.22159 1.94856
3052.17315 1.94954
3050.12471 1.94979
3048.07628 1.94986
3046.02784 1.95114
3043.97940 1.95333
3041.93096 1.95488
3039.88252 1.95544
3037.83408 1.95626
3035.78565 1.95762
3033.73721 1.95862
3031.68877 1.95844
3029.64033 1.95870
3027.59189 1.96068
3025.54345 1.96107
3023.49502 1.96013
3021.44658 1.96198
3019.39814 1.96708
3017.34970 1.97210
3015.30126 1.97280
3013.25282 1.97053
3011.20439 1.97013
3009.15595 1.97264
3007.10751 1.97542
3005.05907 1.97674
3003.01063 1.97760
3000.96219 1.97748
2998.91376 1.97620
2996.86532 1.97743
2994.81688 1.98178
2992.76844 1.98470
2990.72000 1.98376
2988.67156 1.98167
2986.62313 1.98210
2984.57469 1.98435
2982.52625 1.98643
2980.47781 1.98829
2978.42937 1.98979
2976.38093 1.98953
2974.33250 1.98768
2972.28406 1.98704
2970.23562 1.98833
2968.18718 1.98961
2966.13874 1.98861
2964.09030 1.98629
2962.04187 1.98624
2959.99343 1.98789
2957.94499 1.98763
2955.89655 1.98610
2953.84811 1.98639
2951.79967 1.98783
2949.75124 1.98883
2947.70280 1.98967
2945.65436 1.98996
2943.60592 1.99057
2941.55748 1.99240
2939.50904 1.99374
2937.46061 1.99372
2935.41217 1.99196
2933.36373 1.98978
2931.31529 1.98972
2929.26685 1.98973
2927.21841 1.98794
2925.16998 1.98656
2923.12154 1.98519
2921.07310 1.98279
2919.02466 1.98266
2916.97622 1.98595
2914.92778 1.98979
2912.87934 1.99171
2910.83091 1.99208
2908.78247 1.99335
2906.73403 1.99516
2904.68559 1.99559
2902.63715 1.99478
2900.58871 1.99359
2898.54028 1.99241
2896.49184 1.99190
2894.44340 1.99234
2892.39496 1.99322
2890.34652 1.99393
2888.29808 1.99394
2886.24965 1.99397
2884.20121 1.99373
2882.15277 1.99139
2880.10433 1.98866
2878.05589 1.98807
2876.00745 1.98876
2873.95902 1.98896
2871.91058 1.98799
2869.86214 1.98637
2867.81370 1.98475
2865.76526 1.98417
2863.71682 1.98444
2861.66839 1.98327
2859.61995 1.98088
2857.57151 1.97902
2855.52307 1.97863
2853.47463 1.98029
2851.42619 1.98323
2849.37776 1.98567
2847.32932 1.98544
2845.28088 1.98331
2843.23244 1.98221
2841.18400 1.98272
2839.13556 1.98391
2837.08713 1.98443
2835.03869 1.98414
2832.99025 1.98471
2830.94181 1.98664
2828.89337 1.98762
2826.84493 1.98514
2824.79650 1.98050
2822.74806 1.97706
2820.69962 1.97528
2818.65118 1.97347
2816.60274 1.97026
2814.55430 1.96516
2812.50587 1.96008
2810.45743 1.95689
2808.40899 1.95526
2806.36055 1.95376
2804.31211 1.95119
2802.26367 1.94810
2800.21524 1.94567
2798.16680 1.94432
2796.11836 1.94388
2794.06992 1.94375
2792.02148 1.94304
2789.97304 1.94164
2787.92461 1.94006
2785.87617 1.93812
2783.82773 1.93614
2781.77929 1.93520
2779.73085 1.93426
2777.68241 1.93246
2775.63397 1.93164
2773.58554 1.93122
2771.53710 1.93009
2769.48866 1.93023
2767.44022 1.93159
2765.39178 1.93268
2763.34334 1.93358
2761.29491 1.93341
2759.24647 1.93130
2757.19803 1.92960
2755.14959 1.93050
2753.10115 1.93226
2751.05271 1.93221
2749.00428 1.93045
2746.95584 1.92920
2744.90740 1.92920
2742.85896 1.92904
2740.81052 1.92822
2738.76208 1.92828
2736.71365 1.93018
2734.66521 1.93245
2732.61677 1.93347
2730.56833 1.93298
2728.51989 1.93111
2726.47145 1.92949
2724.42302 1.92997
2722.37458 1.93085
2720.32614 1.93018
2718.27770 1.92895
2716.22926 1.92891
2714.18082 1.93030
2712.13239 1.93141
2710.08395 1.93147
2708.03551 1.93193
2705.98707 1.93322
2703.93863 1.93349
2701.89019 1.93312
2699.84176 1.93415
2697.79332 1.93570
2695.74488 1.93646
2693.69644 1.93663
2691.64800 1.93658
2689.59956 1.93695
2687.55113 1.93805
2685.50269 1.94034
2683.45425 1.94391
2681.40581 1.94547
2679.35737 1.94375
2677.30893 1.94372
2675.26050 1.94738
2673.21206 1.95107
2671.16362 1.95385
2669.11518 1.95796
2667.06674 1.96216
2665.01830 1.96453
2662.96987 1.96574
2660.92143 1.96646
2658.87299 1.96771
2656.82455 1.97021
2654.77611 1.97303
2652.72767 1.97544
2650.67924 1.97762
2648.63080 1.97837
2646.58236 1.97771
2644.53392 1.97936
2642.48548 1.98348
2640.43704 1.98593
2638.38860 1.98590
2636.34017 1.98640
2634.29173 1.98862
2632.24329 1.99021
2630.19485 1.99055
2628.14641 1.99213
2626.09797 1.99466
2624.04954 1.99599
2622.00110 1.99627
2619.95266 1.99638
2617.90422 1.99657
2615.85578 1.99670
2613.80734 1.99785
2611.75891 2.00092
2609.71047 2.00306
2607.66203 2.00310
2605.61359 2.00386
2603.56515 2.00541
2601.51671 2.00594
2599.46828 2.00606
2597.41984 2.00727
2595.37140 2.00858
2593.32296 2.00836
2591.27452 2.00760
2589.22608 2.00681
2587.17765 2.00534
2585.12921 2.00362
2583.08077 2.00253
2581.03233 2.00242
2578.98389 2.00252
2576.93545 2.00321
2574.88702 2.00485
2572.83858 2.00585
2570.79014 2.00641
2568.74170 2.00825
2566.69326 2.01142
2564.64482 2.01416
2562.59639 2.01490
2560.54795 2.01363
2558.49951 2.01207
2556.45107 2.01197
2554.40263 2.01251
2552.35419 2.01338
2550.30576 2.01490
2548.25732 2.01576
2546.20888 2.01665
2544.16044 2.01804
2542.11200 2.01819
2540.06356 2.01811
2538.01513 2.01868
2535.96669 2.01891
2533.91825 2.01920
2531.86981 2.01926
2529.82137 2.01826
2527.77293 2.01700
2525.72450 2.01675
2523.67606 2.01805
2521.62762 2.02022
2519.57918 2.02156
2517.53074 2.02085
2515.48230 2.01926
2513.43387 2.01842
2511.38543 2.01768
2509.33699 2.01672
2507.28855 2.01707
2505.24011 2.01815
2503.19167 2.01761
2501.14324 2.01590
2499.09480 2.01533
2497.04636 2.01457
2494.99792 2.01241
2492.94948 2.01102
2490.90104 2.01051
2488.85260 2.00979
2486.80417 2.00890
2484.75573 2.00839
2482.70729 2.00886
2480.65885 2.00929
2478.61041 2.00832
2476.56197 2.00615
2474.51354 2.00355
2472.46510 2.00108
2470.41666 1.99962
2468.36822 1.99972
2466.31978 1.99890
2464.27134 1.99542
2462.22291 1.99169
2460.17447 1.98909
2458.12603 1.98700
2456.07759 1.98501
2454.02915 1.98301
2451.98071 1.98078
2449.93228 1.97789
2447.88384 1.97527
2445.83540 1.97304
2443.78696 1.96955
2441.73852 1.96584
2439.69008 1.96470
2437.64165 1.96493
2435.59321 1.96481
2433.54477 1.96517
2431.49633 1.96518
2429.44789 1.96316
2427.39945 1.96029
2425.35102 1.95933
2423.30258 1.96032
2421.25414 1.96094
2419.20570 1.96002
2417.15726 1.95834
2415.10882 1.95710
2413.06039 1.95583
2411.01195 1.95509
2408.96351 1.95540
2406.91507 1.95454
2404.86663 1.95253
2402.81819 1.95100
2400.76976 1.95044
2398.72132 1.95172
2396.67288 1.95433
2394.62444 1.95495
2392.57600 1.95267
2390.52756 1.94999
2388.47913 1.94833
2386.43069 1.94806
2384.38225 1.94863
2382.33381 1.94987
2380.28537 1.95284
2378.23693 1.95588
2376.18850 1.95624
2374.14006 1.95577
2372.09162 1.95645
2370.04318 1.95728
2367.99474 1.95722
2365.94630 1.95684
2363.89787 1.96117
2361.84943 1.96749
2359.80099 1.96730
2357.75255 1.96396
2355.70411 1.96438
2353.65567 1.96624
2351.60723 1.96403
2349.55880 1.96147
2347.51036 1.96232
2345.46192 1.96481
2343.41348 1.96414
2341.36504 1.96016
2339.31660 1.95738
2337.26817 1.95537
2335.21973 1.95482
2333.17129 1.95951
2331.12285 1.96815
2329.07441 1.97530
2327.02597 1.97388
2324.97754 1.96582
2322.92910 1.96156
2320.88066 1.96268
2318.83222 1.96457
2316.78378 1.96597
2314.73534 1.96592
2312.68691 1.96500
2310.63847 1.96625
2308.59003 1.96837
2306.54159 1.96763
2304.49315 1.96472
2302.44471 1.96208
2300.39628 1.96125
2298.34784 1.96297
2296.29940 1.96666
2294.25096 1.97031
2292.20252 1.97194
2290.15408 1.97211
2288.10565 1.97151
2286.05721 1.97016
2284.00877 1.96945
2281.96033 1.97025
2279.91189 1.97133
2277.86345 1.97115
2275.81502 1.97082
2273.76658 1.97215
2271.71814 1.97459
2269.66970 1.97663
2267.62126 1.97735
2265.57282 1.97762
2263.52439 1.97936
2261.47595 1.98213
2259.42751 1.98360
2257.37907 1.98349
2255.33063 1.98250
2253.28219 1.98128
2251.23376 1.98086
2249.18532 1.98100
2247.13688 1.98048
2245.08844 1.97907
2243.04000 1.97712
2240.99156 1.97581
2238.94313 1.97664
2236.89469 1.97853
2234.84625 1.98030
2232.79781 1.98203
2230.74937 1.98186
2228.70093 1.97896
2226.65250 1.97673
2224.60406 1.97759
2222.55562 1.97886
2220.50718 1.97761
2218.45874 1.97646
2216.41030 1.97900
2214.36186 1.98246
2212.31343 1.98435
2210.26499 1.98622
2208.21655 1.98695
2206.16811 1.98634
2204.11967 1.98645
2202.07123 1.98594
2200.02280 1.98365
2197.97436 1.98255
2195.92592 1.98346
2193.87748 1.98378
2191.82904 1.98322
2189.78060 1.98285
2187.73217 1.98348
2185.68373 1.98499
2183.63529 1.98576
2181.58685 1.98575
2179.53841 1.98593
2177.48997 1.98527
2175.44154 1.98346
2173.39310 1.98252
2171.34466 1.98250
2169.29622 1.98122
2167.24778 1.97917
2165.19934 1.97895
2163.15091 1.98051
2161.10247 1.98161
2159.05403 1.98100
2157.00559 1.97940
2154.95715 1.97777
2152.90871 1.97681
2150.86028 1.97652
2148.81184 1.97571
2146.76340 1.97470
2144.71496 1.97400
2142.66652 1.97308
2140.61808 1.97219
2138.56965 1.97132
2136.52121 1.97035
2134.47277 1.96907
2132.42433 1.96741
2130.37589 1.96636
2128.32745 1.96574
2126.27902 1.96497
2124.23058 1.96471
2122.18214 1.96521
2120.13370 1.96575
2118.08526 1.96488
2116.03682 1.96310
2113.98839 1.96286
2111.93995 1.96462
2109.89151 1.96680
2107.84307 1.96810
2105.79463 1.96877
2103.74619 1.96966
2101.69776 1.97045
2099.64932 1.97100
2097.60088 1.97119
2095.55244 1.97012
2093.50400 1.96858
2091.45556 1.96859
2089.40713 1.97038
2087.35869 1.97152
2085.31025 1.97090
2083.26181 1.97044
2081.21337 1.97064
2079.16493 1.97168
2077.11649 1.97420
2075.06806 1.97738
2073.01962 1.98014
2070.97118 1.98214
2068.92274 1.98305
2066.87430 1.98304
2064.82586 1.98392
2062.77743 1.98624
2060.72899 1.98953
2058.68055 1.99299
2056.63211 1.99484
2054.58367 1.99486
2052.53523 1.99504
2050.48680 1.99789
2048.43836 2.00205
2046.38992 2.00344
2044.34148 2.00281
2042.29304 2.00294
2040.24460 2.00208
2038.19617 1.99900
2036.14773 1.99755
2034.09929 1.99965
2032.05085 2.00177
2030.00241 2.00144
2027.95397 2.00047
2025.90554 1.99974
2023.85710 1.99965
2021.80866 2.00135
2019.76022 2.00308
2017.71178 2.00431
2015.66334 2.00540
2013.61491 2.00543
2011.56647 2.00654
2009.51803 2.00927
2007.46959 2.01135
2005.42115 2.01229
2003.37271 2.01287
2001.32428 2.01415
1999.27584 2.01662
1997.22740 2.01883
1995.17896 2.01965
1993.13052 2.02131
1991.08208 2.02455
1989.03365 2.02687
1986.98521 2.02723
1984.93677 2.02626
1982.88833 2.02588
1980.83989 2.02751
1978.79145 2.03084
1976.74302 2.03482
1974.69458 2.03776
1972.64614 2.03920
1970.59770 2.04051
1968.54926 2.04305
1966.50082 2.04746
1964.45239 2.05169
1962.40395 2.05470
1960.35551 2.05757
1958.30707 2.05944
1956.25863 2.06080
1954.21019 2.06369
1952.16176 2.06738
1950.11332 2.06962
1948.06488 2.07031
1946.01644 2.07203
1943.96800 2.07766
1941.91956 2.08433
1939.87112 2.08553
1937.82269 2.08356
1935.77425 2.08225
1933.72581 2.08195
1931.67737 2.08314
1929.62893 2.08583
1927.58049 2.08843
1925.53206 2.08972
1923.48362 2.09127
1921.43518 2.09462
1919.38674 2.09841
1917.33830 2.10192
1915.28986 2.10515
1913.24143 2.10802
1911.19299 2.11115
1909.14455 2.11376
1907.09611 2.11432
1905.04767 2.11396
1902.99923 2.11394
1900.95080 2.11450
1898.90236 2.11750
1896.85392 2.12292
1894.80548 2.12592
1892.75704 2.12504
1890.70860 2.12553
1888.66017 2.12942
1886.61173 2.13280
1884.56329 2.13394
1882.51485 2.13427
1880.46641 2.13514
1878.41797 2.13641
1876.36954 2.13836
1874.32110 2.14172
1872.27266 2.14435
1870.22422 2.14421
1868.17578 2.14463
1866.12734 2.14657
1864.07891 2.14572
1862.03047 2.14361
1859.98203 2.14292
1857.93359 2.14266
1855.88515 2.14144
1853.83671 2.14037
1851.78828 2.14006
1849.73984 2.14032
1847.69140 2.14118
1845.64296 2.14299
1843.59452 2.14652
1841.54608 2.14831
1839.49765 2.14717
1837.44921 2.14564
1835.40077 2.14663
1833.35233 2.14986
1831.30389 2.15308
1829.25545 2.15451
1827.20702 2.15292
1825.15858 2.14944
1823.11014 2.14609
1821.06170 2.14488
1819.01326 2.14611
1816.96482 2.14926
1814.91639 2.15191
1812.86795 2.15305
1810.81951 2.15478
1808.77107 2.15527
1806.72263 2.15313
1804.67419 2.15212
1802.62575 2.15379
1800.57732 2.15780
1798.52888 2.16149
1796.48044 2.16150
1794.43200 2.16013
1792.38356 2.16360
1790.33512 2.16860
1788.28669 2.16760
1786.23825 2.16489
1784.18981 2.16470
1782.14137 2.16683
1780.09293 2.16762
1778.04449 2.16568
1775.99606 2.16478
1773.94762 2.16810
1771.89918 2.17318
1769.85074 2.17265
1767.80230 2.17003
1765.75386 2.16975
1763.70543 2.17123
1761.65699 2.17267
1759.60855 2.17288
1757.56011 2.17264
1755.51167 2.17340
1753.46323 2.17440
1751.41480 2.17489
1749.36636 2.17792
1747.31792 2.18375
1745.26948 2.18731
1743.22104 2.18714
1741.17260 2.18758
1739.12417 2.19025
1737.07573 2.19220
1735.02729 2.19651
1732.97885 2.20228
1730.93041 2.20226
1728.88197 2.20003
1726.83354 2.19711
1724.78510 2.19533
1722.73666 2.19553
1720.68822 2.19793
1718.63978 2.20902
1716.59134 2.22593
1714.54291 2.22663
1712.49447 2.22449
1710.44603 2.22483
1708.39759 2.22344
1706.34915 2.22568
1704.30071 2.23513
1702.25228 2.24204
1700.20384 2.25176
1698.15540 2.26135
1696.10696 2.25581
1694.05852 2.25013
1692.01008 2.25045
1689.96165 2.25299
1687.91321 2.25537
1685.86477 2.26098
1683.81633 2.27701
1681.76789 2.28332
1679.71945 2.28125
1677.67102 2.28307
1675.62258 2.28933
1673.57414 2.29417
1671.52570 2.29728
1669.47726 2.30638
1667.42882 2.31509
1665.38038 2.31868
1663.33195 2.32486
1661.28351 2.33317
1659.23507 2.34139
1657.18663 2.35175
1655.13819 2.36421
1653.08975 2.37890
1651.04132 2.38547
1648.99288 2.38764
1646.94444 2.39475
1644.89600 2.40510
1642.84756 2.41159
1640.79912 2.41779
1638.75069 2.42359
1636.70225 2.42749
1634.65381 2.43166
1632.60537 2.44067
1630.55693 2.44961
1628.50849 2.45923
1626.46006 2.46935
1624.41162 2.47623
1622.36318 2.48412
1620.31474 2.49400
1618.26630 2.50526
1616.21786 2.51669
1614.16943 2.52659
1612.12099 2.53434
1610.07255 2.54174
1608.02411 2.54934
1605.97567 2.55480
1603.92723 2.55297
1601.87880 2.54775
1599.83036 2.54307
1597.78192 2.53219
1595.73348 2.51003
1593.68504 2.47494
1591.63660 2.43323
1589.58817 2.38021
1587.53973 2.30389
1585.49129 2.19904
1583.44285 2.07017
1581.39441 1.93256
1579.34597 1.80986
1577.29754 1.67560
1575.24910 1.53587
1573.20066 1.46873
1571.15222 1.43533
1569.10378 1.40301
1567.05534 1.38226
1565.00691 1.37387
1562.95847 1.37099
1560.91003 1.37497
1558.86159 1.39729
1556.81315 1.42654
1554.76471 1.45810
1552.71628 1.50780
1550.66784 1.58002
1548.61940 1.66685
1546.57096 1.74197
1544.52252 1.81322
1542.47408 1.89367
1540.42565 1.99025
1538.37721 2.06590
1536.32877 2.09537
1534.28033 2.13107
1532.23189 2.18342
1530.18345 2.22226
1528.13501 2.26515
1526.08658 2.32419
1524.03814 2.38119
1521.98970 2.43225
1519.94126 2.47205
1517.89282 2.51216
1515.84438 2.56970
1513.79595 2.62438
1511.74751 2.66678
1509.69907 2.72151
1507.65063 2.79473
1505.60219 2.85890
1503.55375 2.85691
1501.50532 2.86665
1499.45688 2.86838
1497.40844 2.81623
1495.36000 2.70421
1493.31156 2.60290
1491.26312 2.47619
1489.21469 2.25779
1487.16625 2.02868
1485.11781 1.84288
1483.06937 1.67296
1481.02093 1.51609
1478.97249 1.40378
1476.92406 1.32962
1474.87562 1.26746
1472.82718 1.19168
1470.77874 1.12770
1468.73030 1.09975
1466.68186 1.09135
1464.63343 1.10175
1462.58499 1.12555
1460.53655 1.15084
1458.48811 1.17916
1456.43967 1.20077
1454.39123 1.20194
1452.34280 1.20050
1450.29436 1.19920
1448.24592 1.19438
1446.19748 1.18038
1444.14904 1.15498
1442.10060 1.11846
1440.05217 1.08076
1438.00373 1.04782
1435.95529 1.01665
1433.90685 0.99729
1431.85841 0.98745
1429.80997 0.97977
1427.76154 0.97413
1425.71310 0.97217
1423.66466 0.97259
1421.61622 0.97528
1419.56778 0.98411
1417.51934 1.00036
1415.47091 1.01972
1413.42247 1.04667
1411.37403 1.08549
1409.32559 1.13194
1407.27715 1.17995
1405.22871 1.23078
1403.18028 1.27664
1401.13184 1.31173
1399.08340 1.34509
1397.03496 1.37567
1394.98652 1.40085
1392.93808 1.42165
1390.88965 1.43861
1388.84121 1.45571
1386.79277 1.47022
1384.74433 1.47668
1382.69589 1.48217
1380.64745 1.49189
1378.59901 1.50502
1376.55058 1.51899
1374.50214 1.53363
1372.45370 1.54584
1370.40526 1.55529
1368.35682 1.56574
1366.30838 1.57675
1364.25995 1.58845
1362.21151 1.60052
1360.16307 1.60986
1358.11463 1.61719
1356.06619 1.62541
1354.01775 1.63436
1351.96932 1.64344
1349.92088 1.65212
1347.87244 1.65999
1345.82400 1.66695
1343.77556 1.67350
1341.72712 1.68146
1339.67869 1.69054
1337.63025 1.69716
1335.58181 1.70092
1333.53337 1.70496
1331.48493 1.70956
1329.43649 1.71492
1327.38806 1.72044
1325.33962 1.72549
1323.29118 1.73060
1321.24274 1.73645
1319.19430 1.74270
1317.14586 1.74800
1315.09743 1.75232
1313.04899 1.75537
1311.00055 1.75830
1308.95211 1.76244
1306.90367 1.76739
1304.85523 1.77160
1302.80680 1.77520
1300.75836 1.77889
1298.70992 1.78270
1296.66148 1.78645
1294.61304 1.79009
1292.56460 1.79425
1290.51617 1.79868
1288.46773 1.80316
1286.41929 1.80763
1284.37085 1.81231
1282.32241 1.81650
1280.27397 1.81964
1278.22554 1.82239
1276.17710 1.82581
1274.12866 1.82951
1272.08022 1.83293
1270.03178 1.83620
1267.98334 1.83940
1265.93491 1.84214
1263.88647 1.84394
1261.83803 1.84606
1259.78959 1.84782
1257.74115 1.84859
1255.69271 1.84946
1253.64428 1.85094
1251.59584 1.85337
1249.54740 1.85695
1247.49896 1.86078
1245.45052 1.86331
1243.40208 1.86499
1241.35364 1.86872
1239.30521 1.87490
1237.25677 1.87902
1235.20833 1.87968
1233.15989 1.88040
1231.11145 1.88280
1229.06301 1.88487
1227.01458 1.88632
1224.96614 1.88837
1222.91770 1.89007
1220.86926 1.89091
1218.82082 1.89231
1216.77238 1.89501
1214.72395 1.89771
1212.67551 1.89942
1210.62707 1.90078
1208.57863 1.90271
1206.53019 1.90411
1204.48175 1.90534
1202.43332 1.90879
1200.38488 1.91276
1198.33644 1.91427
1196.28800 1.91509
1194.23956 1.91750
1192.19112 1.91957
1190.14269 1.91998
1188.09425 1.92009
1186.04581 1.92133
1183.99737 1.92333
1181.94893 1.92516
1179.90049 1.92671
1177.85206 1.92798
1175.80362 1.92943
1173.75518 1.93150
1171.70674 1.93397
1169.65830 1.93650
1167.60986 1.93949
1165.56143 1.94235
1163.51299 1.94365
1161.46455 1.94413
1159.41611 1.94566
1157.36767 1.94829
1155.31923 1.95060
1153.27080 1.95174
1151.22236 1.95267
1149.17392 1.95479
1147.12548 1.95756
1145.07704 1.95970
1143.02860 1.96108
1140.98017 1.96202
1138.93173 1.96307
1136.88329 1.96490
1134.83485 1.96754
1132.78641 1.97022
1130.73797 1.97187
1128.68954 1.97231
1126.64110 1.97291
1124.59266 1.97493
1122.54422 1.97753
1120.49578 1.97965
1118.44734 1.98303
1116.39891 1.98819
1114.35047 1.99209
1112.30203 1.99363
1110.25359 1.99558
1108.20515 1.99909
1106.15671 2.00081
1104.10827 2.00200
1102.05984 2.00695
1100.01140 2.01286
1097.96296 2.01705
1095.91452 2.01830
1093.86608 2.01306
1091.81764 2.00449
1089.76921 1.99924
1087.72077 1.99764
1085.67233 1.99763
1083.62389 1.99905
1081.57545 2.00267
1079.52701 2.00810
1077.47858 2.01443
1075.43014 2.02078
1073.38170 2.02537
1071.33326 2.02764
1069.28482 2.02982
1067.23638 2.03396
1065.18795 2.03900
1063.13951 2.04324
1061.09107 2.04607
1059.04263 2.04921
1056.99419 2.05415
1054.94575 2.05939
1052.89732 2.06390
1050.84888 2.06774
1048.80044 2.07218
1046.75200 2.07813
1044.70356 2.08353
1042.65512 2.08777
1040.60669 2.09301
1038.55825 2.09870
1036.50981 2.10419
1034.46137 2.11022
1032.41293 2.11648
1030.36449 2.12304
1028.31606 2.13020
1026.26762 2.13786
1024.21918 2.14451
1022.17074 2.14974
1020.12230 2.15570
1018.07386 2.16263
1016.02543 2.16955
1013.97699 2.17723
1011.92855 2.18476
1009.88011 2.19253
1007.83167 2.20230
1005.78323 2.21296
1003.73480 2.22363
1001.68636 2.23417
999.63792 2.24551
997.58948 2.25634
995.54104 2.26293
993.49260 2.26540
991.44417 2.26422
989.39573 2.25627
987.34729 2.23777
985.29885 2.20116
983.25041 2.14122
981.20197 2.06464
979.15354 1.98080
977.10510 1.89784
975.05666 1.82501
973.00822 1.76778
970.95978 1.72289
968.91134 1.68449
966.86290 1.64991
964.81447 1.61677
962.76603 1.58297
960.71759 1.54963
958.66915 1.51982
956.62071 1.49564
954.57227 1.47833
952.52384 1.47135
950.47540 1.47914
948.42696 1.50233
946.37852 1.53716
944.33008 1.57829
942.28164 1.61967
940.23321 1.65611
938.18477 1.68653
936.13633 1.71333
934.08789 1.73861
932.03945 1.76346
929.99101 1.78795
927.94258 1.81122
925.89414 1.83397
923.84570 1.85604
921.79726 1.87439
919.74882 1.88928
917.70038 1.90453
915.65195 1.92055
913.60351 1.93604
911.55507 1.95139
909.50663 1.96697
907.45819 1.98339
905.40975 2.00020
903.36132 2.01669
901.31288 2.03106
899.26444 2.04147
897.21600 2.05158
895.16756 2.06591
893.11912 2.08343
891.07069 2.10153
889.02225 2.11995
886.97381 2.13708
884.92537 2.15489
882.87693 2.17606
880.82849 2.19525
878.78006 2.21219
876.73162 2.22983
874.68318 2.24501
872.63474 2.25438
870.58630 2.25089
868.53786 2.22368
866.48943 2.16582
864.44099 2.07322
862.39255 1.95387
860.34411 1.83192
858.29567 1.72751
856.24723 1.64707
854.19880 1.58755
852.15036 1.54411
850.10192 1.51362
848.05348 1.49142
846.00504 1.46989
843.95660 1.44361
841.90817 1.41772
839.85973 1.40409
837.81129 1.40903
835.76285 1.43031
833.71441 1.46134
831.66597 1.49573
829.61753 1.53204
827.56910 1.57354
825.52066 1.61621
823.47222 1.64610
821.42378 1.65456
819.37534 1.64192
817.32690 1.61803
815.27847 1.60161
813.23003 1.60476
811.18159 1.62595
809.13315 1.65679
807.08471 1.68718
805.03627 1.71027
802.98784 1.72676
800.93940 1.73873
798.89096 1.74834
796.84252 1.75997
794.79408 1.77467
792.74564 1.78932
790.69721 1.80125
788.64877 1.81029
786.60033 1.81890
784.55189 1.82961
782.50345 1.84260
780.45501 1.85687
778.40658 1.87259
776.35814 1.88617
774.30970 1.88376
772.26126 1.85894
770.21282 1.82986
768.16438 1.81697
766.11595 1.82140
764.06751 1.83207
762.01907 1.84121
759.97063 1.84761
757.92219 1.85281
755.87375 1.85970
753.82532 1.86993
751.77688 1.88256
749.72844 1.89570
747.68000 1.90510
745.63156 1.90718
743.58312 1.90491
741.53469 1.89903
739.48625 1.89067
737.43781 1.88774
735.38937 1.89189
733.34093 1.89762
731.29249 1.90307
729.24406 1.91059
727.19562 1.91745
725.14718 1.91791
723.09874 1.91706
721.05030 1.92331
719.00186 1.93098
716.95343 1.93529
714.90499 1.94043
712.85655 1.94240
710.80811 1.94373
708.75967 1.95071
706.71123 1.95581
704.66280 1.95504
702.61436 1.95486
700.56592 1.95819
698.51748 1.96566
696.46904 1.97568
694.42060 1.97878
692.37216 1.97501
690.32373 1.97161
688.27529 1.96558
686.22685 1.95984
684.17841 1.96860
682.12997 1.98630
680.08153 1.99209
678.03310 1.98895
675.98466 1.98846
673.93622 1.99128
671.88778 1.99877
669.83934 2.01110
667.79090 2.01250
665.74247 1.99516
663.69403 1.98108
661.64559 1.98276
659.59715 2.00012
657.54871 2.00848
655.50027 2.01240
653.45184 2.03841
651.40340 2.07072
649.35496 2.07229
647.30652 2.04242
645.25808 2.01618
643.20964 2.01567
641.16121 2.03424
639.11277 2.05704
637.06433 2.07305
635.01589 2.07534
632.96745 2.06329
630.91901 2.04678
628.87058 2.04569
626.82214 2.06644
624.77370 2.06750
622.72526 2.05565
620.67682 2.09894
618.62838 2.13246
616.57995 2.05792
614.53151 1.98937
612.48307 1.98677
610.43463 1.99137
608.38619 1.98118
606.33775 2.00212
604.28932 2.04092
602.24088 2.03610
600.19244 2.03515
598.14400 2.09366
