3996.50324 1.87353
3994.45480 1.87126
3992.40636 1.87082
3990.35792 1.87223
3988.30948 1.87418
3986.26104 1.87513
3984.21261 1.87507
3982.16417 1.87589
3980.11573 1.87834
3978.06729 1.88065
3976.01885 1.88138
3973.97041 1.88056
3971.92198 1.87952
3969.87354 1.87892
3967.82510 1.87892
3965.77666 1.87984
3963.72822 1.88080
3961.67978 1.88077
3959.63135 1.87926
3957.58291 1.87722
3955.53447 1.87560
3953.48603 1.87541
3951.43759 1.87742
3949.38915 1.87763
3947.34072 1.87365
3945.29228 1.87137
3943.24384 1.87342
3941.19540 1.87601
3939.14696 1.87760
3937.09852 1.87977
3935.05009 1.88220
3933.00165 1.88391
3930.95321 1.88402
3928.90477 1.88329
3926.85633 1.88332
3924.80789 1.88442
3922.75946 1.88588
3920.71102 1.88794
3918.66258 1.89101
3916.61414 1.89258
3914.56570 1.89239
3912.51726 1.89160
3910.46883 1.88915
3908.42039 1.88691
3906.37195 1.88861
3904.32351 1.89494
3902.27507 1.89996
3900.22663 1.90214
3898.17820 1.90373
3896.12976 1.90294
3894.08132 1.90319
3892.03288 1.90932
3889.98444 1.91551
3887.93600 1.91502
3885.88756 1.91532
3883.83913 1.92236
3881.79069 1.92963
3879.74225 1.93063
3877.69381 1.92690
3875.64537 1.92523
3873.59693 1.92589
3871.54850 1.92481
3869.50006 1.92150
3867.45162 1.91599
3865.40318 1.90870
3863.35474 1.90450
3861.30630 1.90506
3859.25787 1.90714
3857.20943 1.90824
3855.16099 1.90619
3853.11255 1.90978
3851.06411 1.91446
3849.01567 1.91195
3846.96724 1.90927
3844.91880 1.90811
3842.87036 1.91017
3840.82192 1.91524
3838.77348 1.91833
3836.72504 1.91625
3834.67661 1.91386
3832.62817 1.91428
3830.57973 1.91558
3828.53129 1.91680
3826.48285 1.91908
3824.43441 1.92117
3822.38598 1.92450
3820.33754 1.92985
3818.28910 1.92677
3816.24066 1.91594
3814.19222 1.90567
3812.14378 1.89991
3810.09535 1.89672
3808.04691 1.89752
3805.99847 1.90335
3803.95003 1.90743
3801.90159 1.90913
3799.85315 1.90945
3797.80472 1.90640
3795.75628 1.90128
3793.70784 1.89609
3791.65940 1.89319
3789.61096 1.89391
3787.56252 1.89584
3785.51409 1.89737
3783.46565 1.89928
3781.41721 1.90152
3779.36877 1.90306
3777.32033 1.90071
3775.27189 1.89696
3773.22346 1.89668
3771.17502 1.90155
3769.12658 1.90594
3767.07814 1.90237
3765.02970 1.89681
3762.98126 1.89442
3760.93283 1.89633
3758.88439 1.90233
3756.83595 1.90470
3754.78751 1.90469
3752.73907 1.90983
3750.69063 1.92061
3748.64219 1.92462
3746.59376 1.92163
3744.54532 1.91889
3742.49688 1.91903
3740.44844 1.92016
3738.40000 1.92231
3736.35156 1.92495
3734.30313 1.92714
3732.25469 1.92855
3730.20625 1.92643
3728.15781 1.92407
3726.10937 1.92674
3724.06093 1.93190
3722.01250 1.93261
3719.96406 1.92943
3717.91562 1.92702
3715.86718 1.92814
3713.81874 1.93423
3711.77030 1.94453
3709.72187 1.94536
3707.67343 1.93795
3705.62499 1.93334
3703.57655 1.93225
3701.52811 1.93456
3699.47967 1.93645
3697.43124 1.93547
3695.38280 1.93444
3693.33436 1.93573
3691.28592 1.94219
3689.23748 1.95209
3687.18904 1.95492
3685.14061 1.95266
3683.09217 1.95076
3681.04373 1.95266
3678.99529 1.95709
3676.94685 1.96273
3674.89841 1.97472
3672.84998 1.97961
3670.80154 1.97885
3668.75310 1.98486
3666.70466 1.98983
3664.65622 1.99239
3662.60778 1.99688
3660.55935 2.00159
3658.51091 2.00538
3656.46247 2.00961
3654.41403 2.01120
3652.36559 2.01031
3650.31715 2.01722
3648.26872 2.03807
3646.22028 2.04598
3644.17184 2.04518
3642.12340 2.04719
3640.07496 2.05083
3638.02652 2.05365
3635.97809 2.06011
3633.92965 2.07215
3631.88121 2.08335
3629.83277 2.09396
3627.78433 2.10416
3625.73589 2.10430
3623.68746 2.10266
3621.63902 2.10546
3619.59058 2.11753
3617.54214 2.13440
3615.49370 2.14614
3613.44526 2.15676
3611.39682 2.16565
3609.34839 2.17087
3607.29995 2.17623
3605.25151 2.18073
3603.20307 2.18291
3601.15463 2.18897
3599.10619 2.20241
3597.05776 2.21801
3595.00932 2.23147
3592.96088 2.23910
3590.91244 2.24365
3588.86400 2.25432
3586.81556 2.26737
3584.76713 2.27167
3582.71869 2.27686
3580.67025 2.28505
3578.62181 2.29274
3576.57337 2.30107
3574.52493 2.31180
3572.47650 2.32204
3570.42806 2.32796
3568.37962 2.33044
3566.33118 2.33050
3564.28274 2.33080
3562.23430 2.33439
3560.18587 2.34377
3558.13743 2.35675
3556.08899 2.36460
3554.04055 2.36993
3551.99211 2.37665
3549.94367 2.37861
3547.89524 2.37663
3545.84680 2.37724
3543.79836 2.39000
3541.74992 2.40868
3539.70148 2.41840
3537.65304 2.41982
3535.60461 2.41829
3533.55617 2.41656
3531.50773 2.41925
3529.45929 2.42828
3527.41085 2.43902
3525.36241 2.44198
3523.31398 2.44298
3521.26554 2.45157
3519.21710 2.45785
3517.16866 2.45842
3515.12022 2.46084
3513.07178 2.46640
3511.02335 2.47426
3508.97491 2.48822
3506.92647 2.50212
3504.87803 2.50864
3502.82959 2.51326
3500.78115 2.51970
3498.73272 2.52617
3496.68428 2.52688
3494.63584 2.52513
3492.58740 2.52620
3490.53896 2.52938
3488.49052 2.53676
3486.44209 2.54421
3484.39365 2.54707
3482.34521 2.54717
3480.29677 2.54940
3478.24833 2.55377
3476.19989 2.55647
3474.15146 2.55971
3472.10302 2.56625
3470.05458 2.57024
3468.00614 2.56961
3465.95770 2.57165
3463.90926 2.57445
3461.86082 2.57582
3459.81239 2.58087
3457.76395 2.58549
3455.71551 2.58671
3453.66707 2.58728
3451.61863 2.58300
3449.57019 2.57488
3447.52176 2.57488
3445.47332 2.58481
3443.42488 2.59151
3441.37644 2.59032
3439.32800 2.58422
3437.27956 2.57751
3435.23113 2.57281
3433.18269 2.56518
3431.13425 2.55700
3429.08581 2.55360
3427.03737 2.55677
3424.98893 2.57173
3422.94050 2.58804
3420.89206 2.58810
3418.84362 2.58215
3416.79518 2.58891
3414.74674 2.60392
3412.69830 2.60969
3410.64987 2.60628
3408.60143 2.60714
3406.55299 2.61127
3404.50455 2.61065
3402.45611 2.60844
3400.40767 2.61127
3398.35924 2.61399
3396.31080 2.61037
3394.26236 2.60779
3392.21392 2.60680
3390.16548 2.59744
3388.11704 2.58721
3386.06861 2.58944
3384.02017 2.60207
3381.97173 2.61319
3379.92329 2.61514
3377.87485 2.60842
3375.82641 2.59978
3373.77798 2.60272
3371.72954 2.61298
3369.68110 2.61209
3367.63266 2.59972
3365.58422 2.58488
3363.53578 2.57367
3361.48735 2.56884
3359.43891 2.57779
3357.39047 2.59896
3355.34203 2.61398
3353.29359 2.61577
3351.24515 2.60938
3349.19672 2.60435
3347.14828 2.60437
3345.09984 2.60144
3343.05140 2.59203
3341.00296 2.58465
3338.95452 2.58943
3336.90609 2.59915
3334.85765 2.59696
3332.80921 2.58720
3330.76077 2.58629
3328.71233 2.58832
3326.66389 2.58430
3324.61545 2.57885
3322.56702 2.57019
3320.51858 2.56705
3318.47014 2.58081
3316.42170 2.59397
3314.37326 2.58883
3312.32482 2.57514
3310.27639 2.56661
3308.22795 2.56605
3306.17951 2.56741
3304.13107 2.57199
3302.08263 2.58170
3300.03419 2.58470
3297.98576 2.57838
3295.93732 2.57290
3293.88888 2.57238
3291.84044 2.57105
3289.79200 2.56512
3287.74356 2.55797
3285.69513 2.55223
3283.64669 2.54724
3281.59825 2.54708
3279.54981 2.55817
3277.50137 2.57017
3275.45293 2.57135
3273.40450 2.56967
3271.35606 2.57152
3269.30762 2.57280
3267.25918 2.57206
3265.21074 2.56839
3263.16230 2.55895
3261.11387 2.55089
3259.06543 2.55065
3257.01699 2.55074
3254.96855 2.54512
3252.92011 2.53852
3250.87167 2.53479
3248.82324 2.53316
3246.77480 2.53523
3244.72636 2.54226
3242.67792 2.54851
3240.62948 2.54636
3238.58104 2.54001
3236.53261 2.54082
3234.48417 2.54175
3232.43573 2.53367
3230.38729 2.52804
3228.33885 2.52628
3226.29041 2.52082
3224.24198 2.51762
3222.19354 2.51928
3220.14510 2.51854
3218.09666 2.51592
3216.04822 2.51499
3213.99978 2.51469
3211.95135 2.51665
3209.90291 2.51759
3207.85447 2.51236
3205.80603 2.50665
3203.75759 2.50989
3201.70915 2.51891
3199.66072 2.52073
3197.61228 2.51570
3195.56384 2.51195
3193.51540 2.50875
3191.46696 2.50370
3189.41852 2.50083
3187.37008 2.50122
3185.32165 2.49937
3183.27321 2.49563
3181.22477 2.49101
3179.17633 2.48710
3177.12789 2.48933
3175.07945 2.49468
3173.03102 2.49610
3170.98258 2.48985
3168.93414 2.48242
3166.88570 2.48367
3164.83726 2.48689
3162.78882 2.48495
3160.74039 2.48203
3158.69195 2.48058
3156.64351 2.47853
3154.59507 2.47468
3152.54663 2.47143
3150.49819 2.46897
3148.44976 2.46727
3146.40132 2.46786
3144.35288 2.46971
3142.30444 2.46807
3140.25600 2.45919
3138.20756 2.44985
3136.15913 2.44803
3134.11069 2.44998
3132.06225 2.44746
3130.01381 2.44132
3127.96537 2.44078
3125.91693 2.44884
3123.86850 2.45738
3121.82006 2.45652
3119.77162 2.44688
3117.72318 2.43903
3115.67474 2.43525
3113.62630 2.43193
3111.57787 2.42965
3109.52943 2.42678
3107.48099 2.42380
3105.43255 2.42280
3103.38411 2.42178
3101.33567 2.41958
3099.28724 2.42019
3097.23880 2.42611
3095.19036 2.42929
3093.14192 2.42372
3091.09348 2.41208
3089.04504 2.40029
3086.99661 2.39540
3084.94817 2.39713
3082.89973 2.40093
3080.85129 2.40369
3078.80285 2.40336
3076.75441 2.39940
3074.70598 2.39367
3072.65754 2.39097
3070.60910 2.39182
3068.56066 2.39343
3066.51222 2.39643
3064.46378 2.39829
3062.41535 2.39397
3060.36691 2.38708
3058.31847 2.38383
3056.27003 2.38416
3054.22159 2.38397
3052.17315 2.38322
3050.12471 2.38481
3048.07628 2.38462
3046.02784 2.38103
3043.97940 2.37926
3041.93096 2.37889
3039.88252 2.37752
3037.83408 2.37668
3035.78565 2.37799
3033.73721 2.38095
3031.68877 2.38041
3029.64033 2.37428
3027.59189 2.37037
3025.54345 2.37150
3023.49502 2.37417
3021.44658 2.37550
3019.39814 2.37251
3017.34970 2.36827
3015.30126 2.36572
3013.25282 2.36362
3011.20439 2.36624
3009.15595 2.37180
3007.10751 2.37218
3005.05907 2.37324
3003.01063 2.37629
3000.96219 2.37446
2998.91376 2.37264
2996.86532 2.37136
2994.81688 2.36711
2992.76844 2.36481
2990.72000 2.36737
2988.67156 2.37037
2986.62313 2.36988
2984.57469 2.36705
2982.52625 2.36315
2980.47781 2.36115
2978.42937 2.36284
2976.38093 2.36472
2974.33250 2.36633
2972.28406 2.36853
2970.23562 2.36761
2968.18718 2.36264
2966.13874 2.36173
2964.09030 2.36780
2962.04187 2.37189
2959.99343 2.37022
2957.94499 2.36700
2955.89655 2.36540
2953.84811 2.36511
2951.79967 2.36388
2949.75124 2.36355
2947.70280 2.36816
2945.65436 2.37287
2943.60592 2.37222
2941.55748 2.37140
2939.50904 2.37170
2937.46061 2.37016
2935.41217 2.36818
2933.36373 2.36776
2931.31529 2.37054
2929.26685 2.37496
2927.21841 2.37608
2925.16998 2.37356
2923.12154 2.37105
2921.07310 2.36746
2919.02466 2.36395
2916.97622 2.36365
2914.92778 2.36352
2912.87934 2.36125
2910.83091 2.35741
2908.78247 2.35475
2906.73403 2.35388
2904.68559 2.35009
2902.63715 2.34312
2900.58871 2.33682
2898.54028 2.33382
2896.49184 2.33548
2894.44340 2.33742
2892.39496 2.33409
2890.34652 2.32814
2888.29808 2.32449
2886.24965 2.32198
2884.20121 2.31799
2882.15277 2.31531
2880.10433 2.31549
2878.05589 2.31431
2876.00745 2.31076
2873.95902 2.30762
2871.91058 2.30293
2869.86214 2.29717
2867.81370 2.29702
2865.76526 2.30060
2863.71682 2.29936
2861.66839 2.29567
2859.61995 2.29637
2857.57151 2.29870
2855.52307 2.29906
2853.47463 2.29810
2851.42619 2.29542
2849.37776 2.29142
2847.32932 2.28669
2845.28088 2.28024
2843.23244 2.27075
2841.18400 2.26227
2839.13556 2.26101
2837.08713 2.26127
2835.03869 2.25643
2832.99025 2.25229
2830.94181 2.25127
2828.89337 2.24960
2826.84493 2.24712
2824.79650 2.24381
2822.74806 2.23847
2820.69962 2.23237
2818.65118 2.22715
2816.60274 2.22219
2814.55430 2.21670
2812.50587 2.21146
2810.45743 2.20862
2808.40899 2.20735
2806.36055 2.20356
2804.31211 2.19812
2802.26367 2.19373
2800.21524 2.19075
2798.16680 2.18916
2796.11836 2.18735
2794.06992 2.18452
2792.02148 2.18130
2789.97304 2.17752
2787.92461 2.17325
2785.87617 2.16891
2783.82773 2.16595
2781.77929 2.16563
2779.73085 2.16516
2777.68241 2.16282
2775.63397 2.16087
2773.58554 2.16096
2771.53710 2.16147
2769.48866 2.15955
2767.44022 2.15592
2765.39178 2.15337
2763.34334 2.15292
2761.29491 2.15321
2759.24647 2.15264
2757.19803 2.15134
2755.14959 2.15066
2753.10115 2.15109
2751.05271 2.15069
2749.00428 2.14896
2746.95584 2.14712
2744.90740 2.14433
2742.85896 2.14074
2740.81052 2.13885
2738.76208 2.13889
2736.71365 2.13906
2734.66521 2.13786
2732.61677 2.13532
2730.56833 2.13351
2728.51989 2.13234
2726.47145 2.13116
2724.42302 2.13092
2722.37458 2.12979
2720.32614 2.12673
2718.27770 2.12421
2716.22926 2.12373
2714.18082 2.12500
2712.13239 2.12606
2710.08395 2.12600
2708.03551 2.12513
2705.98707 2.12238
2703.93863 2.11922
2701.89019 2.11906
2699.84176 2.12040
2697.79332 2.11989
2695.74488 2.11811
2693.69644 2.11630
2691.64800 2.11663
2689.59956 2.11931
2687.55113 2.12209
2685.50269 2.12516
2683.45425 2.12715
2681.40581 2.12675
2679.35737 2.12590
2677.30893 2.12601
2675.26050 2.12669
2673.21206 2.12731
2671.16362 2.12836
2669.11518 2.13054
2667.06674 2.13195
2665.01830 2.13087
2662.96987 2.12976
2660.92143 2.12859
2658.87299 2.12577
2656.82455 2.12493
2654.77611 2.12811
2652.72767 2.13106
2650.67924 2.13030
2648.63080 2.12855
2646.58236 2.13024
2644.53392 2.13315
2642.48548 2.13478
2640.43704 2.13622
2638.38860 2.13524
2636.34017 2.13280
2634.29173 2.13293
2632.24329 2.13513
2630.19485 2.13715
2628.14641 2.13837
2626.09797 2.13731
2624.04954 2.13361
2622.00110 2.13108
2619.95266 2.13132
2617.90422 2.13331
2615.85578 2.13548
2613.80734 2.13609
2611.75891 2.13663
2609.71047 2.13954
2607.66203 2.14323
2605.61359 2.14551
2603.56515 2.14529
2601.51671 2.14271
2599.46828 2.14180
2597.41984 2.14196
2595.37140 2.14057
2593.32296 2.13934
2591.27452 2.13728
2589.22608 2.13475
2587.17765 2.13506
2585.12921 2.13668
2583.08077 2.13771
2581.03233 2.13959
2578.98389 2.14041
2576.93545 2.13787
2574.88702 2.13509
2572.83858 2.13500
2570.79014 2.13731
2568.74170 2.14081
2566.69326 2.14377
2564.64482 2.14498
2562.59639 2.14375
2560.54795 2.14130
2558.49951 2.14064
2556.45107 2.14143
2554.40263 2.14185
2552.35419 2.14174
2550.30576 2.14098
2548.25732 2.14108
2546.20888 2.14404
2544.16044 2.14721
2542.11200 2.14743
2540.06356 2.14648
2538.01513 2.14634
2535.96669 2.14770
2533.91825 2.15142
2531.86981 2.15583
2529.82137 2.15726
2527.77293 2.15645
2525.72450 2.15690
2523.67606 2.15859
2521.62762 2.15976
2519.57918 2.15906
2517.53074 2.15762
2515.48230 2.15841
2513.43387 2.16129
2511.38543 2.16441
2509.33699 2.16697
2507.28855 2.16926
2505.24011 2.17030
2503.19167 2.16807
2501.14324 2.16566
2499.09480 2.16524
2497.04636 2.16438
2494.99792 2.16432
2492.94948 2.16567
2490.90104 2.16511
2488.85260 2.16264
2486.80417 2.16118
2484.75573 2.16040
2482.70729 2.15774
2480.65885 2.15274
2478.61041 2.14877
2476.56197 2.14818
2474.51354 2.14783
2472.46510 2.14546
2470.41666 2.14245
2468.36822 2.13912
2466.31978 2.13520
2464.27134 2.13224
2462.22291 2.13117
2460.17447 2.13043
2458.12603 2.12709
2456.07759 2.12215
2454.02915 2.11961
2451.98071 2.11793
2449.93228 2.11464
2447.88384 2.11182
2445.83540 2.11049
2443.78696 2.10963
2441.73852 2.10919
2439.69008 2.10884
2437.64165 2.10847
2435.59321 2.10809
2433.54477 2.10681
2431.49633 2.10628
2429.44789 2.10715
2427.39945 2.10654
2425.35102 2.10455
2423.30258 2.10445
2421.25414 2.10648
2419.20570 2.10797
2417.15726 2.10793
2415.10882 2.10635
2413.06039 2.10420
2411.01195 2.10369
2408.96351 2.10483
2406.91507 2.10559
2404.86663 2.10440
2402.81819 2.10226
2400.76976 2.10215
2398.72132 2.10221
2396.67288 2.09962
2394.62444 2.09827
2392.57600 2.10064
2390.52756 2.10379
2388.47913 2.10454
2386.43069 2.10252
2384.38225 2.10034
2382.33381 2.10065
2380.28537 2.10242
2378.23693 2.10210
2376.18850 2.10108
2374.14006 2.10379
2372.09162 2.10871
2370.04318 2.11263
2367.99474 2.12105
2365.94630 2.13953
2363.89787 2.15660
2361.84943 2.15336
2359.80099 2.13084
2357.75255 2.11769
2355.70411 2.12617
2353.65567 2.13552
2351.60723 2.13221
2349.55880 2.12387
2347.51036 2.12024
2345.46192 2.12466
2343.41348 2.13123
2341.36504 2.13118
2339.31660 2.12706
2337.26817 2.12505
2335.21973 2.12048
2333.17129 2.11119
2331.12285 2.10758
2329.07441 2.11012
2327.02597 2.11157
2324.97754 2.11186
2322.92910 2.11266
2320.88066 2.11553
2318.83222 2.12180
2316.78378 2.12639
2314.73534 2.12517
2312.68691 2.12250
2310.63847 2.12263
2308.59003 2.12490
2306.54159 2.12582
2304.49315 2.12457
2302.44471 2.12348
2300.39628 2.12361
2298.34784 2.12551
2296.29940 2.12728
2294.25096 2.12715
2292.20252 2.12818
2290.15408 2.13081
2288.10565 2.13164
2286.05721 2.13163
2284.00877 2.13237
2281.96033 2.13314
2279.91189 2.13360
2277.86345 2.13296
2275.81502 2.13138
2273.76658 2.13072
2271.71814 2.13257
2269.66970 2.13569
2267.62126 2.13840
2265.57282 2.14089
2263.52439 2.14160
2261.47595 2.13962
2259.42751 2.13837
2257.37907 2.13866
2255.33063 2.13788
2253.28219 2.13795
2251.23376 2.13941
2249.18532 2.13851
2247.13688 2.13521
2245.08844 2.13268
2243.04000 2.13248
2240.99156 2.13477
2238.94313 2.13855
2236.89469 2.14070
2234.84625 2.13968
2232.79781 2.13900
2230.74937 2.14086
2228.70093 2.14253
2226.65250 2.14216
2224.60406 2.13922
2222.55562 2.13541
2220.50718 2.13498
2218.45874 2.13832
2216.41030 2.14266
2214.36186 2.14482
2212.31343 2.14448
2210.26499 2.14524
2208.21655 2.14634
2206.16811 2.14525
2204.11967 2.14404
2202.07123 2.14375
2200.02280 2.14404
2197.97436 2.14398
2195.92592 2.14357
2193.87748 2.14491
2191.82904 2.14598
2189.78060 2.14355
2187.73217 2.14087
2185.68373 2.14201
2183.63529 2.14390
2181.58685 2.14379
2179.53841 2.14498
2177.48997 2.14850
2175.44154 2.15002
2173.39310 2.14835
2171.34466 2.14639
2169.29622 2.14369
2167.24778 2.13999
2165.19934 2.13821
2163.15091 2.13846
2161.10247 2.13907
2159.05403 2.14003
2157.00559 2.14047
2154.95715 2.13943
2152.90871 2.13713
2150.86028 2.13512
2148.81184 2.13395
2146.76340 2.13291
2144.71496 2.13292
2142.66652 2.13270
2140.61808 2.13213
2138.56965 2.13398
2136.52121 2.13595
2134.47277 2.13539
2132.42433 2.13454
2130.37589 2.13364
2128.32745 2.13203
2126.27902 2.13008
2124.23058 2.12734
2122.18214 2.12611
2120.13370 2.12715
2118.08526 2.12897
2116.03682 2.13137
2113.98839 2.13246
2111.93995 2.13126
2109.89151 2.13022
2107.84307 2.12982
2105.79463 2.12976
2103.74619 2.13204
2101.69776 2.13369
2099.64932 2.13081
2097.60088 2.12757
2095.55244 2.12772
2093.50400 2.12890
2091.45556 2.12902
2089.40713 2.12925
2087.35869 2.13114
2085.31025 2.13364
2083.26181 2.13490
2081.21337 2.13477
2079.16493 2.13393
2077.11649 2.13474
2075.06806 2.13778
2073.01962 2.14138
2070.97118 2.14472
2068.92274 2.14668
2066.87430 2.14782
2064.82586 2.14831
2062.77743 2.14780
2060.72899 2.14757
2058.68055 2.14776
2056.63211 2.15052
2054.58367 2.15636
2052.53523 2.16055
2050.48680 2.16153
2048.43836 2.16111
2046.38992 2.16114
2044.34148 2.16357
2042.29304 2.16599
2040.24460 2.16456
2038.19617 2.16221
2036.14773 2.16231
2034.09929 2.16355
2032.05085 2.16460
2030.00241 2.16469
2027.95397 2.16393
2025.90554 2.16307
2023.85710 2.16420
2021.80866 2.16775
2019.76022 2.17089
2017.71178 2.17311
2015.66334 2.17346
2013.61491 2.17130
2011.56647 2.16978
2009.51803 2.17060
2007.46959 2.17116
2005.42115 2.17089
2003.37271 2.17129
2001.32428 2.17223
1999.27584 2.17415
1997.22740 2.17587
1995.17896 2.17655
1993.13052 2.17782
1991.08208 2.17961
1989.03365 2.18055
1986.98521 2.18189
1984.93677 2.18432
1982.88833 2.18643
1980.83989 2.18702
1978.79145 2.18646
1976.74302 2.18697
1974.69458 2.18856
1972.64614 2.19084
1970.59770 2.19360
1968.54926 2.19533
1966.50082 2.19640
1964.45239 2.19820
1962.40395 2.20031
1960.35551 2.20193
1958.30707 2.20408
1956.25863 2.20782
1954.21019 2.21132
1952.16176 2.21426
1950.11332 2.21955
1948.06488 2.22538
1946.01644 2.22797
1943.96800 2.22818
1941.91956 2.22959
1939.87112 2.23325
1937.82269 2.23659
1935.77425 2.23967
1933.72581 2.24253
1931.67737 2.24349
1929.62893 2.24403
1927.58049 2.24483
1925.53206 2.24477
1923.48362 2.24685
1921.43518 2.25251
1919.38674 2.25926
1917.33830 2.26658
1915.28986 2.27261
1913.24143 2.27495
1911.19299 2.27431
1909.14455 2.27470
1907.09611 2.27605
1905.04767 2.27625
1902.99923 2.27733
1900.95080 2.27938
1898.90236 2.28189
1896.85392 2.28651
1894.80548 2.29129
1892.75704 2.29380
1890.70860 2.29714
1888.66017 2.30042
1886.61173 2.29971
1884.56329 2.29904
1882.51485 2.30274
1880.46641 2.30776
1878.41797 2.30924
1876.36954 2.30822
1874.32110 2.30877
1872.27266 2.31122
1870.22422 2.31477
1868.17578 2.32029
1866.12734 2.32338
1864.07891 2.32375
1862.03047 2.32633
1859.98203 2.32875
1857.93359 2.32695
1855.88515 2.32487
1853.83671 2.32489
1851.78828 2.32438
1849.73984 2.32367
1847.69140 2.32640
1845.64296 2.33323
1843.59452 2.33806
1841.54608 2.33720
1839.49765 2.33531
1837.44921 2.33457
1835.40077 2.33474
1833.35233 2.33387
1831.30389 2.33297
1829.25545 2.33540
1827.20702 2.33799
1825.15858 2.33877
1823.11014 2.33894
1821.06170 2.33776
1819.01326 2.33569
1816.96482 2.33338
1814.91639 2.33081
1812.86795 2.33163
1810.81951 2.33622
1808.77107 2.33695
1806.72263 2.33386
1804.67419 2.32964
1802.62575 2.32668
1800.57732 2.33003
1798.52888 2.33549
1796.48044 2.33793
1794.43200 2.34096
1792.38356 2.34634
1790.33512 2.34705
1788.28669 2.34207
1786.23825 2.33842
1784.18981 2.34142
1782.14137 2.35044
1780.09293 2.35799
1778.04449 2.35621
1775.99606 2.35038
1773.94762 2.34901
1771.89918 2.34995
1769.85074 2.34544
1767.80230 2.33872
1765.75386 2.33470
1763.70543 2.33377
1761.65699 2.33844
1759.60855 2.34611
1757.56011 2.34880
1755.51167 2.34786
1753.46323 2.34749
1751.41480 2.35214
1749.36636 2.36125
1747.31792 2.36257
1745.26948 2.36112
1743.22104 2.36435
1741.17260 2.36767
1739.12417 2.36967
1737.07573 2.37124
1735.02729 2.37316
1732.97885 2.37700
1730.93041 2.37645
1728.88197 2.37290
1726.83354 2.37066
1724.78510 2.37098
1722.73666 2.37465
1720.68822 2.38040
1718.63978 2.38660
1716.59134 2.39148
1714.54291 2.39139
1712.49447 2.39074
1710.44603 2.39111
1708.39759 2.39170
1706.34915 2.39765
1704.30071 2.40983
1702.25228 2.41895
1700.20384 2.42777
1698.15540 2.44333
1696.10696 2.45519
1694.05852 2.45265
1692.01008 2.44940
1689.96165 2.45563
1687.91321 2.46404
1685.86477 2.46927
1683.81633 2.48072
1681.76789 2.48616
1679.71945 2.48463
1677.67102 2.48536
1675.62258 2.49036
1673.57414 2.49732
1671.52570 2.50486
1669.47726 2.51604
1667.42882 2.52107
1665.38038 2.51986
1663.33195 2.52201
1661.28351 2.52916
1659.23507 2.53581
1657.18663 2.53851
1655.13819 2.53671
1653.08975 2.54020
1651.04132 2.54592
1648.99288 2.54466
1646.94444 2.54497
1644.89600 2.54313
1642.84756 2.53964
1640.79912 2.53839
1638.75069 2.53505
1636.70225 2.52838
1634.65381 2.52708
1632.60537 2.52638
1630.55693 2.52272
1628.50849 2.52277
1626.46006 2.52457
1624.41162 2.52135
1622.36318 2.51975
1620.31474 2.51867
1618.26630 2.51547
1616.21786 2.51126
1614.16943 2.49959
1612.12099 2.48458
1610.07255 2.47432
1608.02411 2.47138
1605.97567 2.46867
1603.92723 2.46200
1601.87880 2.45586
1599.83036 2.45112
1597.78192 2.44436
1595.73348 2.43791
1593.68504 2.43252
1591.63660 2.42518
1589.58817 2.41677
1587.53973 2.40711
1585.49129 2.39615
1583.44285 2.38716
1581.39441 2.37951
1579.34597 2.36944
1577.29754 2.35436
1575.24910 2.33671
1573.20066 2.32345
1571.15222 2.31349
1569.10378 2.30727
1567.05534 2.30245
1565.00691 2.29834
1562.95847 2.29533
1560.91003 2.29323
1558.86159 2.30376
1556.81315 2.31448
1554.76471 2.31069
1552.71628 2.30775
1550.66784 2.30989
1548.61940 2.31402
1546.57096 2.31607
1544.52252 2.31898
1542.47408 2.32478
1540.42565 2.33010
1538.37721 2.32946
1536.32877 2.32767
1534.28033 2.33036
1532.23189 2.33318
1530.18345 2.33126
1528.13501 2.33157
1526.08658 2.33637
1524.03814 2.34375
1521.98970 2.35388
1519.94126 2.35904
1517.89282 2.36032
1515.84438 2.36198
1513.79595 2.36082
1511.74751 2.36034
1509.69907 2.36011
1507.65063 2.35483
1505.60219 2.35654
1503.55375 2.36141
1501.50532 2.36398
1499.45688 2.36581
1497.40844 2.36477
1495.36000 2.36278
1493.31156 2.36205
1491.26312 2.36470
1489.21469 2.37260
1487.16625 2.37197
1485.11781 2.36158
1483.06937 2.35219
1481.02093 2.34431
1478.97249 2.33394
1476.92406 2.31866
1474.87562 2.29822
1472.82718 2.27690
1470.77874 2.26216
1468.73030 2.25614
1466.68186 2.26175
1464.63343 2.28670
1462.58499 2.31551
1460.53655 2.33320
1458.48811 2.35283
1456.43967 2.38111
1454.39123 2.39041
1452.34280 2.39055
1450.29436 2.38893
1448.24592 2.38079
1446.19748 2.36560
1444.14904 2.35231
1442.10060 2.33973
1440.05217 2.32359
1438.00373 2.30858
1435.95529 2.30355
1433.90685 2.30594
1431.85841 2.30930
1429.80997 2.31507
1427.76154 2.31932
1425.71310 2.32012
1423.66466 2.32217
1421.61622 2.32728
1419.56778 2.33830
1417.51934 2.35575
1415.47091 2.36721
1413.42247 2.37454
1411.37403 2.38468
1409.32559 2.39931
1407.27715 2.41713
1405.22871 2.43968
1403.18028 2.46122
1401.13184 2.47500
1399.08340 2.48549
1397.03496 2.49783
1394.98652 2.51213
1392.93808 2.52126
1390.88965 2.52261
1388.84121 2.52479
1386.79277 2.53391
1384.74433 2.54064
1382.69589 2.54179
1380.64745 2.54216
1378.59901 2.54253
1376.55058 2.54354
1374.50214 2.54737
1372.45370 2.55142
1370.40526 2.55269
1368.35682 2.55314
1366.30838 2.55574
1364.25995 2.56097
1362.21151 2.56345
1360.16307 2.56395
1358.11463 2.56659
1356.06619 2.56805
1354.01775 2.56891
1351.96932 2.57153
1349.92088 2.57216
1347.87244 2.57023
1345.82400 2.57033
1343.77556 2.57399
1341.72712 2.58052
1339.67869 2.58848
1337.63025 2.59043
1335.58181 2.58545
1333.53337 2.58478
1331.48493 2.59037
1329.43649 2.59582
1327.38806 2.59901
1325.33962 2.59983
1323.29118 2.59840
1321.24274 2.60007
1319.19430 2.60985
1317.14586 2.61789
1315.09743 2.61562
1313.04899 2.61063
1311.00055 2.60722
1308.95211 2.60535
1306.90367 2.60565
1304.85523 2.60485
1302.80680 2.60311
1300.75836 2.60361
1298.70992 2.60594
1296.66148 2.60541
1294.61304 2.59808
1292.56460 2.59055
1290.51617 2.58799
1288.46773 2.58782
1286.41929 2.59159
1284.37085 2.60159
1282.32241 2.61452
1280.27397 2.62235
1278.22554 2.61944
1276.17710 2.61346
1274.12866 2.61232
1272.08022 2.61219
1270.03178 2.61205
1267.98334 2.61498
1265.93491 2.61681
1263.88647 2.61865
1261.83803 2.62662
1259.78959 2.63384
1257.74115 2.63257
1255.69271 2.62890
1253.64428 2.63133
1251.59584 2.63569
1249.54740 2.63361
1247.49896 2.63386
1245.45052 2.64493
1243.40208 2.65654
1241.35364 2.65997
1239.30521 2.66259
1237.25677 2.66995
1235.20833 2.67276
1233.15989 2.66716
1231.11145 2.66858
1229.06301 2.68405
1227.01458 2.69613
1224.96614 2.69297
1222.91770 2.68679
1220.86926 2.68869
1218.82082 2.69707
1216.77238 2.70833
1214.72395 2.72101
1212.67551 2.72540
1210.62707 2.71853
1208.57863 2.71398
1206.53019 2.71529
1204.48175 2.72160
1202.43332 2.73394
1200.38488 2.74427
1198.33644 2.74643
1196.28800 2.74801
1194.23956 2.75576
1192.19112 2.76432
1190.14269 2.76893
1188.09425 2.76657
1186.04581 2.75846
1183.99737 2.75856
1181.94893 2.76966
1179.90049 2.78007
1177.85206 2.78679
1175.80362 2.79073
1173.75518 2.79166
1171.70674 2.79073
1169.65830 2.79418
1167.60986 2.80845
1165.56143 2.82716
1163.51299 2.83596
1161.46455 2.83640
1159.41611 2.84877
1157.36767 2.86996
1155.31923 2.87890
1153.27080 2.87445
1151.22236 2.86979
1149.17392 2.86946
1147.12548 2.86353
1145.07704 2.85528
1143.02860 2.85294
1140.98017 2.85164
1138.93173 2.85948
1136.88329 2.88429
1134.83485 2.90330
1132.78641 2.90741
1130.73797 2.91761
1128.68954 2.92956
1126.64110 2.92695
1124.59266 2.91816
1122.54422 2.91270
1120.49578 2.90580
1118.44734 2.89669
1116.39891 2.90261
1114.35047 2.92663
1112.30203 2.93808
1110.25359 2.93396
1108.20515 2.93464
1106.15671 2.93911
1104.10827 2.94915
1102.05984 2.96075
1100.01140 2.96023
1097.96296 2.95689
1095.91452 2.96423
1093.86608 2.97478
1091.81764 2.97643
1089.76921 2.97018
1087.72077 2.96803
1085.67233 2.96206
1083.62389 2.94429
1081.57545 2.93472
1079.52701 2.94434
1077.47858 2.95743
1075.43014 2.95778
1073.38170 2.95652
1071.33326 2.96077
1069.28482 2.96951
1067.23638 2.98591
1065.18795 2.99801
1063.13951 2.99331
1061.09107 2.98201
1059.04263 2.99008
1056.99419 3.02207
1054.94575 3.03913
1052.89732 3.01695
1050.84888 2.98637
1048.80044 2.97130
1046.75200 2.97685
1044.70356 2.99501
1042.65512 3.00769
1040.60669 3.00627
1038.55825 2.99423
1036.50981 2.98972
1034.46137 3.00012
1032.41293 3.01806
1030.36449 3.03196
1028.31606 3.03298
1026.26762 3.02751
1024.21918 3.02743
1022.17074 3.03436
1020.12230 3.03572
1018.07386 3.03682
1016.02543 3.03854
1013.97699 3.03167
1011.92855 3.03448
1009.88011 3.04424
1007.83167 3.03824
1005.78323 3.02842
1003.73480 3.03752
1001.68636 3.05773
999.63792 3.07604
997.58948 3.09793
995.54104 3.09705
993.49260 3.06733
991.44417 3.05786
989.39573 3.06909
987.34729 3.06539
985.29885 3.04602
983.25041 3.02441
981.20197 2.99505
979.15354 2.95728
977.10510 2.92230
975.05666 2.90294
973.00822 2.90562
970.95978 2.91388
968.91134 2.91004
966.86290 2.89909
964.81447 2.88977
962.76603 2.87533
960.71759 2.86017
958.66915 2.86133
956.62071 2.86895
954.57227 2.86364
952.52384 2.84966
950.47540 2.85159
948.42696 2.87273
946.37852 2.88701
944.33008 2.89633
942.28164 2.92411
940.23321 2.96721
938.18477 2.98570
936.13633 2.96543
934.08789 2.96301
932.03945 2.99360
929.99101 3.01222
927.94258 3.00521
925.89414 2.98014
923.84570 2.96212
921.79726 2.97594
919.74882 3.00560
917.70038 3.03838
915.65195 3.07193
913.60351 3.08605
911.55507 3.08410
909.50663 3.09552
907.45819 3.10075
905.40975 3.06948
903.36132 3.04565
901.31288 3.05792
899.26444 3.07575
897.21600 3.08103
895.16756 3.08729
893.11912 3.09647
891.07069 3.10020
889.02225 3.10860
886.97381 3.13163
884.92537 3.14254
882.87693 3.12991
880.82849 3.12406
878.78006 3.13097
876.73162 3.12720
874.68318 3.11851
872.63474 3.12430
870.58630 3.14575
868.53786 3.16665
866.48943 3.16426
864.44099 3.14193
862.39255 3.08595
860.34411 3.02372
858.29567 3.01585
856.24723 3.05459
854.19880 3.08507
852.15036 3.07998
850.10192 3.05470
848.05348 3.02354
846.00504 2.99116
843.95660 2.97354
841.90817 2.99181
839.85973 3.02067
837.81129 3.03165
835.76285 3.03276
833.71441 3.01107
831.66597 2.99368
829.61753 3.02691
827.56910 3.09234
825.52066 3.13979
823.47222 3.13872
821.42378 3.09276
819.37534 3.06326
817.32690 3.06847
815.27847 3.07941
813.23003 3.11657
811.18159 3.17387
809.13315 3.18149
807.08471 3.12653
805.03627 3.06386
802.98784 3.03631
800.93940 3.03689
798.89096 3.04853
796.84252 3.09657
794.79408 3.16884
792.74564 3.19925
790.69721 3.20108
788.64877 3.21759
786.60033 3.23456
784.55189 3.26378
782.50345 3.34489
780.45501 3.35934
778.40658 3.26405
776.35814 3.23089
774.30970 3.22305
772.26126 3.15877
770.21282 3.11949
768.16438 3.15510
766.11595 3.25304
764.06751 3.33898
762.01907 3.29795
759.97063 3.21342
757.92219 3.18084
755.87375 3.20346
753.82532 3.26856
751.77688 3.28161
749.72844 3.22367
747.68000 3.21154
745.63156 3.22169
743.58312 3.20551
741.53469 3.22641
739.48625 3.27279
737.43781 3.24004
735.38937 3.15825
733.34093 3.14189
731.29249 3.20052
729.24406 3.22788
727.19562 3.15265
725.14718 3.05664
723.09874 3.03803
721.05030 3.14967
719.00186 3.32118
716.95343 3.32333
714.90499 3.23655
712.85655 3.20391
710.80811 3.17803
708.75967 3.13438
706.71123 3.08392
704.66280 2.99731
702.61436 2.92793
700.56592 2.92539
698.51748 2.95793
696.46904 2.98550
694.42060 3.00731
692.37216 3.00719
690.32373 2.97706
688.27529 3.01305
686.22685 3.09999
684.17841 3.04015
682.12997 2.94409
680.08153 2.94996
678.03310 3.00684
675.98466 3.09279
673.93622 3.19473
671.88778 3.13854
669.83934 2.98740
667.79090 2.92051
665.74247 2.99326
663.69403 3.14488
661.64559 3.23698
659.59715 3.14053
657.54871 3.14011
655.50027 3.27557
653.45184 3.25419
651.40340 3.12467
649.35496 3.12165
647.30652 3.14439
645.25808 2.97182
643.20964 2.82143
641.16121 2.75966
639.11277 2.71724
637.06433 2.74775
635.01589 2.92906
632.96745 3.26250
630.91901 3.23582
628.87058 2.99882
626.82214 2.94397
624.77370 2.96042
622.72526 2.96691
620.67682 3.04448
618.62838 2.98567
616.57995 2.74793
614.53151 2.68421
612.48307 2.77996
610.43463 2.90743
608.38619 2.94910
606.33775 2.77721
604.28932 2.60583
602.24088 2.51250
600.19244 2.40840
598.14400 2.31353
