3996.50324 1.75831
3994.45480 1.75871
3992.40636 1.75944
3990.35792 1.76233
3988.30948 1.76644
3986.26104 1.77075
3984.21261 1.77657
3982.16417 1.78426
3980.11573 1.79256
3978.06729 1.80128
3976.01885 1.81027
3973.97041 1.81836
3971.92198 1.82388
3969.87354 1.82431
3967.82510 1.82003
3965.77666 1.81525
3963.72822 1.81134
3961.67978 1.80730
3959.63135 1.80313
3957.58291 1.79884
3955.53447 1.79495
3953.48603 1.79192
3951.43759 1.78883
3949.38915 1.78553
3947.34072 1.78290
3945.29228 1.78140
3943.24384 1.78142
3941.19540 1.78198
3939.14696 1.78304
3937.09852 1.78584
3935.05009 1.78931
3933.00165 1.79386
3930.95321 1.80058
3928.90477 1.80684
3926.85633 1.81304
3924.80789 1.82109
3922.75946 1.82810
3920.71102 1.83297
3918.66258 1.83659
3916.61414 1.83847
3914.56570 1.83842
3912.51726 1.83608
3910.46883 1.83282
3908.42039 1.83148
3906.37195 1.83580
3904.32351 1.84818
3902.27507 1.86288
3900.22663 1.87359
3898.17820 1.88349
3896.12976 1.89485
3894.08132 1.90891
3892.03288 1.92872
3889.98444 1.94809
3887.93600 1.96086
3885.88756 1.97623
3883.83913 1.99334
3881.79069 2.00519
3879.74225 2.01662
3877.69381 2.02206
3875.64537 2.02339
3873.59693 2.02184
3871.54850 2.00688
3869.50006 1.97355
3867.45162 1.94254
3865.40318 1.92204
3863.35474 1.90348
3861.30630 1.88643
3859.25787 1.87521
3857.20943 1.87186
3855.16099 1.87784
3853.11255 1.89044
3851.06411 1.88859
3849.01567 1.88336
3846.96724 1.88284
3844.91880 1.88519
3842.87036 1.88871
3840.82192 1.89187
3838.77348 1.89592
3836.72504 1.90270
3834.67661 1.90605
3832.62817 1.90290
3830.57973 1.89859
3828.53129 1.89612
3826.48285 1.89391
3824.43441 1.88891
3822.38598 1.87970
3820.33754 1.86950
3818.28910 1.86178
3816.24066 1.85205
3814.19222 1.83793
3812.14378 1.82441
3810.09535 1.81469
3808.04691 1.81029
3805.99847 1.80894
3803.95003 1.80743
3801.90159 1.81114
3799.85315 1.81656
3797.80472 1.81477
3795.75628 1.80928
3793.70784 1.80269
3791.65940 1.79642
3789.61096 1.79091
3787.56252 1.78803
3785.51409 1.78835
3783.46565 1.78775
3781.41721 1.78350
3779.36877 1.77988
3777.32033 1.78093
3775.27189 1.78232
3773.22346 1.78180
3771.17502 1.78277
3769.12658 1.78667
3767.07814 1.78842
3765.02970 1.78756
3762.98126 1.78642
3760.93283 1.78786
3758.88439 1.79389
3756.83595 1.79853
3754.78751 1.80087
3752.73907 1.80830
3750.69063 1.82358
3748.64219 1.82802
3746.59376 1.82542
3744.54532 1.83255
3742.49688 1.84137
3740.44844 1.84299
3738.40000 1.84666
3736.35156 1.85450
3734.30313 1.85709
3732.25469 1.85236
3730.20625 1.84633
3728.15781 1.84064
3726.10937 1.83685
3724.06093 1.83623
3722.01250 1.83771
3719.96406 1.83943
3717.91562 1.84068
3715.86718 1.84209
3713.81874 1.84595
3711.77030 1.85499
3709.72187 1.85828
3707.67343 1.85185
3705.62499 1.84472
3703.57655 1.83686
3701.52811 1.82786
3699.47967 1.82026
3697.43124 1.81456
3695.38280 1.81161
3693.33436 1.81160
3691.28592 1.81519
3689.23748 1.82619
3687.18904 1.83606
3685.14061 1.84131
3683.09217 1.84961
3681.04373 1.86381
3678.99529 1.88153
3676.94685 1.90013
3674.89841 1.91924
3672.84998 1.92623
3670.80154 1.92919
3668.75310 1.93654
3666.70466 1.93926
3664.65622 1.93949
3662.60778 1.94250
3660.55935 1.94829
3658.51091 1.95426
3656.46247 1.95845
3654.41403 1.95630
3652.36559 1.95137
3650.31715 1.95283
3648.26872 1.96306
3646.22028 1.96666
3644.17184 1.96526
3642.12340 1.96849
3640.07496 1.97913
3638.02652 1.98973
3635.97809 1.99652
3633.92965 2.00390
3631.88121 2.01247
3629.83277 2.02704
3627.78433 2.04710
3625.73589 2.05221
3623.68746 2.05355
3621.63902 2.05883
3619.59058 2.07084
3617.54214 2.08617
3615.49370 2.09568
3613.44526 2.10402
3611.39682 2.11345
3609.34839 2.12239
3607.29995 2.13183
3605.25151 2.13987
3603.20307 2.14680
3601.15463 2.15655
3599.10619 2.17226
3597.05776 2.19329
3595.00932 2.21330
3592.96088 2.22365
3590.91244 2.22841
3588.86400 2.24309
3586.81556 2.27401
3584.76713 2.29946
3582.71869 2.31537
3580.67025 2.32683
3578.62181 2.33954
3576.57337 2.36177
3574.52493 2.38534
3572.47650 2.39629
3570.42806 2.39981
3568.37962 2.41276
3566.33118 2.43182
3564.28274 2.43184
3562.23430 2.42285
3560.18587 2.41254
3558.13743 2.40540
3556.08899 2.40701
3554.04055 2.41540
3551.99211 2.42326
3549.94367 2.42787
3547.89524 2.44001
3545.84680 2.45921
3543.79836 2.47221
3541.74992 2.47764
3539.70148 2.48037
3537.65304 2.48460
3535.60461 2.49073
3533.55617 2.50018
3531.50773 2.51422
3529.45929 2.52529
3527.41085 2.52589
3525.36241 2.52322
3523.31398 2.52802
3521.26554 2.53473
3519.21710 2.53878
3517.16866 2.54547
3515.12022 2.55388
3513.07178 2.56282
3511.02335 2.56992
3508.97491 2.57456
3506.92647 2.58156
3504.87803 2.59404
3502.82959 2.60808
3500.78115 2.60958
3498.73272 2.60403
3496.68428 2.60635
3494.63584 2.60736
3492.58740 2.59823
3490.53896 2.59693
3488.49052 2.60914
3486.44209 2.62141
3484.39365 2.62515
3482.34521 2.61536
3480.29677 2.60332
3478.24833 2.60695
3476.19989 2.61598
3474.15146 2.61647
3472.10302 2.61645
3470.05458 2.62202
3468.00614 2.62729
3465.95770 2.62334
3463.90926 2.61610
3461.86082 2.61828
3459.81239 2.62726
3457.76395 2.63286
3455.71551 2.62831
3453.66707 2.61795
3451.61863 2.61177
3449.57019 2.61240
3447.52176 2.62187
3445.47332 2.63557
3443.42488 2.63709
3441.37644 2.61861
3439.32800 2.57726
3437.27956 2.52019
3435.23113 2.46897
3433.18269 2.44009
3431.13425 2.43620
3429.08581 2.45028
3427.03737 2.46746
3424.98893 2.47823
3422.94050 2.48838
3420.89206 2.50167
3418.84362 2.51448
3416.79518 2.51698
3414.74674 2.50541
3412.69830 2.49825
3410.64987 2.50503
3408.60143 2.50985
3406.55299 2.50506
3404.50455 2.50141
3402.45611 2.50153
3400.40767 2.50079
3398.35924 2.50283
3396.31080 2.51029
3394.26236 2.51840
3392.21392 2.52219
3390.16548 2.51774
3388.11704 2.51387
3386.06861 2.52172
3384.02017 2.53541
3381.97173 2.54234
3379.92329 2.54271
3377.87485 2.55092
3375.82641 2.56558
3373.77798 2.56693
3371.72954 2.55478
3369.68110 2.54691
3367.63266 2.54987
3365.58422 2.55866
3363.53578 2.56950
3361.48735 2.57555
3359.43891 2.56664
3357.39047 2.55059
3355.34203 2.54267
3353.29359 2.54035
3351.24515 2.54008
3349.19672 2.54740
3347.14828 2.56059
3345.09984 2.56432
3343.05140 2.55326
3341.00296 2.54241
3338.95452 2.53776
3336.90609 2.53651
3334.85765 2.53383
3332.80921 2.52701
3330.76077 2.52626
3328.71233 2.53483
3326.66389 2.54265
3324.61545 2.54455
3322.56702 2.53885
3320.51858 2.52679
3318.47014 2.51771
3316.42170 2.51592
3314.37326 2.51809
3312.32482 2.51933
3310.27639 2.51841
3308.22795 2.51789
3306.17951 2.51727
3304.13107 2.51565
3302.08263 2.51095
3300.03419 2.50329
3297.98576 2.49756
3295.93732 2.49695
3293.88888 2.50076
3291.84044 2.50574
3289.79200 2.50692
3287.74356 2.50218
3285.69513 2.50062
3283.64669 2.50425
3281.59825 2.50238
3279.54981 2.49428
3277.50137 2.48158
3275.45293 2.46575
3273.40450 2.45337
3271.35606 2.45018
3269.30762 2.45784
3267.25918 2.46611
3265.21074 2.46585
3263.16230 2.46023
3261.11387 2.45332
3259.06543 2.44824
3257.01699 2.44529
3254.96855 2.44332
3252.92011 2.44381
3250.87167 2.44447
3248.82324 2.44126
3246.77480 2.43527
3244.72636 2.42934
3242.67792 2.42227
3240.62948 2.41078
3238.58104 2.40047
3236.53261 2.39804
3234.48417 2.39719
3232.43573 2.39239
3230.38729 2.38585
3228.33885 2.37874
3226.29041 2.37414
3224.24198 2.37427
3222.19354 2.37479
3220.14510 2.37130
3218.09666 2.36537
3216.04822 2.36127
3213.99978 2.35977
3211.95135 2.35939
3209.90291 2.35856
3207.85447 2.35567
3205.80603 2.35210
3203.75759 2.35086
3201.70915 2.35281
3199.66072 2.35908
3197.61228 2.36537
3195.56384 2.36234
3193.51540 2.35567
3191.46696 2.35477
3189.41852 2.35645
3187.37008 2.35579
3185.32165 2.35318
3183.27321 2.35170
3181.22477 2.35106
3179.17633 2.34600
3177.12789 2.33693
3175.07945 2.33146
3173.03102 2.32780
3170.98258 2.32003
3168.93414 2.31129
3166.88570 2.30567
3164.83726 2.30242
3162.78882 2.29928
3160.74039 2.29574
3158.69195 2.29506
3156.64351 2.29879
3154.59507 2.29999
3152.54663 2.29771
3150.49819 2.29980
3148.44976 2.30318
3146.40132 2.30254
3144.35288 2.30247
3142.30444 2.30351
3140.25600 2.30055
3138.20756 2.29416
3136.15913 2.28839
3134.11069 2.28567
3132.06225 2.28398
3130.01381 2.28104
3127.96537 2.28129
3125.91693 2.28391
3123.86850 2.28192
3121.82006 2.27760
3119.77162 2.27564
3117.72318 2.27465
3115.67474 2.27277
3113.62630 2.27158
3111.57787 2.27282
3109.52943 2.27166
3107.48099 2.26604
3105.43255 2.26348
3103.38411 2.26420
3101.33567 2.26288
3099.28724 2.26317
3097.23880 2.26562
3095.19036 2.26523
3093.14192 2.26212
3091.09348 2.25877
3089.04504 2.25787
3086.99661 2.25735
3084.94817 2.25452
3082.89973 2.25339
3080.85129 2.25411
3078.80285 2.25416
3076.75441 2.25554
3074.70598 2.25772
3072.65754 2.25785
3070.60910 2.25603
3068.56066 2.25481
3066.51222 2.25679
3064.46378 2.25877
3062.41535 2.25909
3060.36691 2.26182
3058.31847 2.26720
3056.27003 2.27416
3054.22159 2.27933
3052.17315 2.27906
3050.12471 2.27823
3048.07628 2.28109
3046.02784 2.28554
3043.97940 2.29145
3041.93096 2.30099
3039.88252 2.31083
3037.83408 2.31733
3035.78565 2.32547
3033.73721 2.33743
3031.68877 2.34678
3029.64033 2.35080
3027.59189 2.35335
3025.54345 2.35873
3023.49502 2.36872
3021.44658 2.37912
3019.39814 2.38508
3017.34970 2.38748
3015.30126 2.39036
3013.25282 2.40023
3011.20439 2.41623
3009.15595 2.42653
3007.10751 2.42908
3005.05907 2.43178
3003.01063 2.43830
3000.96219 2.44913
2998.91376 2.45993
2996.86532 2.46646
2994.81688 2.47410
2992.76844 2.48225
2990.72000 2.48411
2988.67156 2.48585
2986.62313 2.49387
2984.57469 2.50394
2982.52625 2.50770
2980.47781 2.50366
2978.42937 2.50042
2976.38093 2.50198
2974.33250 2.50954
2972.28406 2.52177
2970.23562 2.52915
2968.18718 2.52983
2966.13874 2.52826
2964.09030 2.52668
2962.04187 2.52845
2959.99343 2.53135
2957.94499 2.53423
2955.89655 2.53810
2953.84811 2.53498
2951.79967 2.52660
2949.75124 2.52241
2947.70280 2.51915
2945.65436 2.51868
2943.60592 2.52720
2941.55748 2.53562
2939.50904 2.53696
2937.46061 2.53804
2935.41217 2.53966
2933.36373 2.53669
2931.31529 2.53349
2929.26685 2.53798
2927.21841 2.55017
2925.16998 2.55905
2923.12154 2.55584
2921.07310 2.54867
2919.02466 2.54477
2916.97622 2.53989
2914.92778 2.53702
2912.87934 2.54226
2910.83091 2.54928
2908.78247 2.55206
2906.73403 2.54949
2904.68559 2.54329
2902.63715 2.54286
2900.58871 2.55209
2898.54028 2.55742
2896.49184 2.54997
2894.44340 2.54620
2892.39496 2.55479
2890.34652 2.56046
2888.29808 2.55745
2886.24965 2.55501
2884.20121 2.55115
2882.15277 2.54099
2880.10433 2.53387
2878.05589 2.53403
2876.00745 2.52929
2873.95902 2.51762
2871.91058 2.50965
2869.86214 2.50421
2867.81370 2.49707
2865.76526 2.48871
2863.71682 2.47818
2861.66839 2.46676
2859.61995 2.45833
2857.57151 2.45498
2855.52307 2.45311
2853.47463 2.45141
2851.42619 2.45101
2849.37776 2.44839
2847.32932 2.44557
2845.28088 2.44486
2843.23244 2.44322
2841.18400 2.44093
2839.13556 2.43925
2837.08713 2.43914
2835.03869 2.43903
2832.99025 2.43600
2830.94181 2.42904
2828.89337 2.41880
2826.84493 2.40860
2824.79650 2.39800
2822.74806 2.38352
2820.69962 2.36300
2818.65118 2.33736
2816.60274 2.31071
2814.55430 2.28590
2812.50587 2.26192
2810.45743 2.23650
2808.40899 2.21292
2806.36055 2.19438
2804.31211 2.17801
2802.26367 2.16335
2800.21524 2.15080
2798.16680 2.13871
2796.11836 2.12919
2794.06992 2.12108
2792.02148 2.11056
2789.97304 2.09984
2787.92461 2.09019
2785.87617 2.07978
2783.82773 2.06924
2781.77929 2.06014
2779.73085 2.05278
2777.68241 2.04726
2775.63397 2.04308
2773.58554 2.03933
2771.53710 2.03593
2769.48866 2.03356
2767.44022 2.03232
2765.39178 2.03145
2763.34334 2.03024
2761.29491 2.02750
2759.24647 2.02466
2757.19803 2.02375
2755.14959 2.02238
2753.10115 2.02010
2751.05271 2.01834
2749.00428 2.01588
2746.95584 2.01297
2744.90740 2.01074
2742.85896 2.00843
2740.81052 2.00514
2738.76208 2.00162
2736.71365 1.99939
2734.66521 1.99980
2732.61677 2.00228
2730.56833 2.00248
2728.51989 1.99938
2726.47145 1.99731
2724.42302 1.99690
2722.37458 1.99632
2720.32614 1.99565
2718.27770 1.99411
2716.22926 1.99217
2714.18082 1.99212
2712.13239 1.99279
2710.08395 1.99206
2708.03551 1.99073
2705.98707 1.98969
2703.93863 1.98827
2701.89019 1.98755
2699.84176 1.98911
2697.79332 1.99223
2695.74488 1.99649
2693.69644 2.00127
2691.64800 2.00557
2689.59956 2.01013
2687.55113 2.01577
2685.50269 2.02259
2683.45425 2.03159
2681.40581 2.04264
2679.35737 2.05434
2677.30893 2.06711
2675.26050 2.08236
2673.21206 2.10161
2671.16362 2.12423
2669.11518 2.14577
2667.06674 2.16283
2665.01830 2.17526
2662.96987 2.18521
2660.92143 2.19653
2658.87299 2.20783
2656.82455 2.21649
2654.77611 2.22580
2652.72767 2.23529
2650.67924 2.24231
2648.63080 2.25005
2646.58236 2.25962
2644.53392 2.26824
2642.48548 2.27561
2640.43704 2.28124
2638.38860 2.28645
2636.34017 2.29507
2634.29173 2.30750
2632.24329 2.31954
2630.19485 2.32730
2628.14641 2.33267
2626.09797 2.33954
2624.04954 2.34873
2622.00110 2.35636
2619.95266 2.36277
2617.90422 2.37113
2615.85578 2.37895
2613.80734 2.38616
2611.75891 2.39649
2609.71047 2.40882
2607.66203 2.41877
2605.61359 2.42874
2603.56515 2.44153
2601.51671 2.45346
2599.46828 2.45981
2597.41984 2.46003
2595.37140 2.45944
2593.32296 2.46153
2591.27452 2.46271
2589.22608 2.45979
2587.17765 2.45505
2585.12921 2.44746
2583.08077 2.43593
2581.03233 2.42707
2578.98389 2.42393
2576.93545 2.42216
2574.88702 2.42346
2572.83858 2.43037
2570.79014 2.43783
2568.74170 2.44302
2566.69326 2.44613
2564.64482 2.45170
2562.59639 2.46354
2560.54795 2.47370
2558.49951 2.47488
2556.45107 2.47164
2554.40263 2.46877
2552.35419 2.46650
2550.30576 2.46574
2548.25732 2.46866
2546.20888 2.47223
2544.16044 2.47156
2542.11200 2.47247
2540.06356 2.47670
2538.01513 2.47818
2535.96669 2.47798
2533.91825 2.47965
2531.86981 2.48652
2529.82137 2.49505
2527.77293 2.49591
2525.72450 2.49380
2523.67606 2.49728
2521.62762 2.50305
2519.57918 2.50680
2517.53074 2.50937
2515.48230 2.51317
2513.43387 2.51642
2511.38543 2.51685
2509.33699 2.51644
2507.28855 2.51427
2505.24011 2.51074
2503.19167 2.50993
2501.14324 2.51494
2499.09480 2.52371
2497.04636 2.52467
2494.99792 2.51272
2492.94948 2.49740
2490.90104 2.48571
2488.85260 2.47602
2486.80417 2.46144
2484.75573 2.44193
2482.70729 2.42716
2480.65885 2.41653
2478.61041 2.40194
2476.56197 2.38479
2474.51354 2.36862
2472.46510 2.35340
2470.41666 2.33776
2468.36822 2.32003
2466.31978 2.30298
2464.27134 2.28727
2462.22291 2.26922
2460.17447 2.24815
2458.12603 2.22488
2456.07759 2.20228
2454.02915 2.18234
2451.98071 2.16184
2449.93228 2.14078
2447.88384 2.12369
2445.83540 2.11081
2443.78696 2.09947
2441.73852 2.08921
2439.69008 2.08018
2437.64165 2.07238
2435.59321 2.06624
2433.54477 2.06108
2431.49633 2.05514
2429.44789 2.04916
2427.39945 2.04477
2425.35102 2.04088
2423.30258 2.03587
2421.25414 2.02889
2419.20570 2.02125
2417.15726 2.01404
2415.10882 2.00677
2413.06039 2.00087
2411.01195 1.99675
2408.96351 1.99250
2406.91507 1.98745
2404.86663 1.98296
2402.81819 1.97966
2400.76976 1.97616
2398.72132 1.97147
2396.67288 1.96630
2394.62444 1.96246
2392.57600 1.96062
2390.52756 1.95984
2388.47913 1.95936
2386.43069 1.95879
2384.38225 1.95907
2382.33381 1.96134
2380.28537 1.96474
2378.23693 1.96829
2376.18850 1.97057
2374.14006 1.97119
2372.09162 1.97211
2370.04318 1.97093
2367.99474 1.97084
2365.94630 1.98111
2363.89787 1.99262
2361.84943 1.98995
2359.80099 1.98620
2357.75255 1.99442
2355.70411 1.99765
2353.65567 1.99175
2351.60723 1.98605
2349.55880 1.98118
2347.51036 1.97903
2345.46192 1.98068
2343.41348 1.98187
2341.36504 1.98361
2339.31660 1.98748
2337.26817 1.98840
2335.21973 1.98774
2333.17129 1.98768
2331.12285 1.98727
2329.07441 1.98636
2327.02597 1.98549
2324.97754 1.98640
2322.92910 1.98910
2320.88066 1.98990
2318.83222 1.98979
2316.78378 1.99254
2314.73534 1.99465
2312.68691 1.99349
2310.63847 1.99150
2308.59003 1.98958
2306.54159 1.98925
2304.49315 1.99291
2302.44471 1.99913
2300.39628 2.00576
2298.34784 2.01273
2296.29940 2.01892
2294.25096 2.02410
2292.20252 2.03010
2290.15408 2.03548
2288.10565 2.03745
2286.05721 2.03773
2284.00877 2.03962
2281.96033 2.04284
2279.91189 2.04562
2277.86345 2.04780
2275.81502 2.05033
2273.76658 2.05298
2271.71814 2.05619
2269.66970 2.06298
2267.62126 2.07188
2265.57282 2.07586
2263.52439 2.07436
2261.47595 2.07389
2259.42751 2.07546
2257.37907 2.07450
2255.33063 2.07015
2253.28219 2.06484
2251.23376 2.05945
2249.18532 2.05397
2247.13688 2.04935
2245.08844 2.04660
2243.04000 2.04565
2240.99156 2.04519
2238.94313 2.04561
2236.89469 2.04880
2234.84625 2.05340
2232.79781 2.05674
2230.74937 2.05783
2228.70093 2.05620
2226.65250 2.05193
2224.60406 2.04740
2222.55562 2.04573
2220.50718 2.04684
2218.45874 2.04918
2216.41030 2.05192
2214.36186 2.05576
2212.31343 2.06184
2210.26499 2.06827
2208.21655 2.07230
2206.16811 2.07386
2204.11967 2.07368
2202.07123 2.07110
2200.02280 2.06627
2197.97436 2.06083
2195.92592 2.05530
2193.87748 2.04919
2191.82904 2.04450
2189.78060 2.04256
2187.73217 2.04108
2185.68373 2.04074
2183.63529 2.04295
2181.58685 2.04554
2179.53841 2.04672
2177.48997 2.04560
2175.44154 2.04283
2173.39310 2.04007
2171.34466 2.03699
2169.29622 2.03287
2167.24778 2.02806
2165.19934 2.02326
2163.15091 2.01832
2161.10247 2.01244
2159.05403 2.00640
2157.00559 2.00126
2154.95715 1.99683
2152.90871 1.99222
2150.86028 1.98656
2148.81184 1.97931
2146.76340 1.97092
2144.71496 1.96263
2142.66652 1.95480
2140.61808 1.94759
2138.56965 1.94083
2136.52121 1.93416
2134.47277 1.92809
2132.42433 1.92249
2130.37589 1.91730
2128.32745 1.91384
2126.27902 1.91160
2124.23058 1.90890
2122.18214 1.90627
2120.13370 1.90459
2118.08526 1.90368
2116.03682 1.90281
2113.98839 1.90238
2111.93995 1.90267
2109.89151 1.90240
2107.84307 1.90182
2105.79463 1.90075
2103.74619 1.89884
2101.69776 1.89774
2099.64932 1.89755
2097.60088 1.89759
2095.55244 1.89737
2093.50400 1.89646
2091.45556 1.89613
2089.40713 1.89762
2087.35869 1.89986
2085.31025 1.90110
2083.26181 1.90157
2081.21337 1.90259
2079.16493 1.90452
2077.11649 1.90713
2075.06806 1.90978
2073.01962 1.91271
2070.97118 1.91694
2068.92274 1.92203
2066.87430 1.92864
2064.82586 1.93692
2062.77743 1.94371
2060.72899 1.94929
2058.68055 1.95641
2056.63211 1.96446
2054.58367 1.97172
2052.53523 1.97833
2050.48680 1.98466
2048.43836 1.99130
2046.38992 1.99794
2044.34148 2.00054
2042.29304 1.99801
2040.24460 1.99498
2038.19617 1.99353
2036.14773 1.99246
2034.09929 1.99207
2032.05085 1.99188
2030.00241 1.99063
2027.95397 1.98947
2025.90554 1.98905
2023.85710 1.98896
2021.80866 1.98991
2019.76022 1.99256
2017.71178 1.99502
2015.66334 1.99565
2013.61491 1.99734
2011.56647 2.00211
2009.51803 2.00799
2007.46959 2.01280
2005.42115 2.01689
2003.37271 2.02236
2001.32428 2.03007
1999.27584 2.03767
1997.22740 2.04341
1995.17896 2.05038
1993.13052 2.06106
1991.08208 2.07200
1989.03365 2.07921
1986.98521 2.08453
1984.93677 2.09135
1982.88833 2.10019
1980.83989 2.10902
1978.79145 2.11681
1976.74302 2.12563
1974.69458 2.13750
1972.64614 2.15158
1970.59770 2.16523
1968.54926 2.17849
1966.50082 2.19233
1964.45239 2.20658
1962.40395 2.22156
1960.35551 2.23480
1958.30707 2.24695
1956.25863 2.26207
1954.21019 2.27832
1952.16176 2.29405
1950.11332 2.30988
1948.06488 2.32329
1946.01644 2.33380
1943.96800 2.34682
1941.91956 2.36405
1939.87112 2.37595
1937.82269 2.38073
1935.77425 2.38514
1933.72581 2.39075
1931.67737 2.39594
1929.62893 2.40060
1927.58049 2.40497
1925.53206 2.40897
1923.48362 2.41595
1921.43518 2.42701
1919.38674 2.43838
1917.33830 2.44906
1915.28986 2.45735
1913.24143 2.46671
1911.19299 2.48027
1909.14455 2.49138
1907.09611 2.49641
1905.04767 2.50079
1902.99923 2.50711
1900.95080 2.51300
1898.90236 2.51837
1896.85392 2.52474
1894.80548 2.53268
1892.75704 2.54078
1890.70860 2.54855
1888.66017 2.55704
1886.61173 2.55993
1884.56329 2.55844
1882.51485 2.56179
1880.46641 2.56639
1878.41797 2.56676
1876.36954 2.56952
1874.32110 2.57574
1872.27266 2.58025
1870.22422 2.58406
1868.17578 2.58781
1866.12734 2.58844
1864.07891 2.58698
1862.03047 2.58664
1859.98203 2.58830
1857.93359 2.59157
1855.88515 2.59702
1853.83671 2.60045
1851.78828 2.59514
1849.73984 2.58335
1847.69140 2.57292
1845.64296 2.57063
1843.59452 2.57903
1841.54608 2.58211
1839.49765 2.57784
1837.44921 2.57604
1835.40077 2.57178
1833.35233 2.56450
1831.30389 2.56021
1829.25545 2.55664
1827.20702 2.55585
1825.15858 2.56221
1823.11014 2.56751
1821.06170 2.56162
1819.01326 2.55277
1816.96482 2.55011
1814.91639 2.54737
1812.86795 2.54241
1810.81951 2.54122
1808.77107 2.54304
1806.72263 2.54288
1804.67419 2.53739
1802.62575 2.52984
1800.57732 2.52787
1798.52888 2.53158
1796.48044 2.53591
1794.43200 2.54029
1792.38356 2.54893
1790.33512 2.55349
1788.28669 2.54770
1786.23825 2.54219
1784.18981 2.53872
1782.14137 2.53807
1780.09293 2.54177
1778.04449 2.54113
1775.99606 2.53639
1773.94762 2.53449
1771.89918 2.53461
1769.85074 2.52979
1767.80230 2.52165
1765.75386 2.51578
1763.70543 2.51189
1761.65699 2.50798
1759.60855 2.50517
1757.56011 2.50260
1755.51167 2.50028
1753.46323 2.50160
1751.41480 2.50946
1749.36636 2.52184
1747.31792 2.52707
1745.26948 2.52576
1743.22104 2.52472
1741.17260 2.52349
1739.12417 2.51934
1737.07573 2.51374
1735.02729 2.51755
1732.97885 2.53565
1730.93041 2.53868
1728.88197 2.53402
1726.83354 2.53451
1724.78510 2.53689
1722.73666 2.53637
1720.68822 2.53229
1718.63978 2.53257
1716.59134 2.55124
1714.54291 2.56798
1712.49447 2.56908
1710.44603 2.56950
1708.39759 2.57344
1706.34915 2.57693
1704.30071 2.57682
1702.25228 2.57548
1700.20384 2.58882
1698.15540 2.60763
1696.10696 2.60835
1694.05852 2.61092
1692.01008 2.61464
1689.96165 2.61775
1687.91321 2.62382
1685.86477 2.63142
1683.81633 2.63850
1681.76789 2.64219
1679.71945 2.65229
1677.67102 2.66687
1675.62258 2.67398
1673.57414 2.67521
1671.52570 2.68236
1669.47726 2.69549
1667.42882 2.70517
1665.38038 2.71040
1663.33195 2.71545
1661.28351 2.71924
1659.23507 2.72322
1657.18663 2.72648
1655.13819 2.72583
1653.08975 2.72624
1651.04132 2.74092
1648.99288 2.75825
1646.94444 2.76459
1644.89600 2.75298
1642.84756 2.74717
1640.79912 2.74592
1638.75069 2.74477
1636.70225 2.74743
1634.65381 2.74558
1632.60537 2.74144
1630.55693 2.73884
1628.50849 2.72651
1626.46006 2.70891
1624.41162 2.70857
1622.36318 2.72171
1620.31474 2.72003
1618.26630 2.71085
1616.21786 2.71307
1614.16943 2.72335
1612.12099 2.72504
1610.07255 2.71673
1608.02411 2.70594
1605.97567 2.69788
1603.92723 2.68719
1601.87880 2.66955
1599.83036 2.65040
1597.78192 2.63457
1595.73348 2.61840
1593.68504 2.59259
1591.63660 2.55510
1589.58817 2.50930
1587.53973 2.45634
1585.49129 2.39328
1583.44285 2.32164
1581.39441 2.25162
1579.34597 2.19319
1577.29754 2.13728
1575.24910 2.08034
1573.20066 2.05047
1571.15222 2.03895
1569.10378 2.03348
1567.05534 2.02841
1565.00691 2.02468
1562.95847 2.02281
1560.91003 2.02555
1558.86159 2.04633
1556.81315 2.05951
1554.76471 2.05996
1552.71628 2.06714
1550.66784 2.08175
1548.61940 2.09969
1546.57096 2.11580
1544.52252 2.13298
1542.47408 2.14970
1540.42565 2.16470
1538.37721 2.17212
1536.32877 2.17167
1534.28033 2.17758
1532.23189 2.19019
1530.18345 2.19658
1528.13501 2.20323
1526.08658 2.21658
1524.03814 2.22902
1521.98970 2.24253
1519.94126 2.25712
1517.89282 2.26696
1515.84438 2.27592
1513.79595 2.27954
1511.74751 2.28327
1509.69907 2.29521
1507.65063 2.31805
1505.60219 2.32951
1503.55375 2.32485
1501.50532 2.32445
1499.45688 2.32936
1497.40844 2.33908
1495.36000 2.34548
1493.31156 2.34434
1491.26312 2.34574
1489.21469 2.35161
1487.16625 2.34188
1485.11781 2.31380
1483.06937 2.27184
1481.02093 2.21733
1478.97249 2.16373
1476.92406 2.11548
1474.87562 2.06785
1472.82718 2.00948
1470.77874 1.95946
1468.73030 1.93697
1466.68186 1.93381
1464.63343 1.95615
1462.58499 1.99350
1460.53655 2.02717
1458.48811 2.06632
1456.43967 2.11054
1454.39123 2.12149
1452.34280 2.11999
1450.29436 2.11999
1448.24592 2.11736
1446.19748 2.09987
1444.14904 2.06413
1442.10060 2.01503
1440.05217 1.96833
1438.00373 1.93338
1435.95529 1.90517
1433.90685 1.88566
1431.85841 1.87470
1429.80997 1.86892
1427.76154 1.86558
1425.71310 1.86433
1423.66466 1.86467
1421.61622 1.86601
1419.56778 1.87391
1417.51934 1.88860
1415.47091 1.90099
1413.42247 1.91893
1411.37403 1.95014
1409.32559 1.99011
1407.27715 2.03170
1405.22871 2.07746
1403.18028 2.11949
1401.13184 2.14861
1399.08340 2.17526
1397.03496 2.20372
1394.98652 2.22973
1392.93808 2.24835
1390.88965 2.25970
1388.84121 2.26960
1386.79277 2.27840
1384.74433 2.28286
1382.69589 2.28793
1380.64745 2.29686
1378.59901 2.30615
1376.55058 2.31404
1374.50214 2.32398
1372.45370 2.33479
1370.40526 2.34331
1368.35682 2.34838
1366.30838 2.35104
1364.25995 2.35767
1362.21151 2.36855
1360.16307 2.37580
1358.11463 2.37878
1356.06619 2.38224
1354.01775 2.38648
1351.96932 2.38943
1349.92088 2.39112
1347.87244 2.39330
1345.82400 2.39749
1343.77556 2.40271
1341.72712 2.40636
1339.67869 2.40837
1337.63025 2.41157
1335.58181 2.41612
1333.53337 2.41896
1331.48493 2.41952
1329.43649 2.42280
1327.38806 2.42834
1325.33962 2.43230
1323.29118 2.43445
1321.24274 2.43656
1319.19430 2.44040
1317.14586 2.44357
1315.09743 2.44419
1313.04899 2.44377
1311.00055 2.44293
1308.95211 2.44077
1306.90367 2.44014
1304.85523 2.44155
1302.80680 2.44229
1300.75836 2.44092
1298.70992 2.43736
1296.66148 2.43539
1294.61304 2.43451
1292.56460 2.43102
1290.51617 2.42810
1288.46773 2.43014
1286.41929 2.43323
1284.37085 2.43370
1282.32241 2.43667
1280.27397 2.44277
1278.22554 2.44463
1276.17710 2.44404
1274.12866 2.44566
1272.08022 2.44605
1270.03178 2.44488
1267.98334 2.44519
1265.93491 2.44726
1263.88647 2.44814
1261.83803 2.44594
1259.78959 2.44256
1257.74115 2.44186
1255.69271 2.44500
1253.64428 2.44691
1251.59584 2.44690
1249.54740 2.44950
1247.49896 2.45382
1245.45052 2.45731
1243.40208 2.45964
1241.35364 2.46032
1239.30521 2.46308
1237.25677 2.46856
1235.20833 2.46697
1233.15989 2.45928
1231.11145 2.45622
1229.06301 2.45552
1227.01458 2.45258
1224.96614 2.45119
1222.91770 2.45299
1220.86926 2.45707
1218.82082 2.46006
1216.77238 2.45680
1214.72395 2.44643
1212.67551 2.43351
1210.62707 2.42724
1208.57863 2.42770
1206.53019 2.42572
1204.48175 2.42191
1202.43332 2.42210
1200.38488 2.42185
1198.33644 2.41630
1196.28800 2.41027
1194.23956 2.40633
1192.19112 2.40436
1190.14269 2.40354
1188.09425 2.40138
1186.04581 2.39923
1183.99737 2.39749
1181.94893 2.39249
1179.90049 2.38285
1177.85206 2.37395
1175.80362 2.36963
1173.75518 2.36761
1171.70674 2.36687
1169.65830 2.36498
1167.60986 2.35911
1165.56143 2.35363
1163.51299 2.35029
1161.46455 2.34545
1159.41611 2.34068
1157.36767 2.33974
1155.31923 2.34110
1153.27080 2.34092
1151.22236 2.33664
1149.17392 2.32805
1147.12548 2.31994
1145.07704 2.31591
1143.02860 2.31580
1140.98017 2.31825
1138.93173 2.31821
1136.88329 2.31657
1134.83485 2.32102
1132.78641 2.32955
1130.73797 2.33615
1128.68954 2.34332
1126.64110 2.35154
1124.59266 2.35808
1122.54422 2.36744
1120.49578 2.38025
1118.44734 2.38784
1116.39891 2.39152
1114.35047 2.40216
1112.30203 2.41951
1110.25359 2.43461
1108.20515 2.44623
1106.15671 2.45926
1104.10827 2.47574
1102.05984 2.49274
1100.01140 2.50345
1097.96296 2.50847
1095.91452 2.51319
1093.86608 2.51477
1091.81764 2.51164
1089.76921 2.50757
1087.72077 2.50556
1085.67233 2.50745
1083.62389 2.51217
1081.57545 2.51266
1079.52701 2.50536
1077.47858 2.50031
1075.43014 2.50555
1073.38170 2.51808
1071.33326 2.52981
1069.28482 2.53655
1067.23638 2.54066
1065.18795 2.54434
1063.13951 2.55058
1061.09107 2.55548
1059.04263 2.55544
1056.99419 2.55553
1054.94575 2.55443
1052.89732 2.54892
1050.84888 2.54332
1048.80044 2.54382
1046.75200 2.55071
1044.70356 2.56046
1042.65512 2.56632
1040.60669 2.56675
1038.55825 2.56760
1036.50981 2.56702
1034.46137 2.56735
1032.41293 2.57263
1030.36449 2.57842
1028.31606 2.58332
1026.26762 2.58556
1024.21918 2.58685
1022.17074 2.59441
1020.12230 2.60441
1018.07386 2.60715
1016.02543 2.60467
1013.97699 2.60559
1011.92855 2.61274
1009.88011 2.61909
1007.83167 2.61847
1005.78323 2.61581
1003.73480 2.61787
1001.68636 2.62144
999.63792 2.62147
997.58948 2.62331
995.54104 2.62710
993.49260 2.62332
991.44417 2.61477
989.39573 2.61057
987.34729 2.60395
985.29885 2.58835
983.25041 2.56042
981.20197 2.51294
979.15354 2.45939
977.10510 2.41434
975.05666 2.37433
973.00822 2.33685
970.95978 2.30773
968.91134 2.28558
966.86290 2.26250
964.81447 2.23851
962.76603 2.21564
960.71759 2.19506
958.66915 2.17792
956.62071 2.16253
954.57227 2.15021
952.52384 2.14726
950.47540 2.15620
948.42696 2.17398
946.37852 2.19878
944.33008 2.22794
942.28164 2.25605
940.23321 2.28085
938.18477 2.30195
936.13633 2.31796
934.08789 2.33235
932.03945 2.34658
929.99101 2.36054
927.94258 2.37984
925.89414 2.39920
923.84570 2.40866
921.79726 2.41257
919.74882 2.41805
917.70038 2.42406
915.65195 2.42764
913.60351 2.43198
911.55507 2.44259
909.50663 2.45766
907.45819 2.46946
905.40975 2.47293
903.36132 2.47018
901.31288 2.47112
899.26444 2.47891
897.21600 2.49049
895.16756 2.50543
893.11912 2.51315
891.07069 2.51041
889.02225 2.50925
886.97381 2.51216
884.92537 2.51970
882.87693 2.53309
880.82849 2.54610
878.78006 2.55338
876.73162 2.55578
874.68318 2.55768
872.63474 2.55934
870.58630 2.55818
868.53786 2.55213
866.48943 2.53868
864.44099 2.51750
862.39255 2.48872
860.34411 2.45038
858.29567 2.40699
856.24723 2.37055
854.19880 2.34286
852.15036 2.32127
850.10192 2.31082
848.05348 2.30725
846.00504 2.29606
843.95660 2.26871
841.90817 2.23271
839.85973 2.21036
837.81129 2.21374
835.76285 2.23529
833.71441 2.26059
831.66597 2.28088
829.61753 2.30150
827.56910 2.32758
825.52066 2.35002
823.47222 2.36017
821.42378 2.35513
819.37534 2.33037
817.32690 2.29605
815.27847 2.27840
813.23003 2.28911
811.18159 2.31438
809.13315 2.33470
807.08471 2.34445
805.03627 2.35136
802.98784 2.35984
800.93940 2.36515
798.89096 2.36931
796.84252 2.37830
794.79408 2.39046
792.74564 2.40114
790.69721 2.40748
788.64877 2.41139
786.60033 2.42095
784.55189 2.43581
782.50345 2.45022
780.45501 2.46359
778.40658 2.45860
776.35814 2.43937
774.30970 2.43885
772.26126 2.44580
770.21282 2.43471
768.16438 2.41796
766.11595 2.40529
764.06751 2.39666
762.01907 2.39839
759.97063 2.40649
757.92219 2.41284
755.87375 2.41714
753.82532 2.41012
751.77688 2.39544
749.72844 2.39591
747.68000 2.40773
745.63156 2.42062
743.58312 2.43641
741.53469 2.43723
739.48625 2.41796
737.43781 2.40780
735.38937 2.42436
733.34093 2.44768
731.29249 2.44388
729.24406 2.42540
727.19562 2.42924
725.14718 2.45004
723.09874 2.45815
721.05030 2.44794
719.00186 2.43509
716.95343 2.43257
714.90499 2.44208
712.85655 2.45313
710.80811 2.44122
708.75967 2.41880
706.71123 2.42229
704.66280 2.44874
702.61436 2.47573
700.56592 2.48369
698.51748 2.46969
696.46904 2.46739
694.42060 2.48883
692.37216 2.48909
690.32373 2.45412
688.27529 2.43337
686.22685 2.44513
684.17841 2.45914
682.12997 2.46067
680.08153 2.46065
678.03310 2.45924
675.98466 2.45378
673.93622 2.44689
671.88778 2.43193
669.83934 2.40372
667.79090 2.39947
665.74247 2.42037
663.69403 2.42440
661.64559 2.43267
659.59715 2.44788
657.54871 2.45683
655.50027 2.46687
653.45184 2.46014
651.40340 2.43630
649.35496 2.44215
647.30652 2.47084
645.25808 2.47125
643.20964 2.45579
641.16121 2.47286
639.11277 2.51109
637.06433 2.53676
635.01589 2.56383
632.96745 2.54981
630.91901 2.48094
628.87058 2.47940
626.82214 2.57779
624.77370 2.62812
622.72526 2.60618
620.67682 2.64855
618.62838 2.70287
616.57995 2.64314
614.53151 2.53286
612.48307 2.44701
610.43463 2.39251
608.38619 2.39019
606.33775 2.42550
604.28932 2.44770
602.24088 2.41907
600.19244 2.38226
598.14400 2.42149
