3996.50324 2.33529
3994.45480 2.33155
3992.40636 2.33170
3990.35792 2.33577
3988.30948 2.33526
3986.26104 2.33517
3984.21261 2.34154
3982.16417 2.35315
3980.11573 2.36618
3978.06729 2.37986
3976.01885 2.39451
3973.97041 2.40255
3971.92198 2.40278
3969.87354 2.40174
3967.82510 2.39919
3965.77666 2.39464
3963.72822 2.39258
3961.67978 2.39263
3959.63135 2.38326
3957.58291 2.36142
3955.53447 2.34277
3953.48603 2.33755
3951.43759 2.33966
3949.38915 2.34267
3947.34072 2.34325
3945.29228 2.34377
3943.24384 2.34744
3941.19540 2.34610
3939.14696 2.34126
3937.09852 2.34229
3935.05009 2.34936
3933.00165 2.35732
3930.95321 2.36061
3928.90477 2.36408
3926.85633 2.36981
3924.80789 2.37421
3922.75946 2.38105
3920.71102 2.39203
3918.66258 2.40581
3916.61414 2.41850
3914.56570 2.41802
3912.51726 2.40604
3910.46883 2.39264
3908.42039 2.38061
3906.37195 2.37169
3904.32351 2.36928
3902.27507 2.37340
3900.22663 2.38418
3898.17820 2.39537
3896.12976 2.39894
3894.08132 2.40211
3892.03288 2.41500
3889.98444 2.42863
3887.93600 2.42930
3885.88756 2.42404
3883.83913 2.41901
3881.79069 2.41965
3879.74225 2.43395
3877.69381 2.44847
3875.64537 2.45319
3873.59693 2.44415
3871.54850 2.41932
3869.50006 2.40850
3867.45162 2.41865
3865.40318 2.41371
3863.35474 2.39231
3861.30630 2.37873
3859.25787 2.36840
3857.20943 2.36145
3855.16099 2.38250
3853.11255 2.43065
3851.06411 2.41947
3849.01567 2.39707
3846.96724 2.38952
3844.91880 2.39028
3842.87036 2.38810
3840.82192 2.38056
3838.77348 2.38647
3836.72504 2.39695
3834.67661 2.38842
3832.62817 2.37962
3830.57973 2.37916
3828.53129 2.37700
3826.48285 2.37414
3824.43441 2.37368
3822.38598 2.37885
3820.33754 2.39100
3818.28910 2.38420
3816.24066 2.35781
3814.19222 2.33702
3812.14378 2.32902
3810.09535 2.32288
3808.04691 2.31631
3805.99847 2.31435
3803.95003 2.31375
3801.90159 2.31109
3799.85315 2.31207
3797.80472 2.30773
3795.75628 2.29842
3793.70784 2.29530
3791.65940 2.29573
3789.61096 2.29448
3787.56252 2.29060
3785.51409 2.28679
3783.46565 2.28453
3781.41721 2.28459
3779.36877 2.28923
3777.32033 2.28830
3775.27189 2.28107
3773.22346 2.27772
3771.17502 2.27591
3769.12658 2.27183
3767.07814 2.27191
3765.02970 2.27585
3762.98126 2.27749
3760.93283 2.27993
3758.88439 2.28673
3756.83595 2.28776
3754.78751 2.28061
3752.73907 2.27751
3750.69063 2.29325
3748.64219 2.30935
3746.59376 2.31202
3744.54532 2.31960
3742.49688 2.32703
3740.44844 2.32536
3738.40000 2.32590
3736.35156 2.33554
3734.30313 2.35179
3732.25469 2.35227
3730.20625 2.33689
3728.15781 2.32465
3726.10937 2.31980
3724.06093 2.31460
3722.01250 2.30891
3719.96406 2.30916
3717.91562 2.30906
3715.86718 2.30784
3713.81874 2.31422
3711.77030 2.32605
3709.72187 2.32510
3707.67343 2.31763
3705.62499 2.30963
3703.57655 2.29624
3701.52811 2.28716
3699.47967 2.29098
3697.43124 2.29203
3695.38280 2.28609
3693.33436 2.28086
3691.28592 2.27749
3689.23748 2.28458
3687.18904 2.30072
3685.14061 2.30959
3683.09217 2.31788
3681.04373 2.32924
3678.99529 2.34115
3676.94685 2.35358
3674.89841 2.36542
3672.84998 2.36657
3670.80154 2.36147
3668.75310 2.35852
3666.70466 2.35796
3664.65622 2.35836
3662.60778 2.36041
3660.55935 2.36475
3658.51091 2.37176
3656.46247 2.37363
3654.41403 2.36668
3652.36559 2.36488
3650.31715 2.37221
3648.26872 2.37381
3646.22028 2.36653
3644.17184 2.36068
3642.12340 2.35749
3640.07496 2.35610
3638.02652 2.35341
3635.97809 2.35177
3633.92965 2.35178
3631.88121 2.35206
3629.83277 2.35907
3627.78433 2.36665
3625.73589 2.36130
3623.68746 2.35697
3621.63902 2.35931
3619.59058 2.36539
3617.54214 2.36917
3615.49370 2.36881
3613.44526 2.36628
3611.39682 2.36636
3609.34839 2.37263
3607.29995 2.38072
3605.25151 2.38560
3603.20307 2.38766
3601.15463 2.39127
3599.10619 2.40132
3597.05776 2.40844
3595.00932 2.40855
3592.96088 2.40878
3590.91244 2.40674
3588.86400 2.40513
3586.81556 2.41722
3584.76713 2.43358
3582.71869 2.44118
3580.67025 2.44769
3578.62181 2.46079
3576.57337 2.48066
3574.52493 2.49919
3572.47650 2.51127
3570.42806 2.51909
3568.37962 2.52785
3566.33118 2.53571
3564.28274 2.52708
3562.23430 2.51184
3560.18587 2.50222
3558.13743 2.50131
3556.08899 2.50283
3554.04055 2.49968
3551.99211 2.50032
3549.94367 2.51362
3547.89524 2.53315
3545.84680 2.54917
3543.79836 2.55730
3541.74992 2.56704
3539.70148 2.58712
3537.65304 2.60814
3535.60461 2.61029
3533.55617 2.59903
3531.50773 2.59857
3529.45929 2.61760
3527.41085 2.64695
3525.36241 2.67049
3523.31398 2.68779
3521.26554 2.70624
3519.21710 2.72394
3517.16866 2.74861
3515.12022 2.78472
3513.07178 2.81508
3511.02335 2.82478
3508.97491 2.83324
3506.92647 2.86186
3504.87803 2.89933
3502.82959 2.93961
3500.78115 2.97512
3498.73272 2.99907
3496.68428 3.02515
3494.63584 3.04757
3492.58740 3.06389
3490.53896 3.09206
3488.49052 3.10697
3486.44209 3.08729
3484.39365 3.07101
3482.34521 3.09943
3480.29677 3.16352
3478.24833 3.14608
3476.19989 3.05480
3474.15146 3.00703
3472.10302 2.99526
3470.05458 2.98242
3468.00614 2.97790
3465.95770 2.98329
3463.90926 2.99071
3461.86082 2.98668
3459.81239 2.96785
3457.76395 2.94549
3455.71551 2.92324
3453.66707 2.89849
3451.61863 2.87253
3449.57019 2.85225
3447.52176 2.84040
3445.47332 2.84681
3443.42488 2.86488
3441.37644 2.86951
3439.32800 2.86671
3437.27956 2.87897
3435.23113 2.91942
3433.18269 3.00676
3431.13425 3.15521
3429.08581 3.29614
3427.03737 3.29738
3424.98893 3.21383
3422.94050 3.10780
3420.89206 2.97453
3418.84362 2.85846
3416.79518 2.78803
3414.74674 2.74913
3412.69830 2.71961
3410.64987 2.69630
3408.60143 2.68482
3406.55299 2.67712
3404.50455 2.67207
3402.45611 2.67375
3400.40767 2.66907
3398.35924 2.65748
3396.31080 2.65677
3394.26236 2.66670
3392.21392 2.67684
3390.16548 2.68213
3388.11704 2.68193
3386.06861 2.67944
3384.02017 2.67592
3381.97173 2.67931
3379.92329 2.68694
3377.87485 2.68577
3375.82641 2.68755
3373.77798 2.69310
3371.72954 2.69023
3369.68110 2.69763
3367.63266 2.71228
3365.58422 2.70187
3363.53578 2.68331
3361.48735 2.68793
3359.43891 2.70163
3357.39047 2.70164
3355.34203 2.69910
3353.29359 2.70721
3351.24515 2.71446
3349.19672 2.70767
3347.14828 2.69203
3345.09984 2.67915
3343.05140 2.66819
3341.00296 2.65520
3338.95452 2.65171
3336.90609 2.65910
3334.85765 2.65723
3332.80921 2.64687
3330.76077 2.64040
3328.71233 2.63614
3326.66389 2.63541
3324.61545 2.64028
3322.56702 2.63781
3320.51858 2.61988
3318.47014 2.60551
3316.42170 2.60248
3314.37326 2.59739
3312.32482 2.59037
3310.27639 2.58740
3308.22795 2.58596
3306.17951 2.58584
3304.13107 2.58855
3302.08263 2.58869
3300.03419 2.58599
3297.98576 2.58497
3295.93732 2.57572
3293.88888 2.55621
3291.84044 2.54222
3289.79200 2.54088
3287.74356 2.54835
3285.69513 2.55506
3283.64669 2.56085
3281.59825 2.56926
3279.54981 2.56323
3277.50137 2.54121
3275.45293 2.52573
3273.40450 2.51961
3271.35606 2.51340
3269.30762 2.50759
3267.25918 2.50444
3265.21074 2.50333
3263.16230 2.50213
3261.11387 2.49884
3259.06543 2.49438
3257.01699 2.48720
3254.96855 2.47740
3252.92011 2.47036
3250.87167 2.46663
3248.82324 2.46226
3246.77480 2.45776
3244.72636 2.45710
3242.67792 2.45584
3240.62948 2.44486
3238.58104 2.43028
3236.53261 2.42328
3234.48417 2.42202
3232.43573 2.42028
3230.38729 2.41918
3228.33885 2.42074
3226.29041 2.41982
3224.24198 2.41502
3222.19354 2.40892
3220.14510 2.40251
3218.09666 2.40076
3216.04822 2.40310
3213.99978 2.40218
3211.95135 2.39748
3209.90291 2.39401
3207.85447 2.39198
3205.80603 2.38657
3203.75759 2.37873
3201.70915 2.37423
3199.66072 2.37246
3197.61228 2.37166
3195.56384 2.37486
3193.51540 2.37877
3191.46696 2.37735
3189.41852 2.37534
3187.37008 2.37942
3185.32165 2.38260
3183.27321 2.37769
3181.22477 2.37229
3179.17633 2.36923
3177.12789 2.36307
3175.07945 2.35543
3173.03102 2.34767
3170.98258 2.33803
3168.93414 2.33022
3166.88570 2.32667
3164.83726 2.32701
3162.78882 2.33109
3160.74039 2.33302
3158.69195 2.32913
3156.64351 2.32489
3154.59507 2.32509
3152.54663 2.32715
3150.49819 2.32741
3148.44976 2.32830
3146.40132 2.33182
3144.35288 2.33339
3142.30444 2.32880
3140.25600 2.32459
3138.20756 2.32668
3136.15913 2.32577
3134.11069 2.31855
3132.06225 2.31803
3130.01381 2.32683
3127.96537 2.33388
3125.91693 2.33230
3123.86850 2.32618
3121.82006 2.32115
3119.77162 2.31647
3117.72318 2.31313
3115.67474 2.31307
3113.62630 2.31518
3111.57787 2.31530
3109.52943 2.31047
3107.48099 2.30569
3105.43255 2.30432
3103.38411 2.30413
3101.33567 2.30402
3099.28724 2.30502
3097.23880 2.30774
3095.19036 2.31032
3093.14192 2.31183
3091.09348 2.31193
3089.04504 2.30792
3086.99661 2.30053
3084.94817 2.29649
3082.89973 2.29853
3080.85129 2.30186
3078.80285 2.30340
3076.75441 2.30355
3074.70598 2.30270
3072.65754 2.30205
3070.60910 2.30343
3068.56066 2.30805
3066.51222 2.31272
3064.46378 2.31408
3062.41535 2.31501
3060.36691 2.31628
3058.31847 2.31532
3056.27003 2.31427
3054.22159 2.31450
3052.17315 2.31502
3050.12471 2.31660
3048.07628 2.31738
3046.02784 2.31812
3043.97940 2.32257
3041.93096 2.33000
3039.88252 2.33678
3037.83408 2.34159
3035.78565 2.34822
3033.73721 2.35639
3031.68877 2.36205
3029.64033 2.36770
3027.59189 2.37408
3025.54345 2.37641
3023.49502 2.37740
3021.44658 2.38367
3019.39814 2.39212
3017.34970 2.39843
3015.30126 2.40610
3013.25282 2.41376
3011.20439 2.41822
3009.15595 2.42587
3007.10751 2.43750
3005.05907 2.44752
3003.01063 2.45568
3000.96219 2.46317
2998.91376 2.47034
2996.86532 2.47710
2994.81688 2.48525
2992.76844 2.49644
2990.72000 2.50658
2988.67156 2.51361
2986.62313 2.52205
2984.57469 2.53038
2982.52625 2.53313
2980.47781 2.53570
2978.42937 2.54542
2976.38093 2.55852
2974.33250 2.57081
2972.28406 2.58141
2970.23562 2.58695
2968.18718 2.58811
2966.13874 2.58730
2964.09030 2.58498
2962.04187 2.58272
2959.99343 2.58362
2957.94499 2.58613
2955.89655 2.58361
2953.84811 2.57608
2951.79967 2.56982
2949.75124 2.56584
2947.70280 2.56082
2945.65436 2.56129
2943.60592 2.57115
2941.55748 2.58092
2939.50904 2.59092
2937.46061 2.60419
2935.41217 2.61020
2933.36373 2.60566
2931.31529 2.60180
2929.26685 2.60559
2927.21841 2.60796
2925.16998 2.60370
2923.12154 2.60261
2921.07310 2.60919
2919.02466 2.62124
2916.97622 2.62922
2914.92778 2.63391
2912.87934 2.65273
2910.83091 2.67969
2908.78247 2.69236
2906.73403 2.68266
2904.68559 2.66187
2902.63715 2.64804
2900.58871 2.64649
2898.54028 2.65264
2896.49184 2.65819
2894.44340 2.65816
2892.39496 2.65822
2890.34652 2.66433
2888.29808 2.67339
2886.24965 2.68215
2884.20121 2.68760
2882.15277 2.67822
2880.10433 2.65266
2878.05589 2.62685
2876.00745 2.60313
2873.95902 2.57538
2871.91058 2.55213
2869.86214 2.53518
2867.81370 2.51628
2865.76526 2.49926
2863.71682 2.49104
2861.66839 2.48947
2859.61995 2.48881
2857.57151 2.48588
2855.52307 2.48393
2853.47463 2.48498
2851.42619 2.48346
2849.37776 2.47809
2847.32932 2.47436
2845.28088 2.47467
2843.23244 2.47831
2841.18400 2.48479
2839.13556 2.49214
2837.08713 2.49824
2835.03869 2.50142
2832.99025 2.50012
2830.94181 2.49836
2828.89337 2.49576
2826.84493 2.48350
2824.79650 2.46325
2822.74806 2.44153
2820.69962 2.41762
2818.65118 2.39160
2816.60274 2.36696
2814.55430 2.34821
2812.50587 2.33425
2810.45743 2.32053
2808.40899 2.30832
2806.36055 2.29776
2804.31211 2.28753
2802.26367 2.27936
2800.21524 2.27447
2798.16680 2.27135
2796.11836 2.26522
2794.06992 2.25581
2792.02148 2.24735
2789.97304 2.24112
2787.92461 2.23647
2785.87617 2.23224
2783.82773 2.22735
2781.77929 2.22268
2779.73085 2.21992
2777.68241 2.21726
2775.63397 2.21281
2773.58554 2.20939
2771.53710 2.20917
2769.48866 2.21047
2767.44022 2.21000
2765.39178 2.20687
2763.34334 2.20358
2761.29491 2.20207
2759.24647 2.20277
2757.19803 2.20454
2755.14959 2.20375
2753.10115 2.19976
2751.05271 2.19673
2749.00428 2.19517
2746.95584 2.19224
2744.90740 2.18854
2742.85896 2.18670
2740.81052 2.18665
2738.76208 2.18707
2736.71365 2.18827
2734.66521 2.18991
2732.61677 2.18996
2730.56833 2.18819
2728.51989 2.18714
2726.47145 2.18839
2724.42302 2.19023
2722.37458 2.18940
2720.32614 2.18715
2718.27770 2.18784
2716.22926 2.19113
2714.18082 2.19396
2712.13239 2.19427
2710.08395 2.19170
2708.03551 2.18992
2705.98707 2.19158
2703.93863 2.19395
2701.89019 2.19549
2699.84176 2.19620
2697.79332 2.19654
2695.74488 2.19935
2693.69644 2.20442
2691.64800 2.20852
2689.59956 2.21117
2687.55113 2.21452
2685.50269 2.21773
2683.45425 2.21771
2681.40581 2.21763
2679.35737 2.22355
2677.30893 2.23331
2675.26050 2.24252
2673.21206 2.25207
2671.16362 2.26390
2669.11518 2.27613
2667.06674 2.28529
2665.01830 2.29370
2662.96987 2.30176
2660.92143 2.30727
2658.87299 2.31345
2656.82455 2.32069
2654.77611 2.32591
2652.72767 2.32860
2650.67924 2.33045
2648.63080 2.33644
2646.58236 2.34766
2644.53392 2.35566
2642.48548 2.35849
2640.43704 2.36201
2638.38860 2.36774
2636.34017 2.37587
2634.29173 2.38625
2632.24329 2.39339
2630.19485 2.39431
2628.14641 2.39791
2626.09797 2.40730
2624.04954 2.41554
2622.00110 2.42159
2619.95266 2.43043
2617.90422 2.44657
2615.85578 2.46456
2613.80734 2.47337
2611.75891 2.47888
2609.71047 2.49260
2607.66203 2.51048
2605.61359 2.52612
2603.56515 2.54118
2601.51671 2.55789
2599.46828 2.56951
2597.41984 2.57155
2595.37140 2.57235
2593.32296 2.57395
2591.27452 2.56977
2589.22608 2.56422
2587.17765 2.56097
2585.12921 2.54845
2583.08077 2.53066
2581.03233 2.52031
2578.98389 2.51516
2576.93545 2.51573
2574.88702 2.52782
2572.83858 2.54724
2570.79014 2.56330
2568.74170 2.57904
2566.69326 2.60003
2564.64482 2.62156
2562.59639 2.64002
2560.54795 2.65119
2558.49951 2.65323
2556.45107 2.65058
2554.40263 2.65133
2552.35419 2.65800
2550.30576 2.66164
2548.25732 2.65956
2546.20888 2.65598
2544.16044 2.65412
2542.11200 2.66309
2540.06356 2.67920
2538.01513 2.69159
2535.96669 2.70753
2533.91825 2.72798
2531.86981 2.74576
2529.82137 2.76016
2527.77293 2.77349
2525.72450 2.79108
2523.67606 2.80849
2521.62762 2.82317
2519.57918 2.84154
2517.53074 2.86201
2515.48230 2.88055
2513.43387 2.89340
2511.38543 2.90030
2509.33699 2.90703
2507.28855 2.92152
2505.24011 2.94969
2503.19167 2.97344
2501.14324 2.97140
2499.09480 2.95095
2497.04636 2.91392
2494.99792 2.85353
2492.94948 2.77928
2490.90104 2.70820
2488.85260 2.64460
2486.80417 2.58706
2484.75573 2.53951
2482.70729 2.50152
2480.65885 2.47213
2478.61041 2.44991
2476.56197 2.42717
2474.51354 2.40559
2472.46510 2.39173
2470.41666 2.38185
2468.36822 2.37070
2466.31978 2.35740
2464.27134 2.34290
2462.22291 2.33075
2460.17447 2.32165
2458.12603 2.31119
2456.07759 2.29886
2454.02915 2.28812
2451.98071 2.28010
2449.93228 2.27229
2447.88384 2.26379
2445.83540 2.25737
2443.78696 2.25377
2441.73852 2.25251
2439.69008 2.25134
2437.64165 2.24757
2435.59321 2.24456
2433.54477 2.24414
2431.49633 2.24174
2429.44789 2.23715
2427.39945 2.23300
2425.35102 2.22831
2423.30258 2.22435
2421.25414 2.22207
2419.20570 2.21898
2417.15726 2.21594
2415.10882 2.21454
2413.06039 2.21143
2411.01195 2.20521
2408.96351 2.20064
2406.91507 2.19854
2404.86663 2.19364
2402.81819 2.18736
2400.76976 2.18480
2398.72132 2.18473
2396.67288 2.18435
2394.62444 2.18378
2392.57600 2.18404
2390.52756 2.18422
2388.47913 2.18309
2386.43069 2.18178
2384.38225 2.18114
2382.33381 2.18148
2380.28537 2.18295
2378.23693 2.18341
2376.18850 2.18423
2374.14006 2.18773
2372.09162 2.19027
2370.04318 2.19354
2367.99474 2.20012
2365.94630 2.20092
2363.89787 2.18325
2361.84943 2.15984
2359.80099 2.14977
2357.75255 2.14500
2355.70411 2.14169
2353.65567 2.14716
2351.60723 2.16017
2349.55880 2.17026
2347.51036 2.17354
2345.46192 2.17153
2343.41348 2.17033
2341.36504 2.17269
2339.31660 2.17219
2337.26817 2.16963
2335.21973 2.17195
2333.17129 2.18217
2331.12285 2.18818
2329.07441 2.18473
2327.02597 2.18126
2324.97754 2.18022
2322.92910 2.18217
2320.88066 2.18426
2318.83222 2.18377
2316.78378 2.18299
2314.73534 2.18309
2312.68691 2.18403
2310.63847 2.18374
2308.59003 2.18168
2306.54159 2.18109
2304.49315 2.18265
2302.44471 2.18546
2300.39628 2.18950
2298.34784 2.19468
2296.29940 2.20018
2294.25096 2.20421
2292.20252 2.20758
2290.15408 2.21207
2288.10565 2.21498
2286.05721 2.21263
2284.00877 2.20768
2281.96033 2.20540
2279.91189 2.20601
2277.86345 2.20754
2275.81502 2.21106
2273.76658 2.21635
2271.71814 2.22119
2269.66970 2.22424
2267.62126 2.22626
2265.57282 2.23055
2263.52439 2.23471
2261.47595 2.23508
2259.42751 2.23526
2257.37907 2.23408
2255.33063 2.22815
2253.28219 2.22213
2251.23376 2.21807
2249.18532 2.21470
2247.13688 2.21243
2245.08844 2.20939
2243.04000 2.20498
2240.99156 2.20349
2238.94313 2.20625
2236.89469 2.20740
2234.84625 2.20665
2232.79781 2.20873
2230.74937 2.21081
2228.70093 2.20969
2226.65250 2.20715
2224.60406 2.20561
2222.55562 2.20534
2220.50718 2.20517
2218.45874 2.20656
2216.41030 2.21027
2214.36186 2.21325
2212.31343 2.21304
2210.26499 2.21203
2208.21655 2.21439
2206.16811 2.21899
2204.11967 2.22127
2202.07123 2.22061
2200.02280 2.21934
2197.97436 2.21805
2195.92592 2.21652
2193.87748 2.21350
2191.82904 2.20985
2189.78060 2.20853
2187.73217 2.20809
2185.68373 2.20722
2183.63529 2.20701
2181.58685 2.20644
2179.53841 2.20514
2177.48997 2.20571
2175.44154 2.20749
2173.39310 2.20727
2171.34466 2.20592
2169.29622 2.20448
2167.24778 2.20170
2165.19934 2.19681
2163.15091 2.19184
2161.10247 2.18980
2159.05403 2.18949
2157.00559 2.18743
2154.95715 2.18227
2152.90871 2.17596
2150.86028 2.17179
2148.81184 2.16986
2146.76340 2.16732
2144.71496 2.16348
2142.66652 2.15991
2140.61808 2.15544
2138.56965 2.14780
2136.52121 2.14076
2134.47277 2.13898
2132.42433 2.13948
2130.37589 2.13682
2128.32745 2.12999
2126.27902 2.12326
2124.23058 2.12134
2122.18214 2.12209
2120.13370 2.12147
2118.08526 2.12157
2116.03682 2.12360
2113.98839 2.12476
2111.93995 2.12463
2109.89151 2.12344
2107.84307 2.12151
2105.79463 2.12157
2103.74619 2.12349
2101.69776 2.12569
2099.64932 2.12768
2097.60088 2.12653
2095.55244 2.12368
2093.50400 2.12479
2091.45556 2.12852
2089.40713 2.12987
2087.35869 2.12913
2085.31025 2.12874
2083.26181 2.12879
2081.21337 2.12848
2079.16493 2.12929
2077.11649 2.13130
2075.06806 2.13126
2073.01962 2.13033
2070.97118 2.13190
2068.92274 2.13619
2066.87430 2.14150
2064.82586 2.14603
2062.77743 2.14922
2060.72899 2.15118
2058.68055 2.15354
2056.63211 2.15759
2054.58367 2.16213
2052.53523 2.16629
2050.48680 2.17105
2048.43836 2.17541
2046.38992 2.17749
2044.34148 2.17888
2042.29304 2.18149
2040.24460 2.18352
2038.19617 2.18298
2036.14773 2.18211
2034.09929 2.18148
2032.05085 2.18022
2030.00241 2.18035
2027.95397 2.18130
2025.90554 2.18141
2023.85710 2.18219
2021.80866 2.18322
2019.76022 2.18240
2017.71178 2.18320
2015.66334 2.18703
2013.61491 2.18835
2011.56647 2.18732
2009.51803 2.18823
2007.46959 2.19016
2005.42115 2.19172
2003.37271 2.19422
2001.32428 2.19726
1999.27584 2.20128
1997.22740 2.20511
1995.17896 2.20466
1993.13052 2.20278
1991.08208 2.20617
1989.03365 2.21287
1986.98521 2.21730
1984.93677 2.22004
1982.88833 2.22312
1980.83989 2.22663
1978.79145 2.23121
1976.74302 2.23665
1974.69458 2.24120
1972.64614 2.24510
1970.59770 2.24940
1968.54926 2.25587
1966.50082 2.26504
1964.45239 2.27412
1962.40395 2.28276
1960.35551 2.29156
1958.30707 2.29945
1956.25863 2.30569
1954.21019 2.31317
1952.16176 2.32398
1950.11332 2.33451
1948.06488 2.34364
1946.01644 2.35312
1943.96800 2.36115
1941.91956 2.36623
1939.87112 2.37149
1937.82269 2.37976
1935.77425 2.38976
1933.72581 2.39703
1931.67737 2.39924
1929.62893 2.39871
1927.58049 2.40141
1925.53206 2.41024
1923.48362 2.42080
1921.43518 2.43122
1919.38674 2.44387
1917.33830 2.46066
1915.28986 2.48125
1913.24143 2.50075
1911.19299 2.51715
1909.14455 2.53232
1907.09611 2.54499
1905.04767 2.55623
1902.99923 2.57181
1900.95080 2.59090
1898.90236 2.60738
1896.85392 2.62438
1894.80548 2.64811
1892.75704 2.67035
1890.70860 2.69287
1888.66017 2.72925
1886.61173 2.76937
1884.56329 2.80156
1882.51485 2.82417
1880.46641 2.83534
1878.41797 2.83704
1876.36954 2.83408
1874.32110 2.82751
1872.27266 2.81536
1870.22422 2.81019
1868.17578 2.83110
1866.12734 2.86951
1864.07891 2.90522
1862.03047 2.92189
1859.98203 2.91245
1857.93359 2.90241
1855.88515 2.90432
1853.83671 2.89705
1851.78828 2.86947
1849.73984 2.83794
1847.69140 2.81673
1845.64296 2.80965
1843.59452 2.81268
1841.54608 2.81391
1839.49765 2.80758
1837.44921 2.79697
1835.40077 2.78755
1833.35233 2.77276
1831.30389 2.74840
1829.25545 2.72362
1827.20702 2.69775
1825.15858 2.66559
1823.11014 2.63898
1821.06170 2.61941
1819.01326 2.60290
1816.96482 2.58959
1814.91639 2.57624
1812.86795 2.56337
1810.81951 2.55051
1808.77107 2.54075
1806.72263 2.53746
1804.67419 2.53510
1802.62575 2.52969
1800.57732 2.52847
1798.52888 2.53594
1796.48044 2.54164
1794.43200 2.53960
1792.38356 2.53432
1790.33512 2.53658
1788.28669 2.54122
1786.23825 2.53924
1784.18981 2.53244
1782.14137 2.52598
1780.09293 2.52119
1778.04449 2.51536
1775.99606 2.50750
1773.94762 2.49932
1771.89918 2.48422
1769.85074 2.46215
1767.80230 2.44726
1765.75386 2.44144
1763.70543 2.43877
1761.65699 2.43803
1759.60855 2.43745
1757.56011 2.43494
1755.51167 2.43536
1753.46323 2.43666
1751.41480 2.43394
1749.36636 2.43465
1747.31792 2.45052
1745.26948 2.46813
1743.22104 2.47135
1741.17260 2.46282
1739.12417 2.45701
1737.07573 2.45903
1735.02729 2.46693
1732.97885 2.47236
1730.93041 2.46801
1728.88197 2.46860
1726.83354 2.47314
1724.78510 2.47472
1722.73666 2.47601
1720.68822 2.48327
1718.63978 2.49731
1716.59134 2.51110
1714.54291 2.51464
1712.49447 2.51682
1710.44603 2.52401
1708.39759 2.53264
1706.34915 2.54115
1704.30071 2.54936
1702.25228 2.55332
1700.20384 2.55243
1698.15540 2.55551
1696.10696 2.56434
1694.05852 2.56705
1692.01008 2.57050
1689.96165 2.58154
1687.91321 2.59083
1685.86477 2.58988
1683.81633 2.60442
1681.76789 2.63901
1679.71945 2.66012
1677.67102 2.67727
1675.62258 2.70188
1673.57414 2.73085
1671.52570 2.75098
1669.47726 2.76133
1667.42882 2.77842
1665.38038 2.79984
1663.33195 2.81353
1661.28351 2.82215
1659.23507 2.83405
1657.18663 2.84678
1655.13819 2.85445
1653.08975 2.84422
1651.04132 2.84454
1648.99288 2.87183
1646.94444 2.90841
1644.89600 2.91297
1642.84756 2.90713
1640.79912 2.91796
1638.75069 2.93852
1636.70225 2.94761
1634.65381 2.95253
1632.60537 2.97528
1630.55693 3.00741
1628.50849 3.04304
1626.46006 3.05902
1624.41162 3.05614
1622.36318 3.06413
1620.31474 3.07737
1618.26630 3.08916
1616.21786 3.10338
1614.16943 3.10018
1612.12099 3.08793
1610.07255 3.08118
1608.02411 3.07838
1605.97567 3.07685
1603.92723 3.08575
1601.87880 3.10539
1599.83036 3.13438
1597.78192 3.16667
1595.73348 3.17807
1593.68504 3.17622
1591.63660 3.19199
1589.58817 3.22257
1587.53973 3.24355
1585.49129 3.24285
1583.44285 3.21960
1581.39441 3.16774
1579.34597 3.09832
1577.29754 3.02047
1575.24910 2.94527
1573.20066 2.90011
1571.15222 2.86798
1569.10378 2.84559
1567.05534 2.83552
1565.00691 2.82452
1562.95847 2.81558
1560.91003 2.80980
1558.86159 2.82195
1556.81315 2.87083
1554.76471 2.90171
1552.71628 2.91330
1550.66784 2.92110
1548.61940 2.93796
1546.57096 2.95606
1544.52252 2.96570
1542.47408 2.95682
1540.42565 2.97447
1538.37721 3.03280
1536.32877 3.05916
1534.28033 3.09569
1532.23189 3.13759
1530.18345 3.13858
1528.13501 3.14126
1526.08658 3.17256
1524.03814 3.19356
1521.98970 3.21139
1519.94126 3.23635
1517.89282 3.22220
1515.84438 3.23822
1513.79595 3.32387
1511.74751 3.41963
1509.69907 3.43911
1507.65063 3.43305
1505.60219 3.51221
1503.55375 3.50378
1501.50532 3.48548
1499.45688 3.49131
1497.40844 3.45913
1495.36000 3.40834
1493.31156 3.41337
1491.26312 3.44904
1489.21469 3.46027
1487.16625 3.45055
1485.11781 3.45271
1483.06937 3.42400
1481.02093 3.34149
1478.97249 3.24820
1476.92406 3.15904
1474.87562 3.06405
1472.82718 2.94775
1470.77874 2.84987
1468.73030 2.80098
1466.68186 2.77684
1464.63343 2.77127
1462.58499 2.78211
1460.53655 2.80537
1458.48811 2.85554
1456.43967 2.93039
1454.39123 2.95782
1452.34280 2.96001
1450.29436 2.95022
1448.24592 2.93899
1446.19748 2.92718
1444.14904 2.89245
1442.10060 2.83693
1440.05217 2.78119
1438.00373 2.73509
1435.95529 2.70024
1433.90685 2.67573
1431.85841 2.65388
1429.80997 2.63588
1427.76154 2.62723
1425.71310 2.62572
1423.66466 2.62361
1421.61622 2.61888
1419.56778 2.62056
1417.51934 2.63417
1415.47091 2.64948
1413.42247 2.66655
1411.37403 2.69383
1409.32559 2.73623
1407.27715 2.78925
1405.22871 2.84440
1403.18028 2.88609
1401.13184 2.91612
1399.08340 2.95409
1397.03496 3.00237
1394.98652 3.03899
1392.93808 3.04561
1390.88965 3.05224
1388.84121 3.07903
1386.79277 3.09903
1384.74433 3.08822
1382.69589 3.07718
1380.64745 3.08847
1378.59901 3.11421
1376.55058 3.13037
1374.50214 3.12932
1372.45370 3.11792
1370.40526 3.11394
1368.35682 3.11676
1366.30838 3.10357
1364.25995 3.08538
1362.21151 3.09258
1360.16307 3.10416
1358.11463 3.09549
1356.06619 3.09850
1354.01775 3.11604
1351.96932 3.11627
1349.92088 3.10495
1347.87244 3.10266
1345.82400 3.11875
1343.77556 3.14151
1341.72712 3.14789
1339.67869 3.14550
1337.63025 3.14280
1335.58181 3.13109
1333.53337 3.12580
1331.48493 3.12035
1329.43649 3.10080
1327.38806 3.09388
1325.33962 3.10263
1323.29118 3.10717
1321.24274 3.11550
1319.19430 3.12306
1317.14586 3.10798
1315.09743 3.09127
1313.04899 3.08898
1311.00055 3.08946
1308.95211 3.09026
1306.90367 3.08610
1304.85523 3.06949
1302.80680 3.04236
1300.75836 3.02370
1298.70992 3.03097
1296.66148 3.03803
1294.61304 3.01916
1292.56460 3.00172
1290.51617 3.00356
1288.46773 3.01234
1286.41929 3.01898
1284.37085 3.01942
1282.32241 3.01482
1280.27397 3.01050
1278.22554 3.00884
1276.17710 3.01092
1274.12866 3.01179
1272.08022 3.01341
1270.03178 3.02685
1267.98334 3.03942
1265.93491 3.02796
1263.88647 3.00149
1261.83803 2.98418
1259.78959 2.98030
1257.74115 2.97540
1255.69271 2.96554
1253.64428 2.95646
1251.59584 2.94756
1249.54740 2.94258
1247.49896 2.94951
1245.45052 2.96549
1243.40208 2.97921
1241.35364 2.98631
1239.30521 2.99643
1237.25677 3.00951
1235.20833 3.00452
1233.15989 2.98237
1231.11145 2.97202
1229.06301 2.98124
1227.01458 2.98350
1224.96614 2.96296
1222.91770 2.93692
1220.86926 2.92878
1218.82082 2.93302
1216.77238 2.92658
1214.72395 2.91591
1212.67551 2.90616
1210.62707 2.89580
1208.57863 2.89230
1206.53019 2.88641
1204.48175 2.87541
1202.43332 2.87486
1200.38488 2.88550
1198.33644 2.89988
1196.28800 2.91232
1194.23956 2.90826
1192.19112 2.89946
1190.14269 2.90947
1188.09425 2.92283
1186.04581 2.92212
1183.99737 2.91889
1181.94893 2.91607
1179.90049 2.91151
1177.85206 2.90791
1175.80362 2.89969
1173.75518 2.88426
1171.70674 2.87021
1169.65830 2.86405
1167.60986 2.85420
1165.56143 2.83825
1163.51299 2.83503
1161.46455 2.84666
1159.41611 2.85762
1157.36767 2.86393
1155.31923 2.87080
1153.27080 2.87672
1151.22236 2.87977
1149.17392 2.87781
1147.12548 2.87463
1145.07704 2.87210
1143.02860 2.86335
1140.98017 2.85606
1138.93173 2.85859
1136.88329 2.86127
1134.83485 2.85558
1132.78641 2.84867
1130.73797 2.85105
1128.68954 2.86037
1126.64110 2.86334
1124.59266 2.85913
1122.54422 2.85894
1120.49578 2.86657
1118.44734 2.88156
1116.39891 2.89661
1114.35047 2.90271
1112.30203 2.91185
1110.25359 2.93163
1108.20515 2.94931
1106.15671 2.97082
1104.10827 3.00409
1102.05984 3.03593
1100.01140 3.06897
1097.96296 3.10555
1095.91452 3.12881
1093.86608 3.14114
1091.81764 3.13270
1089.76921 3.08495
1087.72077 3.03418
1085.67233 3.01730
1083.62389 3.03014
1081.57545 3.03297
1079.52701 3.01119
1077.47858 3.00069
1075.43014 3.01209
1073.38170 3.02110
1071.33326 3.01322
1069.28482 3.01274
1067.23638 3.03786
1065.18795 3.07175
1063.13951 3.08348
1061.09107 3.06343
1059.04263 3.05752
1056.99419 3.07603
1054.94575 3.07498
1052.89732 3.06347
1050.84888 3.06830
1048.80044 3.07160
1046.75200 3.06313
1044.70356 3.05538
1042.65512 3.05408
1040.60669 3.07610
1038.55825 3.11745
1036.50981 3.12898
1034.46137 3.11013
1032.41293 3.10066
1030.36449 3.10416
1028.31606 3.11316
1026.26762 3.12251
1024.21918 3.12104
1022.17074 3.11802
1020.12230 3.12637
1018.07386 3.14194
1016.02543 3.15987
1013.97699 3.18496
1011.92855 3.22874
1009.88011 3.26395
1007.83167 3.27509
1005.78323 3.29727
1003.73480 3.31870
1001.68636 3.31625
999.63792 3.29337
997.58948 3.26560
995.54104 3.25447
993.49260 3.25904
991.44417 3.26897
989.39573 3.26674
987.34729 3.25178
985.29885 3.24631
983.25041 3.24320
981.20197 3.21474
979.15354 3.17855
977.10510 3.18538
975.05666 3.20732
973.00822 3.15829
970.95978 3.07492
968.91134 3.01547
966.86290 2.98081
964.81447 2.97512
962.76603 2.97850
960.71759 2.95128
958.66915 2.90732
956.62071 2.88215
954.57227 2.87509
952.52384 2.87082
950.47540 2.87050
948.42696 2.88104
946.37852 2.90295
944.33008 2.93443
942.28164 2.97863
940.23321 3.03338
938.18477 3.06444
936.13633 3.04495
934.08789 3.02236
932.03945 3.03519
929.99101 3.05666
927.94258 3.06842
925.89414 3.08314
923.84570 3.09598
921.79726 3.10732
919.74882 3.14023
917.70038 3.18093
915.65195 3.18990
913.60351 3.18980
911.55507 3.19192
909.50663 3.17420
907.45819 3.18210
905.40975 3.25214
903.36132 3.30027
901.31288 3.29973
899.26444 3.33403
897.21600 3.36060
895.16756 3.36121
893.11912 3.38089
891.07069 3.37664
889.02225 3.35831
886.97381 3.36186
884.92537 3.34835
882.87693 3.34788
880.82849 3.41167
878.78006 3.47844
876.73162 3.46928
874.68318 3.44721
872.63474 3.49624
870.58630 3.53489
868.53786 3.46461
866.48943 3.38460
864.44099 3.34497
862.39255 3.32579
860.34411 3.29454
858.29567 3.24707
856.24723 3.21624
854.19880 3.18741
852.15036 3.13482
850.10192 3.10825
848.05348 3.11606
846.00504 3.12126
843.95660 3.11953
841.90817 3.08278
839.85973 3.02369
837.81129 3.00669
835.76285 3.03134
833.71441 3.05478
831.66597 3.06569
829.61753 3.07341
827.56910 3.09056
825.52066 3.10483
823.47222 3.10341
821.42378 3.11218
819.37534 3.09334
817.32690 3.03722
815.27847 2.99995
813.23003 2.96846
811.18159 2.94868
809.13315 2.97301
807.08471 3.01000
805.03627 3.04125
802.98784 3.08181
800.93940 3.08820
798.89096 3.07115
796.84252 3.10164
794.79408 3.14878
792.74564 3.13299
790.69721 3.07590
788.64877 3.02635
786.60033 3.01322
784.55189 3.03012
782.50345 3.05063
780.45501 3.09944
778.40658 3.15461
776.35814 3.16373
774.30970 3.18516
772.26126 3.20367
770.21282 3.17281
768.16438 3.13345
766.11595 3.06715
764.06751 3.01226
762.01907 3.05475
759.97063 3.17434
757.92219 3.20959
755.87375 3.11679
753.82532 3.03913
751.77688 3.04710
749.72844 3.17214
747.68000 3.36008
745.63156 3.44550
743.58312 3.43633
741.53469 3.31799
739.48625 3.15650
737.43781 3.06964
735.38937 3.03857
733.34093 3.02168
731.29249 3.01369
729.24406 3.01979
727.19562 3.06439
725.14718 3.13781
723.09874 3.12624
721.05030 3.05063
719.00186 3.01620
716.95343 2.98549
714.90499 2.92124
712.85655 2.87725
710.80811 2.90165
708.75967 2.96442
706.71123 2.96419
704.66280 2.91296
702.61436 2.89926
700.56592 2.91896
698.51748 2.92145
696.46904 2.88668
694.42060 2.86470
692.37216 2.87660
690.32373 2.90559
688.27529 2.93698
686.22685 2.91035
684.17841 2.86298
682.12997 2.86821
680.08153 2.87537
678.03310 2.83970
675.98466 2.85202
673.93622 2.95652
671.88778 3.01462
669.83934 2.96300
667.79090 2.94591
665.74247 2.92321
663.69403 2.88573
661.64559 2.90775
659.59715 2.98512
657.54871 3.10709
655.50027 3.07494
653.45184 2.83886
651.40340 2.71736
649.35496 2.76388
647.30652 2.91084
645.25808 3.05914
643.20964 3.03708
641.16121 2.93024
639.11277 2.86966
637.06433 2.86085
635.01589 2.97807
632.96745 3.05236
630.91901 2.91760
628.87058 2.84487
626.82214 2.89080
624.77370 3.07592
622.72526 3.98714
620.67682 5.00000
618.62838 5.00000
616.57995 3.24210
614.53151 2.74243
612.48307 2.70463
610.43463 2.86157
608.38619 3.79452
606.33775 5.00000
604.28932 4.78945
602.24088 2.78100
600.19244 2.64907
598.14400 2.81269
