3996.50324 2.09152
3994.45480 2.09664
3992.40636 2.10056
3990.35792 2.10547
3988.30948 2.11165
3986.26104 2.11806
3984.21261 2.12922
3982.16417 2.14298
3980.11573 2.15771
3978.06729 2.17670
3976.01885 2.19650
3973.97041 2.21327
3971.92198 2.22106
3969.87354 2.21497
3967.82510 2.20594
3965.77666 2.20273
3963.72822 2.19872
3961.67978 2.18745
3959.63135 2.17120
3957.58291 2.15886
3955.53447 2.15291
3953.48603 2.14378
3951.43759 2.13012
3949.38915 2.12441
3947.34072 2.12884
3945.29228 2.13034
3943.24384 2.12983
3941.19540 2.13383
3939.14696 2.13811
3937.09852 2.14087
3935.05009 2.14074
3933.00165 2.14296
3930.95321 2.15580
3928.90477 2.16764
3926.85633 2.17308
3924.80789 2.18751
3922.75946 2.21041
3920.71102 2.22337
3918.66258 2.23051
3916.61414 2.23875
3914.56570 2.23441
3912.51726 2.21720
3910.46883 2.20249
3908.42039 2.19309
3906.37195 2.18526
3904.32351 2.18959
3902.27507 2.21171
3900.22663 2.23452
3898.17820 2.24632
3896.12976 2.24265
3894.08132 2.23586
3892.03288 2.24777
3889.98444 2.26973
3887.93600 2.27404
3885.88756 2.28146
3883.83913 2.29914
3881.79069 2.30514
3879.74225 2.31254
3877.69381 2.31568
3875.64537 2.31085
3873.59693 2.30685
3871.54850 2.29487
3869.50006 2.28796
3867.45162 2.28577
3865.40318 2.27316
3863.35474 2.26717
3861.30630 2.26144
3859.25787 2.24307
3857.20943 2.22268
3855.16099 2.20626
3853.11255 2.22489
3851.06411 2.26709
3849.01567 2.27161
3846.96724 2.25886
3844.91880 2.25180
3842.87036 2.25770
3840.82192 2.26832
3838.77348 2.28438
3836.72504 2.29924
3834.67661 2.29002
3832.62817 2.27629
3830.57973 2.27445
3828.53129 2.27088
3826.48285 2.26283
3824.43441 2.25566
3822.38598 2.25160
3820.33754 2.25275
3818.28910 2.23797
3816.24066 2.21771
3814.19222 2.20432
3812.14378 2.18726
3810.09535 2.16794
3808.04691 2.15900
3805.99847 2.16795
3803.95003 2.17049
3801.90159 2.17120
3799.85315 2.17706
3797.80472 2.16988
3795.75628 2.16407
3793.70784 2.15611
3791.65940 2.14415
3789.61096 2.13721
3787.56252 2.13145
3785.51409 2.12878
3783.46565 2.12983
3781.41721 2.12555
3779.36877 2.12707
3777.32033 2.13358
3775.27189 2.12680
3773.22346 2.11374
3771.17502 2.10996
3769.12658 2.12074
3767.07814 2.12747
3765.02970 2.12625
3762.98126 2.11878
3760.93283 2.10768
3758.88439 2.11164
3756.83595 2.12067
3754.78751 2.11366
3752.73907 2.10747
3750.69063 2.13616
3748.64219 2.16395
3746.59376 2.15222
3744.54532 2.15632
3742.49688 2.18467
3740.44844 2.18760
3738.40000 2.17762
3736.35156 2.17868
3734.30313 2.19713
3732.25469 2.20991
3730.20625 2.20217
3728.15781 2.18662
3726.10937 2.17825
3724.06093 2.17621
3722.01250 2.17685
3719.96406 2.18199
3717.91562 2.18410
3715.86718 2.18042
3713.81874 2.17502
3711.77030 2.18778
3709.72187 2.21618
3707.67343 2.21733
3705.62499 2.20165
3703.57655 2.18509
3701.52811 2.17920
3699.47967 2.17653
3697.43124 2.16448
3695.38280 2.15005
3693.33436 2.13907
3691.28592 2.13836
3689.23748 2.16539
3687.18904 2.19720
3685.14061 2.20390
3683.09217 2.20630
3681.04373 2.21748
3678.99529 2.23014
3676.94685 2.24444
3674.89841 2.28031
3672.84998 2.29876
3670.80154 2.30262
3668.75310 2.31847
3666.70466 2.31885
3664.65622 2.31285
3662.60778 2.31807
3660.55935 2.32780
3658.51091 2.33229
3656.46247 2.33899
3654.41403 2.34370
3652.36559 2.33508
3650.31715 2.32778
3648.26872 2.34656
3646.22028 2.35907
3644.17184 2.34861
3642.12340 2.33635
3640.07496 2.33197
3638.02652 2.32846
3635.97809 2.32255
3633.92965 2.32203
3631.88121 2.32959
3629.83277 2.34666
3627.78433 2.37679
3625.73589 2.38935
3623.68746 2.38482
3621.63902 2.37811
3619.59058 2.38300
3617.54214 2.39559
3615.49370 2.39697
3613.44526 2.39432
3611.39682 2.39350
3609.34839 2.39625
3607.29995 2.41103
3605.25151 2.42841
3603.20307 2.43391
3601.15463 2.43378
3599.10619 2.43746
3597.05776 2.44298
3595.00932 2.45444
3592.96088 2.47244
3590.91244 2.48280
3588.86400 2.49866
3586.81556 2.52868
3584.76713 2.52833
3582.71869 2.51227
3580.67025 2.50849
3578.62181 2.51311
3576.57337 2.51663
3574.52493 2.51886
3572.47650 2.51795
3570.42806 2.51024
3568.37962 2.50591
3566.33118 2.51639
3564.28274 2.52444
3562.23430 2.52323
3560.18587 2.52005
3558.13743 2.51841
3556.08899 2.51900
3554.04055 2.52551
3551.99211 2.53876
3549.94367 2.54296
3547.89524 2.53638
3545.84680 2.53387
3543.79836 2.54125
3541.74992 2.55056
3539.70148 2.55076
3537.65304 2.53994
3535.60461 2.53229
3533.55617 2.53941
3531.50773 2.55086
3529.45929 2.56023
3527.41085 2.56918
3525.36241 2.56880
3523.31398 2.55803
3521.26554 2.55120
3519.21710 2.55200
3517.16866 2.55000
3515.12022 2.54925
3513.07178 2.55598
3511.02335 2.56217
3508.97491 2.56371
3506.92647 2.56266
3504.87803 2.56410
3502.82959 2.57191
3500.78115 2.58002
3498.73272 2.58076
3496.68428 2.57471
3494.63584 2.56830
3492.58740 2.57097
3490.53896 2.57925
3488.49052 2.57595
3486.44209 2.56690
3484.39365 2.56917
3482.34521 2.57474
3480.29677 2.57307
3478.24833 2.56918
3476.19989 2.56640
3474.15146 2.56523
3472.10302 2.57071
3470.05458 2.58310
3468.00614 2.59358
3465.95770 2.59557
3463.90926 2.59159
3461.86082 2.58799
3459.81239 2.58682
3457.76395 2.59082
3455.71551 2.60043
3453.66707 2.61104
3451.61863 2.62565
3449.57019 2.63625
3447.52176 2.62511
3445.47332 2.60881
3443.42488 2.60436
3441.37644 2.58456
3439.32800 2.51587
3437.27956 2.40706
3435.23113 2.31134
3433.18269 2.26479
3431.13425 2.25963
3429.08581 2.27872
3427.03737 2.31342
3424.98893 2.35129
3422.94050 2.38230
3420.89206 2.40930
3418.84362 2.42790
3416.79518 2.43117
3414.74674 2.43363
3412.69830 2.44570
3410.64987 2.46170
3408.60143 2.46994
3406.55299 2.46354
3404.50455 2.45779
3402.45611 2.46384
3400.40767 2.46874
3398.35924 2.46531
3396.31080 2.46031
3394.26236 2.46094
3392.21392 2.46540
3390.16548 2.46613
3388.11704 2.46905
3386.06861 2.47630
3384.02017 2.48336
3381.97173 2.49156
3379.92329 2.49117
3377.87485 2.48256
3375.82641 2.48242
3373.77798 2.49056
3371.72954 2.49901
3369.68110 2.50378
3367.63266 2.50152
3365.58422 2.50077
3363.53578 2.50151
3361.48735 2.49631
3359.43891 2.49472
3357.39047 2.49789
3355.34203 2.49864
3353.29359 2.49925
3351.24515 2.50044
3349.19672 2.49985
3347.14828 2.49961
3345.09984 2.49890
3343.05140 2.49355
3341.00296 2.48961
3338.95452 2.49079
3336.90609 2.49330
3334.85765 2.49860
3332.80921 2.50291
3330.76077 2.50061
3328.71233 2.49839
3326.66389 2.49682
3324.61545 2.49299
3322.56702 2.49392
3320.51858 2.49723
3318.47014 2.49581
3316.42170 2.49225
3314.37326 2.49163
3312.32482 2.49196
3310.27639 2.48524
3308.22795 2.47839
3306.17951 2.48270
3304.13107 2.49100
3302.08263 2.49765
3300.03419 2.50579
3297.98576 2.51243
3295.93732 2.51452
3293.88888 2.51208
3291.84044 2.50539
3289.79200 2.49713
3287.74356 2.48837
3285.69513 2.48436
3283.64669 2.49115
3281.59825 2.50007
3279.54981 2.50421
3277.50137 2.50887
3275.45293 2.50762
3273.40450 2.49365
3271.35606 2.48048
3269.30762 2.47728
3267.25918 2.47817
3265.21074 2.48006
3263.16230 2.48293
3261.11387 2.48290
3259.06543 2.47934
3257.01699 2.47733
3254.96855 2.48198
3252.92011 2.48577
3250.87167 2.48260
3248.82324 2.47948
3246.77480 2.47338
3244.72636 2.46456
3242.67792 2.46215
3240.62948 2.46049
3238.58104 2.45640
3236.53261 2.45643
3234.48417 2.45818
3232.43573 2.45982
3230.38729 2.45931
3228.33885 2.44924
3226.29041 2.43830
3224.24198 2.43465
3222.19354 2.43183
3220.14510 2.43203
3218.09666 2.43500
3216.04822 2.43215
3213.99978 2.42946
3211.95135 2.42969
3209.90291 2.42800
3207.85447 2.42973
3205.80603 2.43283
3203.75759 2.43155
3201.70915 2.43132
3199.66072 2.43237
3197.61228 2.43421
3195.56384 2.44309
3193.51540 2.45160
3191.46696 2.44839
3189.41852 2.44287
3187.37008 2.44537
3185.32165 2.44919
3183.27321 2.44831
3181.22477 2.44444
3179.17633 2.43896
3177.12789 2.43322
3175.07945 2.42848
3173.03102 2.42261
3170.98258 2.41207
3168.93414 2.40314
3166.88570 2.40216
3164.83726 2.40368
3162.78882 2.40209
3160.74039 2.39621
3158.69195 2.39119
3156.64351 2.39217
3154.59507 2.39303
3152.54663 2.39283
3150.49819 2.39949
3148.44976 2.40562
3146.40132 2.40083
3144.35288 2.39602
3142.30444 2.40014
3140.25600 2.40319
3138.20756 2.39828
3136.15913 2.39484
3134.11069 2.40065
3132.06225 2.40672
3130.01381 2.40235
3127.96537 2.39516
3125.91693 2.39343
3123.86850 2.39417
3121.82006 2.39384
3119.77162 2.39226
3117.72318 2.39195
3115.67474 2.39480
3113.62630 2.39859
3111.57787 2.39918
3109.52943 2.39645
3107.48099 2.39201
3105.43255 2.38684
3103.38411 2.38288
3101.33567 2.38078
3099.28724 2.38232
3097.23880 2.38562
3095.19036 2.38323
3093.14192 2.37673
3091.09348 2.37644
3089.04504 2.38175
3086.99661 2.38350
3084.94817 2.38323
3082.89973 2.38683
3080.85129 2.39120
3078.80285 2.39286
3076.75441 2.39410
3074.70598 2.39364
3072.65754 2.39127
3070.60910 2.39190
3068.56066 2.39415
3066.51222 2.39460
3064.46378 2.39533
3062.41535 2.39646
3060.36691 2.39559
3058.31847 2.39584
3056.27003 2.40279
3054.22159 2.41493
3052.17315 2.42321
3050.12471 2.42398
3048.07628 2.42425
3046.02784 2.42771
3043.97940 2.42957
3041.93096 2.42838
3039.88252 2.42809
3037.83408 2.43041
3035.78565 2.43583
3033.73721 2.44394
3031.68877 2.45008
3029.64033 2.45215
3027.59189 2.45338
3025.54345 2.45451
3023.49502 2.45596
3021.44658 2.45705
3019.39814 2.45843
3017.34970 2.46337
3015.30126 2.46468
3013.25282 2.46330
3011.20439 2.47045
3009.15595 2.48124
3007.10751 2.48739
3005.05907 2.48757
3003.01063 2.48383
3000.96219 2.48284
2998.91376 2.48972
2996.86532 2.50135
2994.81688 2.50892
2992.76844 2.51066
2990.72000 2.51244
2988.67156 2.51670
2986.62313 2.51683
2984.57469 2.50812
2982.52625 2.50388
2980.47781 2.51382
2978.42937 2.52546
2976.38093 2.52902
2974.33250 2.52637
2972.28406 2.52016
2970.23562 2.51561
2968.18718 2.51623
2966.13874 2.52006
2964.09030 2.52362
2962.04187 2.52455
2959.99343 2.52221
2957.94499 2.52232
2955.89655 2.52713
2953.84811 2.53002
2951.79967 2.53019
2949.75124 2.52863
2947.70280 2.52386
2945.65436 2.51924
2943.60592 2.51916
2941.55748 2.52214
2939.50904 2.52336
2937.46061 2.52222
2935.41217 2.51739
2933.36373 2.51192
2931.31529 2.51565
2929.26685 2.52297
2927.21841 2.52609
2925.16998 2.53012
2923.12154 2.53269
2921.07310 2.52676
2919.02466 2.51768
2916.97622 2.51819
2914.92778 2.52562
2912.87934 2.52729
2910.83091 2.52461
2908.78247 2.52442
2906.73403 2.52444
2904.68559 2.52096
2902.63715 2.51806
2900.58871 2.51938
2898.54028 2.52310
2896.49184 2.52535
2894.44340 2.52350
2892.39496 2.51972
2890.34652 2.52016
2888.29808 2.52430
2886.24965 2.52536
2884.20121 2.52740
2882.15277 2.53287
2880.10433 2.53203
2878.05589 2.52609
2876.00745 2.52306
2873.95902 2.51994
2871.91058 2.51716
2869.86214 2.51619
2867.81370 2.51378
2865.76526 2.51311
2863.71682 2.51359
2861.66839 2.50819
2859.61995 2.49870
2857.57151 2.49675
2855.52307 2.50373
2853.47463 2.51109
2851.42619 2.51521
2849.37776 2.51564
2847.32932 2.51498
2845.28088 2.51594
2843.23244 2.51539
2841.18400 2.50969
2839.13556 2.50377
2837.08713 2.50086
2835.03869 2.49583
2832.99025 2.48713
2830.94181 2.48022
2828.89337 2.47933
2826.84493 2.48137
2824.79650 2.47767
2822.74806 2.46583
2820.69962 2.45404
2818.65118 2.44484
2816.60274 2.43187
2814.55430 2.41357
2812.50587 2.39769
2810.45743 2.38800
2808.40899 2.37933
2806.36055 2.36714
2804.31211 2.35491
2802.26367 2.34979
2800.21524 2.34839
2798.16680 2.34296
2796.11836 2.33510
2794.06992 2.32962
2792.02148 2.32530
2789.97304 2.32006
2787.92461 2.31320
2785.87617 2.30308
2783.82773 2.29391
2781.77929 2.28852
2779.73085 2.28379
2777.68241 2.27897
2775.63397 2.27363
2773.58554 2.26519
2771.53710 2.25744
2769.48866 2.25546
2767.44022 2.25651
2765.39178 2.25733
2763.34334 2.25743
2761.29491 2.25716
2759.24647 2.25609
2757.19803 2.25442
2755.14959 2.25313
2753.10115 2.25060
2751.05271 2.24692
2749.00428 2.24519
2746.95584 2.24597
2744.90740 2.24684
2742.85896 2.24594
2740.81052 2.24415
2738.76208 2.24224
2736.71365 2.24103
2734.66521 2.24252
2732.61677 2.24331
2730.56833 2.24081
2728.51989 2.23983
2726.47145 2.24062
2724.42302 2.24101
2722.37458 2.24098
2720.32614 2.23878
2718.27770 2.23641
2716.22926 2.23714
2714.18082 2.23783
2712.13239 2.23579
2710.08395 2.23459
2708.03551 2.23699
2705.98707 2.24157
2703.93863 2.24633
2701.89019 2.24931
2699.84176 2.25081
2697.79332 2.25294
2695.74488 2.25531
2693.69644 2.25764
2691.64800 2.26047
2689.59956 2.26399
2687.55113 2.26898
2685.50269 2.27600
2683.45425 2.28506
2681.40581 2.29439
2679.35737 2.30328
2677.30893 2.31548
2675.26050 2.33071
2673.21206 2.34392
2671.16362 2.35554
2669.11518 2.36579
2667.06674 2.37314
2665.01830 2.38018
2662.96987 2.38850
2660.92143 2.39886
2658.87299 2.40862
2656.82455 2.41223
2654.77611 2.41475
2652.72767 2.42439
2650.67924 2.43483
2648.63080 2.43681
2646.58236 2.43625
2644.53392 2.44109
2642.48548 2.44906
2640.43704 2.45523
2638.38860 2.45746
2636.34017 2.45798
2634.29173 2.46050
2632.24329 2.46557
2630.19485 2.47155
2628.14641 2.47739
2626.09797 2.48409
2624.04954 2.49062
2622.00110 2.49405
2619.95266 2.49556
2617.90422 2.49663
2615.85578 2.49916
2613.80734 2.50200
2611.75891 2.49946
2609.71047 2.49872
2607.66203 2.50525
2605.61359 2.50867
2603.56515 2.50931
2601.51671 2.51447
2599.46828 2.51885
2597.41984 2.52098
2595.37140 2.52542
2593.32296 2.52541
2591.27452 2.51769
2589.22608 2.51275
2587.17765 2.51287
2585.12921 2.51446
2583.08077 2.51956
2581.03233 2.52403
2578.98389 2.52178
2576.93545 2.51663
2574.88702 2.51482
2572.83858 2.51594
2570.79014 2.51594
2568.74170 2.51581
2566.69326 2.52044
2564.64482 2.52772
2562.59639 2.53106
2560.54795 2.53051
2558.49951 2.52858
2556.45107 2.52806
2554.40263 2.52734
2552.35419 2.52385
2550.30576 2.52256
2548.25732 2.52221
2546.20888 2.52092
2544.16044 2.52359
2542.11200 2.52691
2540.06356 2.52540
2538.01513 2.52352
2535.96669 2.52391
2533.91825 2.52418
2531.86981 2.52505
2529.82137 2.52787
2527.77293 2.53446
2525.72450 2.53906
2523.67606 2.53293
2521.62762 2.52415
2519.57918 2.51983
2517.53074 2.51773
2515.48230 2.51992
2513.43387 2.52649
2511.38543 2.53287
2509.33699 2.53504
2507.28855 2.53417
2505.24011 2.53385
2503.19167 2.53206
2501.14324 2.52982
2499.09480 2.53000
2497.04636 2.53098
2494.99792 2.53230
2492.94948 2.53152
2490.90104 2.52614
2488.85260 2.52040
2486.80417 2.51979
2484.75573 2.52339
2482.70729 2.52505
2480.65885 2.52067
2478.61041 2.51428
2476.56197 2.51294
2474.51354 2.51524
2472.46510 2.51523
2470.41666 2.51278
2468.36822 2.50892
2466.31978 2.50104
2464.27134 2.48978
2462.22291 2.48192
2460.17447 2.48051
2458.12603 2.47933
2456.07759 2.47111
2454.02915 2.46000
2451.98071 2.45452
2449.93228 2.44918
2447.88384 2.43860
2445.83540 2.42827
2443.78696 2.41711
2441.73852 2.40367
2439.69008 2.39459
2437.64165 2.39186
2435.59321 2.38912
2433.54477 2.38358
2431.49633 2.37669
2429.44789 2.36717
2427.39945 2.35747
2425.35102 2.35053
2423.30258 2.34573
2421.25414 2.34064
2419.20570 2.33129
2417.15726 2.32228
2415.10882 2.31912
2413.06039 2.31686
2411.01195 2.31057
2408.96351 2.30085
2406.91507 2.29143
2404.86663 2.28458
2402.81819 2.28033
2400.76976 2.27882
2398.72132 2.27755
2396.67288 2.27558
2394.62444 2.27408
2392.57600 2.27246
2390.52756 2.26989
2388.47913 2.26537
2386.43069 2.26027
2384.38225 2.25792
2382.33381 2.25873
2380.28537 2.25932
2378.23693 2.25971
2376.18850 2.26303
2374.14006 2.26653
2372.09162 2.26880
2370.04318 2.26485
2367.99474 2.24515
2365.94630 2.23463
2363.89787 2.25288
2361.84943 2.26869
2359.80099 2.27108
2357.75255 2.27416
2355.70411 2.27520
2353.65567 2.27785
2351.60723 2.28069
2349.55880 2.27761
2347.51036 2.27074
2345.46192 2.26834
2343.41348 2.27548
2341.36504 2.28282
2339.31660 2.28462
2337.26817 2.27704
2335.21973 2.26599
2333.17129 2.27002
2331.12285 2.28415
2329.07441 2.28963
2327.02597 2.29008
2324.97754 2.28741
2322.92910 2.27837
2320.88066 2.27489
2318.83222 2.27997
2316.78378 2.28557
2314.73534 2.29254
2312.68691 2.29914
2310.63847 2.29750
2308.59003 2.29027
2306.54159 2.28679
2304.49315 2.29034
2302.44471 2.29492
2300.39628 2.29826
2298.34784 2.30625
2296.29940 2.31727
2294.25096 2.32664
2292.20252 2.33136
2290.15408 2.33104
2288.10565 2.33092
2286.05721 2.33204
2284.00877 2.33242
2281.96033 2.33220
2279.91189 2.33211
2277.86345 2.33351
2275.81502 2.33547
2273.76658 2.33562
2271.71814 2.33683
2269.66970 2.34171
2267.62126 2.34691
2265.57282 2.34852
2263.52439 2.34792
2261.47595 2.34854
2259.42751 2.34886
2257.37907 2.34628
2255.33063 2.34052
2253.28219 2.33434
2251.23376 2.33175
2249.18532 2.33257
2247.13688 2.33290
2245.08844 2.33048
2243.04000 2.32895
2240.99156 2.33158
2238.94313 2.33436
2236.89469 2.33409
2234.84625 2.33526
2232.79781 2.33801
2230.74937 2.33776
2228.70093 2.33648
2226.65250 2.33693
2224.60406 2.33730
2222.55562 2.33533
2220.50718 2.33272
2218.45874 2.33436
2216.41030 2.34111
2214.36186 2.34823
2212.31343 2.35234
2210.26499 2.35222
2208.21655 2.35040
2206.16811 2.35086
2204.11967 2.35318
2202.07123 2.35653
2200.02280 2.35828
2197.97436 2.35685
2195.92592 2.35388
2193.87748 2.34814
2191.82904 2.34087
2189.78060 2.33629
2187.73217 2.33704
2185.68373 2.34181
2183.63529 2.34233
2181.58685 2.33813
2179.53841 2.33578
2177.48997 2.33304
2175.44154 2.33007
2173.39310 2.33022
2171.34466 2.33031
2169.29622 2.32734
2167.24778 2.32417
2165.19934 2.32414
2163.15091 2.32415
2161.10247 2.32025
2159.05403 2.31443
2157.00559 2.31056
2154.95715 2.30837
2152.90871 2.30485
2150.86028 2.30093
2148.81184 2.29937
2146.76340 2.29682
2144.71496 2.28949
2142.66652 2.27815
2140.61808 2.26554
2138.56965 2.25630
2136.52121 2.24945
2134.47277 2.24062
2132.42433 2.23033
2130.37589 2.22203
2128.32745 2.21766
2126.27902 2.21440
2124.23058 2.20979
2122.18214 2.20616
2120.13370 2.20521
2118.08526 2.20514
2116.03682 2.20478
2113.98839 2.20461
2111.93995 2.20486
2109.89151 2.20498
2107.84307 2.20515
2105.79463 2.20618
2103.74619 2.20690
2101.69776 2.20626
2099.64932 2.20494
2097.60088 2.20337
2095.55244 2.20280
2093.50400 2.20315
2091.45556 2.20275
2089.40713 2.20436
2087.35869 2.20983
2085.31025 2.21562
2083.26181 2.22009
2081.21337 2.22428
2079.16493 2.22656
2077.11649 2.22625
2075.06806 2.22846
2073.01962 2.23447
2070.97118 2.24175
2068.92274 2.25159
2066.87430 2.26107
2064.82586 2.26600
2062.77743 2.27119
2060.72899 2.28046
2058.68055 2.29247
2056.63211 2.30572
2054.58367 2.31602
2052.53523 2.32069
2050.48680 2.32478
2048.43836 2.33327
2046.38992 2.34205
2044.34148 2.34619
2042.29304 2.34781
2040.24460 2.34800
2038.19617 2.34591
2036.14773 2.34251
2034.09929 2.34132
2032.05085 2.34339
2030.00241 2.34309
2027.95397 2.33895
2025.90554 2.33720
2023.85710 2.33980
2021.80866 2.34256
2019.76022 2.34418
2017.71178 2.34692
2015.66334 2.34969
2013.61491 2.35127
2011.56647 2.35548
2009.51803 2.36387
2007.46959 2.37121
2005.42115 2.37370
2003.37271 2.37530
2001.32428 2.38031
1999.27584 2.38765
1997.22740 2.39497
1995.17896 2.40210
1993.13052 2.41073
1991.08208 2.42141
1989.03365 2.43132
1986.98521 2.43583
1984.93677 2.43540
1982.88833 2.43663
1980.83989 2.44083
1978.79145 2.44595
1976.74302 2.45254
1974.69458 2.46189
1972.64614 2.47382
1970.59770 2.48429
1968.54926 2.48959
1966.50082 2.49263
1964.45239 2.49855
1962.40395 2.50620
1960.35551 2.51439
1958.30707 2.52345
1956.25863 2.53063
1954.21019 2.53662
1952.16176 2.54559
1950.11332 2.55377
1948.06488 2.55538
1946.01644 2.55461
1943.96800 2.55616
1941.91956 2.55947
1939.87112 2.56319
1937.82269 2.56707
1935.77425 2.57194
1933.72581 2.57679
1931.67737 2.58006
1929.62893 2.57820
1927.58049 2.56953
1925.53206 2.56391
1923.48362 2.56894
1921.43518 2.57740
1919.38674 2.58220
1917.33830 2.58864
1915.28986 2.59812
1913.24143 2.60320
1911.19299 2.60383
1909.14455 2.60476
1907.09611 2.60461
1905.04767 2.60329
1902.99923 2.60157
1900.95080 2.59681
1898.90236 2.59555
1896.85392 2.60375
1894.80548 2.61584
1892.75704 2.62595
1890.70860 2.62731
1888.66017 2.61620
1886.61173 2.60912
1884.56329 2.61452
1882.51485 2.61895
1880.46641 2.61477
1878.41797 2.61019
1876.36954 2.60988
1874.32110 2.61192
1872.27266 2.61533
1870.22422 2.62171
1868.17578 2.63361
1866.12734 2.63740
1864.07891 2.62687
1862.03047 2.61872
1859.98203 2.62190
1857.93359 2.62832
1855.88515 2.62766
1853.83671 2.62165
1851.78828 2.62041
1849.73984 2.62454
1847.69140 2.62515
1845.64296 2.62339
1843.59452 2.62913
1841.54608 2.63706
1839.49765 2.63698
1837.44921 2.62994
1835.40077 2.62515
1833.35233 2.62558
1831.30389 2.62909
1829.25545 2.63403
1827.20702 2.63767
1825.15858 2.64237
1823.11014 2.64322
1821.06170 2.63914
1819.01326 2.63439
1816.96482 2.63442
1814.91639 2.64014
1812.86795 2.64156
1810.81951 2.63858
1808.77107 2.63564
1806.72263 2.63364
1804.67419 2.63895
1802.62575 2.64986
1800.57732 2.65582
1798.52888 2.65702
1796.48044 2.66110
1794.43200 2.66251
1792.38356 2.65452
1790.33512 2.65084
1788.28669 2.65504
1786.23825 2.65662
1784.18981 2.65468
1782.14137 2.65399
1780.09293 2.65490
1778.04449 2.65420
1775.99606 2.64910
1773.94762 2.64248
1771.89918 2.64720
1769.85074 2.66295
1767.80230 2.67328
1765.75386 2.67474
1763.70543 2.67232
1761.65699 2.67173
1759.60855 2.67372
1757.56011 2.67138
1755.51167 2.66560
1753.46323 2.66687
1751.41480 2.67537
1749.36636 2.68094
1747.31792 2.68374
1745.26948 2.69087
1743.22104 2.69337
1741.17260 2.69200
1739.12417 2.70080
1737.07573 2.71464
1735.02729 2.72505
1732.97885 2.72433
1730.93041 2.71370
1728.88197 2.70560
1726.83354 2.70217
1724.78510 2.70259
1722.73666 2.70611
1720.68822 2.70835
1718.63978 2.70191
1716.59134 2.69870
1714.54291 2.71642
1712.49447 2.72990
1710.44603 2.73396
1708.39759 2.73802
1706.34915 2.75489
1704.30071 2.77578
1702.25228 2.77276
1700.20384 2.76045
1698.15540 2.77066
1696.10696 2.78166
1694.05852 2.77299
1692.01008 2.76971
1689.96165 2.78426
1687.91321 2.79577
1685.86477 2.78480
1683.81633 2.78344
1681.76789 2.80850
1679.71945 2.82357
1677.67102 2.83737
1675.62258 2.84953
1673.57414 2.85352
1671.52570 2.86536
1669.47726 2.87230
1667.42882 2.85261
1665.38038 2.83598
1663.33195 2.83959
1661.28351 2.85852
1659.23507 2.86611
1657.18663 2.86224
1655.13819 2.86833
1653.08975 2.89251
1651.04132 2.89511
1648.99288 2.89506
1646.94444 2.90286
1644.89600 2.91348
1642.84756 2.91952
1640.79912 2.92215
1638.75069 2.92415
1636.70225 2.94194
1634.65381 2.96635
1632.60537 2.95909
1630.55693 2.94987
1628.50849 2.95072
1626.46006 2.95200
1624.41162 2.95642
1622.36318 2.95861
1620.31474 2.93946
1618.26630 2.91614
1616.21786 2.90853
1614.16943 2.92133
1612.12099 2.92831
1610.07255 2.92044
1608.02411 2.90653
1605.97567 2.89524
1603.92723 2.88151
1601.87880 2.85746
1599.83036 2.82337
1597.78192 2.77928
1595.73348 2.72210
1593.68504 2.65924
1591.63660 2.59767
1589.58817 2.53271
1587.53973 2.46229
1585.49129 2.37851
1583.44285 2.27824
1581.39441 2.17297
1579.34597 2.07953
1577.29754 1.97435
1575.24910 1.85300
1573.20066 1.78694
1571.15222 1.75087
1569.10378 1.71599
1567.05534 1.69216
1565.00691 1.67999
1562.95847 1.67182
1560.91003 1.66663
1558.86159 1.66306
1556.81315 1.65793
1554.76471 1.65079
1552.71628 1.64231
1550.66784 1.63245
1548.61940 1.62079
1546.57096 1.61077
1544.52252 1.60387
1542.47408 1.60130
1540.42565 1.59985
1538.37721 1.59591
1536.32877 1.59709
1534.28033 1.61149
1532.23189 1.63963
1530.18345 1.66627
1528.13501 1.69952
1526.08658 1.74744
1524.03814 1.79467
1521.98970 1.84488
1519.94126 1.89311
1517.89282 1.92294
1515.84438 1.94811
1513.79595 1.96673
1511.74751 1.98481
1509.69907 2.00778
1507.65063 2.03778
1505.60219 2.06588
1503.55375 2.07673
1501.50532 2.09006
1499.45688 2.10958
1497.40844 2.13622
1495.36000 2.16316
1493.31156 2.18071
1491.26312 2.19655
1489.21469 2.21492
1487.16625 2.21395
1485.11781 2.18286
1483.06937 2.11429
1481.02093 2.00374
1478.97249 1.88756
1476.92406 1.78176
1474.87562 1.67998
1472.82718 1.57072
1470.77874 1.49224
1468.73030 1.46170
1466.68186 1.45546
1464.63343 1.47349
1462.58499 1.50698
1460.53655 1.53993
1458.48811 1.58111
1456.43967 1.62915
1454.39123 1.64409
1452.34280 1.64716
1450.29436 1.65005
1448.24592 1.64757
1446.19748 1.62989
1444.14904 1.59530
1442.10060 1.54950
1440.05217 1.50720
1438.00373 1.47583
1435.95529 1.45246
1433.90685 1.44057
1431.85841 1.43752
1429.80997 1.43983
1427.76154 1.44432
1425.71310 1.45029
1423.66466 1.45844
1421.61622 1.46729
1419.56778 1.48146
1417.51934 1.50301
1415.47091 1.52302
1413.42247 1.54736
1411.37403 1.58393
1409.32559 1.63096
1407.27715 1.68154
1405.22871 1.73552
1403.18028 1.78344
1401.13184 1.81866
1399.08340 1.85249
1397.03496 1.88541
1394.98652 1.91336
1392.93808 1.93439
1390.88965 1.94844
1388.84121 1.96202
1386.79277 1.97596
1384.74433 1.98324
1382.69589 1.98792
1380.64745 1.99614
1378.59901 2.00755
1376.55058 2.01901
1374.50214 2.03028
1372.45370 2.04056
1370.40526 2.05032
1368.35682 2.06032
1366.30838 2.06851
1364.25995 2.07710
1362.21151 2.08695
1360.16307 2.09338
1358.11463 2.09676
1356.06619 2.10217
1354.01775 2.10866
1351.96932 2.11451
1349.92088 2.12222
1347.87244 2.13114
1345.82400 2.13869
1343.77556 2.14425
1341.72712 2.14960
1339.67869 2.15672
1337.63025 2.16090
1335.58181 2.16034
1333.53337 2.16145
1331.48493 2.16551
1329.43649 2.17203
1327.38806 2.17971
1325.33962 2.18639
1323.29118 2.19054
1321.24274 2.19327
1319.19430 2.19713
1317.14586 2.20153
1315.09743 2.20527
1313.04899 2.20670
1311.00055 2.20665
1308.95211 2.20688
1306.90367 2.20871
1304.85523 2.21308
1302.80680 2.21805
1300.75836 2.22107
1298.70992 2.22356
1296.66148 2.22635
1294.61304 2.22848
1292.56460 2.23099
1290.51617 2.23281
1288.46773 2.23482
1286.41929 2.23927
1284.37085 2.24412
1282.32241 2.24783
1280.27397 2.25092
1278.22554 2.25229
1276.17710 2.25274
1274.12866 2.25473
1272.08022 2.25742
1270.03178 2.25958
1267.98334 2.26129
1265.93491 2.26286
1263.88647 2.26511
1261.83803 2.26721
1259.78959 2.26840
1257.74115 2.27059
1255.69271 2.27257
1253.64428 2.27355
1251.59584 2.27437
1249.54740 2.27454
1247.49896 2.27543
1245.45052 2.27836
1243.40208 2.28110
1241.35364 2.28170
1239.30521 2.28309
1237.25677 2.28712
1235.20833 2.29002
1233.15989 2.28942
1231.11145 2.28944
1229.06301 2.29123
1227.01458 2.29188
1224.96614 2.29295
1222.91770 2.29589
1220.86926 2.29831
1218.82082 2.30008
1216.77238 2.30317
1214.72395 2.30584
1212.67551 2.30714
1210.62707 2.30932
1208.57863 2.31081
1206.53019 2.30913
1204.48175 2.30730
1202.43332 2.30735
1200.38488 2.30820
1198.33644 2.30923
1196.28800 2.31044
1194.23956 2.31352
1192.19112 2.31794
1190.14269 2.32087
1188.09425 2.32070
1186.04581 2.31848
1183.99737 2.31813
1181.94893 2.32235
1179.90049 2.32726
1177.85206 2.32604
1175.80362 2.32191
1173.75518 2.32277
1171.70674 2.32662
1169.65830 2.32815
1167.60986 2.32833
1165.56143 2.32910
1163.51299 2.32963
1161.46455 2.32929
1159.41611 2.33042
1157.36767 2.33362
1155.31923 2.33404
1153.27080 2.33203
1151.22236 2.33269
1149.17392 2.33626
1147.12548 2.34076
1145.07704 2.34481
1143.02860 2.34692
1140.98017 2.34464
1138.93173 2.34034
1136.88329 2.34219
1134.83485 2.34849
1132.78641 2.35054
1130.73797 2.34874
1128.68954 2.34727
1126.64110 2.34838
1124.59266 2.35257
1122.54422 2.35922
1120.49578 2.36733
1118.44734 2.37356
1116.39891 2.37667
1114.35047 2.37992
1112.30203 2.38610
1110.25359 2.39373
1108.20515 2.40009
1106.15671 2.40429
1104.10827 2.40856
1102.05984 2.41639
1100.01140 2.42477
1097.96296 2.42667
1095.91452 2.41867
1093.86608 2.39921
1091.81764 2.37546
1089.76921 2.36505
1087.72077 2.37032
1085.67233 2.37576
1083.62389 2.37643
1081.57545 2.37931
1079.52701 2.38607
1077.47858 2.39479
1075.43014 2.40400
1073.38170 2.40900
1071.33326 2.40784
1069.28482 2.40745
1067.23638 2.41364
1065.18795 2.42118
1063.13951 2.42097
1061.09107 2.41807
1059.04263 2.42234
1056.99419 2.42771
1054.94575 2.43028
1052.89732 2.43516
1050.84888 2.43920
1048.80044 2.44118
1046.75200 2.44770
1044.70356 2.45803
1042.65512 2.46397
1040.60669 2.46669
1038.55825 2.46949
1036.50981 2.46599
1034.46137 2.45715
1032.41293 2.45350
1030.36449 2.46034
1028.31606 2.47337
1026.26762 2.48191
1024.21918 2.48365
1022.17074 2.49044
1020.12230 2.50592
1018.07386 2.51643
1016.02543 2.51747
1013.97699 2.51981
1011.92855 2.52767
1009.88011 2.54001
1007.83167 2.55055
1005.78323 2.55263
1003.73480 2.55150
1001.68636 2.55509
999.63792 2.56357
997.58948 2.56928
995.54104 2.57299
993.49260 2.57874
991.44417 2.58000
989.39573 2.57153
987.34729 2.54981
985.29885 2.50577
983.25041 2.43769
981.20197 2.35832
979.15354 2.27667
977.10510 2.19771
975.05666 2.12911
973.00822 2.07525
970.95978 2.03426
968.91134 2.00006
966.86290 1.96788
964.81447 1.93700
962.76603 1.90726
960.71759 1.87802
958.66915 1.85040
956.62071 1.82751
954.57227 1.81379
952.52384 1.81237
950.47540 1.82377
948.42696 1.84789
946.37852 1.88271
944.33008 1.92288
942.28164 1.96330
940.23321 1.99907
938.18477 2.02695
936.13633 2.05053
934.08789 2.07283
932.03945 2.09389
929.99101 2.11652
927.94258 2.13957
925.89414 2.15790
923.84570 2.17019
921.79726 2.17837
919.74882 2.18744
917.70038 2.20140
915.65195 2.21684
913.60351 2.22835
911.55507 2.23669
909.50663 2.24815
907.45819 2.26199
905.40975 2.27157
903.36132 2.28238
901.31288 2.29819
899.26444 2.30948
897.21600 2.31480
895.16756 2.32208
893.11912 2.33236
891.07069 2.34035
889.02225 2.34446
886.97381 2.35236
884.92537 2.36781
882.87693 2.38288
880.82849 2.39436
878.78006 2.40532
876.73162 2.41558
874.68318 2.42624
872.63474 2.43829
870.58630 2.44554
868.53786 2.44530
866.48943 2.43424
864.44099 2.40173
862.39255 2.34540
860.34411 2.27141
858.29567 2.19627
856.24723 2.13918
854.19880 2.10684
852.15036 2.09635
850.10192 2.10193
848.05348 2.11187
846.00504 2.10841
843.95660 2.08166
841.90817 2.04461
839.85973 2.02099
837.81129 2.02197
835.76285 2.04245
833.71441 2.06922
831.66597 2.09752
829.61753 2.12942
827.56910 2.15669
825.52066 2.17499
823.47222 2.18535
821.42378 2.17191
819.37534 2.12979
817.32690 2.08021
815.27847 2.04501
813.23003 2.03829
811.18159 2.05715
809.13315 2.08547
807.08471 2.11324
805.03627 2.14013
802.98784 2.16255
800.93940 2.17627
798.89096 2.18627
796.84252 2.19490
794.79408 2.19950
792.74564 2.20157
790.69721 2.21140
788.64877 2.23007
786.60033 2.24486
784.55189 2.25852
782.50345 2.27694
780.45501 2.29071
778.40658 2.29842
776.35814 2.30559
774.30970 2.29807
772.26126 2.26089
770.21282 2.21232
768.16438 2.17801
766.11595 2.16535
764.06751 2.17352
762.01907 2.19296
759.97063 2.20952
757.92219 2.22121
755.87375 2.22908
753.82532 2.23791
751.77688 2.25238
749.72844 2.26276
747.68000 2.26045
745.63156 2.24940
743.58312 2.23941
741.53469 2.23239
739.48625 2.22416
737.43781 2.21888
735.38937 2.21917
733.34093 2.22241
731.29249 2.23730
729.24406 2.25943
727.19562 2.26355
725.14718 2.26276
723.09874 2.27880
721.05030 2.28686
719.00186 2.27069
716.95343 2.26120
714.90499 2.26805
712.85655 2.26170
710.80811 2.24397
708.75967 2.24286
706.71123 2.24985
704.66280 2.25196
702.61436 2.26332
700.56592 2.28080
698.51748 2.29157
696.46904 2.30478
694.42060 2.31449
692.37216 2.30764
690.32373 2.30499
688.27529 2.32115
686.22685 2.33676
684.17841 2.32816
682.12997 2.29297
680.08153 2.25468
678.03310 2.23910
675.98466 2.25099
673.93622 2.28948
671.88778 2.33883
669.83934 2.36520
667.79090 2.36501
665.74247 2.36644
663.69403 2.36344
661.64559 2.35364
659.59715 2.33529
657.54871 2.31138
655.50027 2.30434
653.45184 2.31480
651.40340 2.32034
649.35496 2.32024
647.30652 2.31642
645.25808 2.29853
643.20964 2.28287
641.16121 2.28302
639.11277 2.27789
637.06433 2.27173
635.01589 2.29649
632.96745 2.33446
630.91901 2.33020
628.87058 2.31146
626.82214 2.32345
624.77370 2.32337
622.72526 2.34251
620.67682 2.44634
618.62838 2.51302
616.57995 2.42474
614.53151 2.33150
612.48307 2.34236
610.43463 2.45488
608.38619 2.56023
606.33775 2.54086
604.28932 2.46351
602.24088 2.41882
600.19244 2.45373
598.14400 2.62123
