3996.50324 0.02127
3994.45480 0.02119
3992.40636 0.02117
3990.35792 0.02112
3988.30948 0.02100
3986.26104 0.02087
3984.21261 0.02075
3982.16417 0.02056
3980.11573 0.02030
3978.06729 0.02004
3976.01885 0.01977
3973.97041 0.01953
3971.92198 0.01937
3969.87354 0.01928
3967.82510 0.01936
3965.77666 0.01958
3963.72822 0.01979
3961.67978 0.01999
3959.63135 0.02014
3957.58291 0.02018
3955.53447 0.02022
3953.48603 0.02035
3951.43759 0.02046
3949.38915 0.02047
3947.34072 0.02045
3945.29228 0.02050
3943.24384 0.02060
3941.19540 0.02063
3939.14696 0.02060
3937.09852 0.02057
3935.05009 0.02052
3933.00165 0.02044
3930.95321 0.02032
3928.90477 0.02016
3926.85633 0.01997
3924.80789 0.01973
3922.75946 0.01946
3920.71102 0.01923
3918.66258 0.01908
3916.61414 0.01914
3914.56570 0.01942
3912.51726 0.01969
3910.46883 0.01984
3908.42039 0.01987
3906.37195 0.01979
3904.32351 0.01963
3902.27507 0.01943
3900.22663 0.01919
3898.17820 0.01888
3896.12976 0.01850
3894.08132 0.01807
3892.03288 0.01764
3889.98444 0.01730
3887.93600 0.01702
3885.88756 0.01678
3883.83913 0.01668
3881.79069 0.01662
3879.74225 0.01650
3877.69381 0.01641
3875.64537 0.01638
3873.59693 0.01641
3871.54850 0.01660
3869.50006 0.01719
3867.45162 0.01784
3865.40318 0.01828
3863.35474 0.01874
3861.30630 0.01914
3859.25787 0.01935
3857.20943 0.01936
3855.16099 0.01917
3853.11255 0.01899
3851.06411 0.01915
3849.01567 0.01932
3846.96724 0.01936
3844.91880 0.01928
3842.87036 0.01920
3840.82192 0.01918
3838.77348 0.01906
3836.72504 0.01896
3834.67661 0.01907
3832.62817 0.01919
3830.57973 0.01918
3828.53129 0.01915
3826.48285 0.01917
3824.43441 0.01911
3822.38598 0.01901
3820.33754 0.01917
3818.28910 0.01952
3816.24066 0.01995
3814.19222 0.02034
3812.14378 0.02051
3810.09535 0.02056
3808.04691 0.02048
3805.99847 0.02042
3803.95003 0.02039
3801.90159 0.02030
3799.85315 0.02029
3797.80472 0.02035
3795.75628 0.02052
3793.70784 0.02075
3791.65940 0.02090
3789.61096 0.02095
3787.56252 0.02093
3785.51409 0.02091
3783.46565 0.02090
3781.41721 0.02087
3779.36877 0.02087
3777.32033 0.02099
3775.27189 0.02109
3773.22346 0.02112
3771.17502 0.02104
3769.12658 0.02092
3767.07814 0.02090
3765.02970 0.02099
3762.98126 0.02105
3760.93283 0.02087
3758.88439 0.02059
3756.83595 0.02046
3754.78751 0.02039
3752.73907 0.02020
3750.69063 0.01993
3748.64219 0.01987
3746.59376 0.01999
3744.54532 0.02011
3742.49688 0.01994
3740.44844 0.01961
3738.40000 0.01926
3736.35156 0.01894
3734.30313 0.01888
3732.25469 0.01919
3730.20625 0.01948
3728.15781 0.01954
3726.10937 0.01949
3724.06093 0.01951
3722.01250 0.01958
3719.96406 0.01960
3717.91562 0.01963
3715.86718 0.01957
3713.81874 0.01931
3711.77030 0.01901
3709.72187 0.01905
3707.67343 0.01930
3705.62499 0.01949
3703.57655 0.01965
3701.52811 0.01992
3699.47967 0.02024
3697.43124 0.02041
3695.38280 0.02043
3693.33436 0.02032
3691.28592 0.02009
3689.23748 0.01993
3687.18904 0.01992
3685.14061 0.01981
3683.09217 0.01957
3681.04373 0.01922
3678.99529 0.01878
3676.94685 0.01825
3674.89841 0.01769
3672.84998 0.01748
3670.80154 0.01743
3668.75310 0.01756
3666.70466 0.01776
3664.65622 0.01777
3662.60778 0.01757
3660.55935 0.01731
3658.51091 0.01709
3656.46247 0.01706
3654.41403 0.01727
3652.36559 0.01746
3650.31715 0.01756
3648.26872 0.01774
3646.22028 0.01794
3644.17184 0.01802
3642.12340 0.01808
3640.07496 0.01812
3638.02652 0.01805
3635.97809 0.01791
3633.92965 0.01779
3631.88121 0.01771
3629.83277 0.01756
3627.78433 0.01730
3625.73589 0.01721
3623.68746 0.01716
3621.63902 0.01700
3619.59058 0.01679
3617.54214 0.01669
3615.49370 0.01666
3613.44526 0.01664
3611.39682 0.01657
3609.34839 0.01640
3607.29995 0.01621
3605.25151 0.01606
3603.20307 0.01591
3601.15463 0.01577
3599.10619 0.01568
3597.05776 0.01551
3595.00932 0.01520
3592.96088 0.01485
3590.91244 0.01451
3588.86400 0.01406
3586.81556 0.01366
3584.76713 0.01353
3582.71869 0.01338
3580.67025 0.01314
3578.62181 0.01286
3576.57337 0.01248
3574.52493 0.01206
3572.47650 0.01175
3570.42806 0.01161
3568.37962 0.01162
3566.33118 0.01180
3564.28274 0.01204
3562.23430 0.01221
3560.18587 0.01235
3558.13743 0.01245
3556.08899 0.01246
3554.04055 0.01232
3551.99211 0.01212
3549.94367 0.01197
3547.89524 0.01183
3545.84680 0.01166
3543.79836 0.01156
3541.74992 0.01151
3539.70148 0.01146
3537.65304 0.01134
3535.60461 0.01123
3533.55617 0.01116
3531.50773 0.01105
3529.45929 0.01090
3527.41085 0.01075
3525.36241 0.01058
3523.31398 0.01043
3521.26554 0.01032
3519.21710 0.01028
3517.16866 0.01025
3515.12022 0.01014
3513.07178 0.00994
3511.02335 0.00975
3508.97491 0.00961
3506.92647 0.00951
3504.87803 0.00948
3502.82959 0.00947
3500.78115 0.00942
3498.73272 0.00939
3496.68428 0.00934
3494.63584 0.00927
3492.58740 0.00924
3490.53896 0.00926
3488.49052 0.00929
3486.44209 0.00926
3484.39365 0.00921
3482.34521 0.00923
3480.29677 0.00927
3478.24833 0.00927
3476.19989 0.00927
3474.15146 0.00928
3472.10302 0.00928
3470.05458 0.00931
3468.00614 0.00931
3465.95770 0.00919
3463.90926 0.00908
3461.86082 0.00910
3459.81239 0.00922
3457.76395 0.00932
3455.71551 0.00938
3453.66707 0.00944
3451.61863 0.00947
3449.57019 0.00948
3447.52176 0.00955
3445.47332 0.00966
3443.42488 0.00978
3441.37644 0.00983
3439.32800 0.00964
3437.27956 0.00923
3435.23113 0.00887
3433.18269 0.00869
3431.13425 0.00866
3429.08581 0.00871
3427.03737 0.00876
3424.98893 0.00885
3422.94050 0.00901
3420.89206 0.00918
3418.84362 0.00936
3416.79518 0.00957
3414.74674 0.00976
3412.69830 0.00990
3410.64987 0.01000
3408.60143 0.01009
3406.55299 0.01016
3404.50455 0.01020
3402.45611 0.01025
3400.40767 0.01028
3398.35924 0.01027
3396.31080 0.01029
3394.26236 0.01032
3392.21392 0.01028
3390.16548 0.01026
3388.11704 0.01030
3386.06861 0.01033
3384.02017 0.01037
3381.97173 0.01037
3379.92329 0.01027
3377.87485 0.01015
3375.82641 0.01004
3373.77798 0.00989
3371.72954 0.00981
3369.68110 0.00983
3367.63266 0.00983
3365.58422 0.00979
3363.53578 0.00976
3361.48735 0.00978
3359.43891 0.00987
3357.39047 0.01001
3355.34203 0.01008
3353.29359 0.01006
3351.24515 0.01005
3349.19672 0.01010
3347.14828 0.01019
3345.09984 0.01031
3343.05140 0.01046
3341.00296 0.01064
3338.95452 0.01076
3336.90609 0.01082
3334.85765 0.01084
3332.80921 0.01086
3330.76077 0.01092
3328.71233 0.01103
3326.66389 0.01108
3324.61545 0.01106
3322.56702 0.01107
3320.51858 0.01120
3318.47014 0.01132
3316.42170 0.01136
3314.37326 0.01139
3312.32482 0.01149
3310.27639 0.01162
3308.22795 0.01175
3306.17951 0.01184
3304.13107 0.01189
3302.08263 0.01189
3300.03419 0.01190
3297.98576 0.01197
3295.93732 0.01200
3293.88888 0.01192
3291.84044 0.01182
3289.79200 0.01179
3287.74356 0.01178
3285.69513 0.01174
3283.64669 0.01171
3281.59825 0.01175
3279.54981 0.01190
3277.50137 0.01218
3275.45293 0.01255
3273.40450 0.01289
3271.35606 0.01313
3269.30762 0.01330
3267.25918 0.01342
3265.21074 0.01353
3263.16230 0.01369
3261.11387 0.01390
3259.06543 0.01411
3257.01699 0.01429
3254.96855 0.01444
3252.92011 0.01455
3250.87167 0.01456
3248.82324 0.01447
3246.77480 0.01443
3244.72636 0.01454
3242.67792 0.01479
3240.62948 0.01506
3238.58104 0.01528
3236.53261 0.01544
3234.48417 0.01560
3232.43573 0.01578
3230.38729 0.01593
3228.33885 0.01603
3226.29041 0.01612
3224.24198 0.01623
3222.19354 0.01634
3220.14510 0.01643
3218.09666 0.01653
3216.04822 0.01665
3213.99978 0.01672
3211.95135 0.01675
3209.90291 0.01678
3207.85447 0.01682
3205.80603 0.01687
3203.75759 0.01693
3201.70915 0.01694
3199.66072 0.01684
3197.61228 0.01669
3195.56384 0.01663
3193.51540 0.01662
3191.46696 0.01663
3189.41852 0.01667
3187.37008 0.01672
3185.32165 0.01680
3183.27321 0.01687
3181.22477 0.01694
3179.17633 0.01703
3177.12789 0.01716
3175.07945 0.01733
3173.03102 0.01758
3170.98258 0.01787
3168.93414 0.01810
3166.88570 0.01825
3164.83726 0.01835
3162.78882 0.01842
3160.74039 0.01844
3158.69195 0.01844
3156.64351 0.01843
3154.59507 0.01839
3152.54663 0.01827
3150.49819 0.01812
3148.44976 0.01803
3146.40132 0.01802
3144.35288 0.01802
3142.30444 0.01799
3140.25600 0.01803
3138.20756 0.01813
3136.15913 0.01819
3134.11069 0.01824
3132.06225 0.01830
3130.01381 0.01836
3127.96537 0.01836
3125.91693 0.01831
3123.86850 0.01825
3121.82006 0.01820
3119.77162 0.01818
3117.72318 0.01817
3115.67474 0.01813
3113.62630 0.01811
3111.57787 0.01813
3109.52943 0.01819
3107.48099 0.01826
3105.43255 0.01828
3103.38411 0.01827
3101.33567 0.01828
3099.28724 0.01832
3097.23880 0.01835
3095.19036 0.01837
3093.14192 0.01839
3091.09348 0.01838
3089.04504 0.01832
3086.99661 0.01830
3084.94817 0.01831
3082.89973 0.01828
3080.85129 0.01822
3078.80285 0.01814
3076.75441 0.01805
3074.70598 0.01798
3072.65754 0.01794
3070.60910 0.01793
3068.56066 0.01786
3066.51222 0.01771
3064.46378 0.01755
3062.41535 0.01744
3060.36691 0.01737
3058.31847 0.01729
3056.27003 0.01719
3054.22159 0.01709
3052.17315 0.01697
3050.12471 0.01681
3048.07628 0.01667
3046.02784 0.01655
3043.97940 0.01637
3041.93096 0.01614
3039.88252 0.01588
3037.83408 0.01560
3035.78565 0.01532
3033.73721 0.01504
3031.68877 0.01478
3029.64033 0.01455
3027.59189 0.01431
3025.54345 0.01407
3023.49502 0.01390
3021.44658 0.01378
3019.39814 0.01358
3017.34970 0.01333
3015.30126 0.01307
3013.25282 0.01287
3011.20439 0.01270
3009.15595 0.01245
3007.10751 0.01211
3005.05907 0.01181
3003.01063 0.01161
3000.96219 0.01147
2998.91376 0.01126
2996.86532 0.01099
2994.81688 0.01075
2992.76844 0.01060
2990.72000 0.01050
2988.67156 0.01042
2986.62313 0.01034
2984.57469 0.01020
2982.52625 0.01003
2980.47781 0.00991
2978.42937 0.00979
2976.38093 0.00970
2974.33250 0.00967
2972.28406 0.00970
2970.23562 0.00973
2968.18718 0.00969
2966.13874 0.00965
2964.09030 0.00962
2962.04187 0.00956
2959.99343 0.00951
2957.94499 0.00951
2955.89655 0.00956
2953.84811 0.00959
2951.79967 0.00953
2949.75124 0.00941
2947.70280 0.00933
2945.65436 0.00929
2943.60592 0.00924
2941.55748 0.00919
2939.50904 0.00921
2937.46061 0.00927
2935.41217 0.00925
2933.36373 0.00919
2931.31529 0.00918
2929.26685 0.00923
2927.21841 0.00927
2925.16998 0.00926
2923.12154 0.00924
2921.07310 0.00922
2919.02466 0.00918
2916.97622 0.00913
2914.92778 0.00911
2912.87934 0.00905
2910.83091 0.00894
2908.78247 0.00889
2906.73403 0.00891
2904.68559 0.00894
2902.63715 0.00894
2900.58871 0.00896
2898.54028 0.00899
2896.49184 0.00897
2894.44340 0.00889
2892.39496 0.00883
2890.34652 0.00885
2888.29808 0.00890
2886.24965 0.00892
2884.20121 0.00891
2882.15277 0.00890
2880.10433 0.00892
2878.05589 0.00901
2876.00745 0.00914
2873.95902 0.00926
2871.91058 0.00934
2869.86214 0.00943
2867.81370 0.00955
2865.76526 0.00971
2863.71682 0.00994
2861.66839 0.01017
2859.61995 0.01028
2857.57151 0.01027
2855.52307 0.01026
2853.47463 0.01028
2851.42619 0.01035
2849.37776 0.01043
2847.32932 0.01047
2845.28088 0.01051
2843.23244 0.01052
2841.18400 0.01049
2839.13556 0.01045
2837.08713 0.01045
2835.03869 0.01048
2832.99025 0.01051
2830.94181 0.01056
2828.89337 0.01071
2826.84493 0.01097
2824.79650 0.01129
2822.74806 0.01167
2820.69962 0.01208
2818.65118 0.01251
2816.60274 0.01301
2814.55430 0.01357
2812.50587 0.01410
2810.45743 0.01455
2808.40899 0.01494
2806.36055 0.01527
2804.31211 0.01559
2802.26367 0.01590
2800.21524 0.01615
2798.16680 0.01633
2796.11836 0.01648
2794.06992 0.01663
2792.02148 0.01679
2789.97304 0.01698
2787.92461 0.01718
2785.87617 0.01739
2783.82773 0.01758
2781.77929 0.01772
2779.73085 0.01784
2777.68241 0.01794
2775.63397 0.01803
2773.58554 0.01808
2771.53710 0.01814
2769.48866 0.01818
2767.44022 0.01819
2765.39178 0.01816
2763.34334 0.01811
2761.29491 0.01810
2759.24647 0.01812
2757.19803 0.01812
2755.14959 0.01810
2753.10115 0.01810
2751.05271 0.01813
2749.00428 0.01820
2746.95584 0.01825
2744.90740 0.01825
2742.85896 0.01823
2740.81052 0.01823
2738.76208 0.01824
2736.71365 0.01821
2734.66521 0.01817
2732.61677 0.01815
2730.56833 0.01814
2728.51989 0.01813
2726.47145 0.01811
2724.42302 0.01811
2722.37458 0.01811
2720.32614 0.01810
2718.27770 0.01804
2716.22926 0.01798
2714.18082 0.01794
2712.13239 0.01794
2710.08395 0.01796
2708.03551 0.01797
2705.98707 0.01794
2703.93863 0.01788
2701.89019 0.01778
2699.84176 0.01767
2697.79332 0.01757
2695.74488 0.01745
2693.69644 0.01728
2691.64800 0.01712
2689.59956 0.01699
2687.55113 0.01687
2685.50269 0.01673
2683.45425 0.01653
2681.40581 0.01627
2679.35737 0.01599
2677.30893 0.01567
2675.26050 0.01529
2673.21206 0.01486
2671.16362 0.01444
2669.11518 0.01407
2667.06674 0.01379
2665.01830 0.01356
2662.96987 0.01328
2660.92143 0.01298
2658.87299 0.01275
2656.82455 0.01259
2654.77611 0.01247
2652.72767 0.01232
2650.67924 0.01216
2648.63080 0.01198
2646.58236 0.01180
2644.53392 0.01165
2642.48548 0.01150
2640.43704 0.01135
2638.38860 0.01123
2636.34017 0.01112
2634.29173 0.01100
2632.24329 0.01086
2630.19485 0.01072
2628.14641 0.01058
2626.09797 0.01046
2624.04954 0.01034
2622.00110 0.01018
2619.95266 0.00999
2617.90422 0.00982
2615.85578 0.00967
2613.80734 0.00956
2611.75891 0.00949
2609.71047 0.00938
2607.66203 0.00924
2605.61359 0.00912
2603.56515 0.00901
2601.51671 0.00892
2599.46828 0.00887
2597.41984 0.00886
2595.37140 0.00887
2593.32296 0.00890
2591.27452 0.00892
2589.22608 0.00893
2587.17765 0.00894
2585.12921 0.00900
2583.08077 0.00904
2581.03233 0.00906
2578.98389 0.00912
2576.93545 0.00919
2574.88702 0.00921
2572.83858 0.00916
2570.79014 0.00909
2568.74170 0.00901
2566.69326 0.00892
2564.64482 0.00884
2562.59639 0.00877
2560.54795 0.00869
2558.49951 0.00860
2556.45107 0.00859
2554.40263 0.00863
2552.35419 0.00865
2550.30576 0.00863
2548.25732 0.00859
2546.20888 0.00852
2544.16044 0.00845
2542.11200 0.00844
2540.06356 0.00844
2538.01513 0.00844
2535.96669 0.00842
2533.91825 0.00836
2531.86981 0.00829
2529.82137 0.00826
2527.77293 0.00826
2525.72450 0.00828
2523.67606 0.00832
2521.62762 0.00835
2519.57918 0.00831
2517.53074 0.00828
2515.48230 0.00830
2513.43387 0.00832
2511.38543 0.00830
2509.33699 0.00829
2507.28855 0.00829
2505.24011 0.00832
2503.19167 0.00836
2501.14324 0.00839
2499.09480 0.00842
2497.04636 0.00841
2494.99792 0.00841
2492.94948 0.00845
2490.90104 0.00849
2488.85260 0.00850
2486.80417 0.00851
2484.75573 0.00855
2482.70729 0.00864
2480.65885 0.00878
2478.61041 0.00894
2476.56197 0.00905
2474.51354 0.00913
2472.46510 0.00923
2470.41666 0.00937
2468.36822 0.00956
2466.31978 0.00979
2464.27134 0.01005
2462.22291 0.01035
2460.17447 0.01070
2458.12603 0.01106
2456.07759 0.01142
2454.02915 0.01178
2451.98071 0.01211
2449.93228 0.01241
2447.88384 0.01272
2445.83540 0.01300
2443.78696 0.01322
2441.73852 0.01344
2439.69008 0.01364
2437.64165 0.01375
2435.59321 0.01382
2433.54477 0.01396
2431.49633 0.01411
2429.44789 0.01420
2427.39945 0.01426
2425.35102 0.01434
2423.30258 0.01445
2421.25414 0.01458
2419.20570 0.01467
2417.15726 0.01474
2415.10882 0.01483
2413.06039 0.01496
2411.01195 0.01506
2408.96351 0.01516
2406.91507 0.01527
2404.86663 0.01535
2402.81819 0.01541
2400.76976 0.01547
2398.72132 0.01552
2396.67288 0.01555
2394.62444 0.01559
2392.57600 0.01563
2390.52756 0.01565
2388.47913 0.01567
2386.43069 0.01567
2384.38225 0.01561
2382.33381 0.01553
2380.28537 0.01548
2378.23693 0.01548
2376.18850 0.01551
2374.14006 0.01551
2372.09162 0.01540
2370.04318 0.01519
2367.99474 0.01498
2365.94630 0.01492
2363.89787 0.01501
2361.84943 0.01508
2359.80099 0.01507
2357.75255 0.01515
2355.70411 0.01533
2353.65567 0.01545
2351.60723 0.01546
2349.55880 0.01540
2347.51036 0.01530
2345.46192 0.01518
2343.41348 0.01510
2341.36504 0.01512
2339.31660 0.01514
2337.26817 0.01503
2335.21973 0.01488
2333.17129 0.01489
2331.12285 0.01500
2329.07441 0.01499
2327.02597 0.01488
2324.97754 0.01485
2322.92910 0.01490
2320.88066 0.01492
2318.83222 0.01488
2316.78378 0.01481
2314.73534 0.01473
2312.68691 0.01469
2310.63847 0.01469
2308.59003 0.01471
2306.54159 0.01470
2304.49315 0.01466
2302.44471 0.01460
2300.39628 0.01451
2298.34784 0.01440
2296.29940 0.01431
2294.25096 0.01421
2292.20252 0.01410
2290.15408 0.01399
2288.10565 0.01395
2286.05721 0.01394
2284.00877 0.01393
2281.96033 0.01391
2279.91189 0.01387
2277.86345 0.01382
2275.81502 0.01377
2273.76658 0.01369
2271.71814 0.01358
2269.66970 0.01343
2267.62126 0.01329
2265.57282 0.01320
2263.52439 0.01314
2261.47595 0.01312
2259.42751 0.01314
2257.37907 0.01318
2255.33063 0.01325
2253.28219 0.01332
2251.23376 0.01338
2249.18532 0.01347
2247.13688 0.01358
2245.08844 0.01363
2243.04000 0.01360
2240.99156 0.01355
2238.94313 0.01349
2236.89469 0.01345
2234.84625 0.01342
2232.79781 0.01337
2230.74937 0.01335
2228.70093 0.01336
2226.65250 0.01341
2224.60406 0.01344
2222.55562 0.01340
2220.50718 0.01333
2218.45874 0.01327
2216.41030 0.01321
2214.36186 0.01310
2212.31343 0.01296
2210.26499 0.01281
2208.21655 0.01271
2206.16811 0.01268
2204.11967 0.01267
2202.07123 0.01269
2200.02280 0.01274
2197.97436 0.01281
2195.92592 0.01289
2193.87748 0.01297
2191.82904 0.01303
2189.78060 0.01304
2187.73217 0.01305
2185.68373 0.01305
2183.63529 0.01305
2181.58685 0.01304
2179.53841 0.01303
2177.48997 0.01303
2175.44154 0.01306
2173.39310 0.01309
2171.34466 0.01314
2169.29622 0.01320
2167.24778 0.01325
2165.19934 0.01331
2163.15091 0.01339
2161.10247 0.01344
2159.05403 0.01346
2157.00559 0.01345
2154.95715 0.01347
2152.90871 0.01355
2150.86028 0.01365
2148.81184 0.01376
2146.76340 0.01385
2144.71496 0.01393
2142.66652 0.01403
2140.61808 0.01415
2138.56965 0.01428
2136.52121 0.01439
2134.47277 0.01447
2132.42433 0.01450
2130.37589 0.01450
2128.32745 0.01451
2126.27902 0.01453
2124.23058 0.01456
2122.18214 0.01459
2120.13370 0.01460
2118.08526 0.01460
2116.03682 0.01461
2113.98839 0.01462
2111.93995 0.01462
2109.89151 0.01459
2107.84307 0.01455
2105.79463 0.01451
2103.74619 0.01448
2101.69776 0.01446
2099.64932 0.01449
2097.60088 0.01450
2095.55244 0.01447
2093.50400 0.01442
2091.45556 0.01438
2089.40713 0.01436
2087.35869 0.01433
2085.31025 0.01431
2083.26181 0.01430
2081.21337 0.01427
2079.16493 0.01421
2077.11649 0.01413
2075.06806 0.01406
2073.01962 0.01401
2070.97118 0.01396
2068.92274 0.01385
2066.87430 0.01368
2064.82586 0.01354
2062.77743 0.01344
2060.72899 0.01338
2058.68055 0.01332
2056.63211 0.01322
2054.58367 0.01308
2052.53523 0.01293
2050.48680 0.01280
2048.43836 0.01271
2046.38992 0.01267
2044.34148 0.01265
2042.29304 0.01262
2040.24460 0.01261
2038.19617 0.01263
2036.14773 0.01267
2034.09929 0.01268
2032.05085 0.01265
2030.00241 0.01263
2027.95397 0.01265
2025.90554 0.01266
2023.85710 0.01264
2021.80866 0.01261
2019.76022 0.01254
2017.71178 0.01246
2015.66334 0.01237
2013.61491 0.01232
2011.56647 0.01230
2009.51803 0.01227
2007.46959 0.01218
2005.42115 0.01205
2003.37271 0.01195
2001.32428 0.01186
1999.27584 0.01175
1997.22740 0.01165
1995.17896 0.01155
1993.13052 0.01140
1991.08208 0.01128
1989.03365 0.01120
1986.98521 0.01111
1984.93677 0.01101
1982.88833 0.01089
1980.83989 0.01078
1978.79145 0.01068
1976.74302 0.01057
1974.69458 0.01044
1972.64614 0.01032
1970.59770 0.01020
1968.54926 0.01005
1966.50082 0.00988
1964.45239 0.00970
1962.40395 0.00953
1960.35551 0.00937
1958.30707 0.00920
1956.25863 0.00901
1954.21019 0.00882
1952.16176 0.00866
1950.11332 0.00852
1948.06488 0.00836
1946.01644 0.00820
1943.96800 0.00807
1941.91956 0.00795
1939.87112 0.00786
1937.82269 0.00781
1935.77425 0.00778
1933.72581 0.00775
1931.67737 0.00771
1929.62893 0.00766
1927.58049 0.00760
1925.53206 0.00751
1923.48362 0.00740
1921.43518 0.00732
1919.38674 0.00725
1917.33830 0.00712
1915.28986 0.00696
1913.24143 0.00687
1911.19299 0.00681
1909.14455 0.00675
1907.09611 0.00669
1905.04767 0.00662
1902.99923 0.00655
1900.95080 0.00652
1898.90236 0.00651
1896.85392 0.00649
1894.80548 0.00647
1892.75704 0.00643
1890.70860 0.00639
1888.66017 0.00637
1886.61173 0.00637
1884.56329 0.00636
1882.51485 0.00630
1880.46641 0.00626
1878.41797 0.00626
1876.36954 0.00623
1874.32110 0.00618
1872.27266 0.00614
1870.22422 0.00613
1868.17578 0.00613
1866.12734 0.00617
1864.07891 0.00619
1862.03047 0.00618
1859.98203 0.00615
1857.93359 0.00615
1855.88515 0.00622
1853.83671 0.00629
1851.78828 0.00630
1849.73984 0.00624
1847.69140 0.00621
1845.64296 0.00623
1843.59452 0.00619
1841.54608 0.00612
1839.49765 0.00608
1837.44921 0.00608
1835.40077 0.00609
1833.35233 0.00610
1831.30389 0.00609
1829.25545 0.00605
1827.20702 0.00602
1825.15858 0.00602
1823.11014 0.00603
1821.06170 0.00604
1819.01326 0.00603
1816.96482 0.00602
1814.91639 0.00603
1812.86795 0.00605
1810.81951 0.00604
1808.77107 0.00603
1806.72263 0.00602
1804.67419 0.00602
1802.62575 0.00599
1800.57732 0.00598
1798.52888 0.00598
1796.48044 0.00599
1794.43200 0.00598
1792.38356 0.00594
1790.33512 0.00587
1788.28669 0.00585
1786.23825 0.00587
1784.18981 0.00588
1782.14137 0.00586
1780.09293 0.00585
1778.04449 0.00584
1775.99606 0.00582
1773.94762 0.00578
1771.89918 0.00574
1769.85074 0.00574
1767.80230 0.00579
1765.75386 0.00583
1763.70543 0.00581
1761.65699 0.00574
1759.60855 0.00567
1757.56011 0.00566
1755.51167 0.00569
1753.46323 0.00572
1751.41480 0.00572
1749.36636 0.00568
1747.31792 0.00561
1745.26948 0.00554
1743.22104 0.00548
1741.17260 0.00547
1739.12417 0.00548
1737.07573 0.00545
1735.02729 0.00541
1732.97885 0.00537
1730.93041 0.00538
1728.88197 0.00539
1726.83354 0.00537
1724.78510 0.00531
1722.73666 0.00524
1720.68822 0.00521
1718.63978 0.00517
1716.59134 0.00509
1714.54291 0.00501
1712.49447 0.00497
1710.44603 0.00493
1708.39759 0.00486
1706.34915 0.00480
1704.30071 0.00477
1702.25228 0.00472
1700.20384 0.00463
1698.15540 0.00454
1696.10696 0.00454
1694.05852 0.00456
1692.01008 0.00454
1689.96165 0.00446
1687.91321 0.00439
1685.86477 0.00430
1683.81633 0.00413
1681.76789 0.00409
1679.71945 0.00413
1677.67102 0.00414
1675.62258 0.00405
1673.57414 0.00394
1671.52570 0.00387
1669.47726 0.00380
1667.42882 0.00378
1665.38038 0.00377
1663.33195 0.00373
1661.28351 0.00369
1659.23507 0.00367
1657.18663 0.00362
1655.13819 0.00349
1653.08975 0.00330
1651.04132 0.00328
1648.99288 0.00331
1646.94444 0.00330
1644.89600 0.00326
1642.84756 0.00322
1640.79912 0.00317
1638.75069 0.00309
1636.70225 0.00296
1634.65381 0.00289
1632.60537 0.00291
1630.55693 0.00288
1628.50849 0.00280
1626.46006 0.00275
1624.41162 0.00271
1622.36318 0.00263
1620.31474 0.00258
1618.26630 0.00256
1616.21786 0.00251
1614.16943 0.00245
1612.12099 0.00240
1610.07255 0.00235
1608.02411 0.00234
1605.97567 0.00236
1603.92723 0.00235
1601.87880 0.00230
1599.83036 0.00233
1597.78192 0.00244
1595.73348 0.00254
1593.68504 0.00264
1591.63660 0.00288
1589.58817 0.00331
1587.53973 0.00400
1585.49129 0.00511
1583.44285 0.00693
1581.39441 0.00963
1579.34597 0.01296
1577.29754 0.01791
1575.24910 0.02499
1573.20066 0.02933
1571.15222 0.03171
1569.10378 0.03414
1567.05534 0.03588
1565.00691 0.03665
1562.95847 0.03693
1560.91003 0.03661
1558.86159 0.03468
1556.81315 0.03234
1554.76471 0.03012
1552.71628 0.02688
1550.66784 0.02272
1548.61940 0.01852
1546.57096 0.01553
1544.52252 0.01314
1542.47408 0.01088
1540.42565 0.00875
1538.37721 0.00735
1536.32877 0.00679
1534.28033 0.00617
1532.23189 0.00543
1530.18345 0.00497
1528.13501 0.00454
1526.08658 0.00402
1524.03814 0.00355
1521.98970 0.00307
1519.94126 0.00268
1517.89282 0.00242
1515.84438 0.00212
1513.79595 0.00186
1511.74751 0.00168
1509.69907 0.00147
1507.65063 0.00118
1505.60219 0.00098
1503.55375 0.00102
1501.50532 0.00104
1499.45688 0.00107
1497.40844 0.00122
1495.36000 0.00157
1493.31156 0.00198
1491.26312 0.00271
1489.21469 0.00457
1487.16625 0.00778
1485.11781 0.01204
1483.06937 0.01803
1481.02093 0.02620
1478.97249 0.03420
1476.92406 0.04072
1474.87562 0.04704
1472.82718 0.05595
1470.77874 0.06490
1468.73030 0.06944
1466.68186 0.07099
1464.63343 0.06937
1462.58499 0.06575
1460.53655 0.06220
1458.48811 0.05835
1456.43967 0.05522
1454.39123 0.05495
1452.34280 0.05520
1450.29436 0.05536
1448.24592 0.05586
1446.19748 0.05757
1444.14904 0.06099
1442.10060 0.06629
1440.05217 0.07226
1438.00373 0.07794
1435.95529 0.08362
1433.90685 0.08733
1431.85841 0.08930
1429.80997 0.09085
1427.76154 0.09208
1425.71310 0.09259
1423.66466 0.09256
1421.61622 0.09207
1419.56778 0.09023
1417.51934 0.08672
1415.47091 0.08280
1413.42247 0.07774
1411.37403 0.07098
1409.32559 0.06366
1407.27715 0.05694
1405.22871 0.05064
1403.18028 0.04559
1401.13184 0.04215
1399.08340 0.03911
1397.03496 0.03642
1394.98652 0.03426
1392.93808 0.03260
1390.88965 0.03137
1388.84121 0.03024
1386.79277 0.02934
1384.74433 0.02890
1382.69589 0.02848
1380.64745 0.02784
1378.59901 0.02707
1376.55058 0.02624
1374.50214 0.02535
1372.45370 0.02462
1370.40526 0.02406
1368.35682 0.02344
1366.30838 0.02284
1364.25995 0.02227
1362.21151 0.02168
1360.16307 0.02118
1358.11463 0.02079
1356.06619 0.02041
1354.01775 0.02005
1351.96932 0.01971
1349.92088 0.01935
1347.87244 0.01900
1345.82400 0.01869
1343.77556 0.01840
1341.72712 0.01809
1339.67869 0.01774
1337.63025 0.01745
1335.58181 0.01724
1333.53337 0.01705
1331.48493 0.01686
1329.43649 0.01666
1327.38806 0.01646
1325.33962 0.01628
1323.29118 0.01608
1321.24274 0.01589
1319.19430 0.01571
1317.14586 0.01554
1315.09743 0.01535
1313.04899 0.01517
1311.00055 0.01503
1308.95211 0.01492
1306.90367 0.01482
1304.85523 0.01472
1302.80680 0.01457
1300.75836 0.01442
1298.70992 0.01431
1296.66148 0.01422
1294.61304 0.01411
1292.56460 0.01395
1290.51617 0.01378
1288.46773 0.01366
1286.41929 0.01357
1284.37085 0.01346
1282.32241 0.01338
1280.27397 0.01333
1278.22554 0.01323
1276.17710 0.01308
1274.12866 0.01298
1272.08022 0.01289
1270.03178 0.01279
1267.98334 0.01269
1265.93491 0.01260
1263.88647 0.01251
1261.83803 0.01243
1259.78959 0.01238
1257.74115 0.01237
1255.69271 0.01232
1253.64428 0.01224
1251.59584 0.01215
1249.54740 0.01205
1247.49896 0.01193
1245.45052 0.01182
1243.40208 0.01175
1241.35364 0.01171
1239.30521 0.01165
1237.25677 0.01158
1235.20833 0.01152
1233.15989 0.01148
1231.11145 0.01144
1229.06301 0.01141
1227.01458 0.01137
1224.96614 0.01132
1222.91770 0.01128
1220.86926 0.01125
1218.82082 0.01120
1216.77238 0.01114
1214.72395 0.01107
1212.67551 0.01102
1210.62707 0.01097
1208.57863 0.01095
1206.53019 0.01091
1204.48175 0.01084
1202.43332 0.01077
1200.38488 0.01072
1198.33644 0.01067
1196.28800 0.01061
1194.23956 0.01055
1192.19112 0.01048
1190.14269 0.01043
1188.09425 0.01040
1186.04581 0.01038
1183.99737 0.01033
1181.94893 0.01029
1179.90049 0.01026
1177.85206 0.01023
1175.80362 0.01020
1173.75518 0.01017
1171.70674 0.01015
1169.65830 0.01012
1167.60986 0.01011
1165.56143 0.01008
1163.51299 0.01000
1161.46455 0.00990
1159.41611 0.00985
1157.36767 0.00983
1155.31923 0.00980
1153.27080 0.00978
1151.22236 0.00974
1149.17392 0.00967
1147.12548 0.00959
1145.07704 0.00953
1143.02860 0.00951
1140.98017 0.00948
1138.93173 0.00941
1136.88329 0.00933
1134.83485 0.00926
1132.78641 0.00922
1130.73797 0.00920
1128.68954 0.00916
1126.64110 0.00907
1124.59266 0.00898
1122.54422 0.00893
1120.49578 0.00887
1118.44734 0.00879
1116.39891 0.00869
1114.35047 0.00859
1112.30203 0.00847
1110.25359 0.00838
1108.20515 0.00828
1106.15671 0.00819
1104.10827 0.00809
1102.05984 0.00802
1100.01140 0.00796
1097.96296 0.00791
1095.91452 0.00796
1093.86608 0.00812
1091.81764 0.00827
1089.76921 0.00835
1087.72077 0.00833
1085.67233 0.00827
1083.62389 0.00818
1081.57545 0.00806
1079.52701 0.00796
1077.47858 0.00791
1075.43014 0.00786
1073.38170 0.00780
1071.33326 0.00773
1069.28482 0.00764
1067.23638 0.00754
1065.18795 0.00746
1063.13951 0.00742
1061.09107 0.00736
1059.04263 0.00725
1056.99419 0.00715
1054.94575 0.00712
1052.89732 0.00707
1050.84888 0.00697
1048.80044 0.00690
1046.75200 0.00686
1044.70356 0.00682
1042.65512 0.00676
1040.60669 0.00669
1038.55825 0.00658
1036.50981 0.00647
1034.46137 0.00638
1032.41293 0.00632
1030.36449 0.00626
1028.31606 0.00620
1026.26762 0.00608
1024.21918 0.00595
1022.17074 0.00585
1020.12230 0.00577
1018.07386 0.00566
1016.02543 0.00554
1013.97699 0.00545
1011.92855 0.00537
1009.88011 0.00527
1007.83167 0.00513
1005.78323 0.00496
1003.73480 0.00483
1001.68636 0.00475
999.63792 0.00465
997.58948 0.00456
995.54104 0.00450
993.49260 0.00452
991.44417 0.00457
989.39573 0.00465
987.34729 0.00484
985.29885 0.00526
983.25041 0.00600
981.20197 0.00712
979.15354 0.00866
977.10510 0.01055
975.05666 0.01254
973.00822 0.01438
970.95978 0.01597
968.91134 0.01739
966.86290 0.01883
964.81447 0.02038
962.76603 0.02205
960.71759 0.02379
958.66915 0.02551
956.62071 0.02702
954.57227 0.02810
952.52384 0.02846
950.47540 0.02791
948.42696 0.02643
946.37852 0.02429
944.33008 0.02203
942.28164 0.02003
940.23321 0.01843
938.18477 0.01718
936.13633 0.01613
934.08789 0.01516
932.03945 0.01427
929.99101 0.01350
927.94258 0.01290
925.89414 0.01238
923.84570 0.01180
921.79726 0.01122
919.74882 0.01069
917.70038 0.01028
915.65195 0.00996
913.60351 0.00965
911.55507 0.00931
909.50663 0.00900
907.45819 0.00872
905.40975 0.00845
903.36132 0.00818
901.31288 0.00794
899.26444 0.00769
897.21600 0.00740
895.16756 0.00711
893.11912 0.00687
891.07069 0.00661
889.02225 0.00633
886.97381 0.00608
884.92537 0.00585
882.87693 0.00561
880.82849 0.00535
878.78006 0.00512
876.73162 0.00491
874.68318 0.00467
872.63474 0.00450
870.58630 0.00462
868.53786 0.00504
866.48943 0.00580
864.44099 0.00715
862.39255 0.00944
860.34411 0.01259
858.29567 0.01610
856.24723 0.01949
854.19880 0.02248
852.15036 0.02488
850.10192 0.02665
848.05348 0.02798
846.00504 0.02932
843.95660 0.03113
841.90817 0.03311
839.85973 0.03415
837.81129 0.03369
835.76285 0.03207
833.71441 0.02997
831.66597 0.02786
829.61753 0.02577
827.56910 0.02349
825.52066 0.02127
823.47222 0.01975
821.42378 0.01931
819.37534 0.01985
817.32690 0.02098
815.27847 0.02183
813.23003 0.02165
811.18159 0.02054
809.13315 0.01921
807.08471 0.01809
805.03627 0.01714
802.98784 0.01626
800.93940 0.01553
798.89096 0.01504
796.84252 0.01466
794.79408 0.01427
792.74564 0.01386
790.69721 0.01346
788.64877 0.01311
786.60033 0.01282
784.55189 0.01255
782.50345 0.01225
780.45501 0.01191
778.40658 0.01158
776.35814 0.01133
774.30970 0.01137
772.26126 0.01186
770.21282 0.01257
768.16438 0.01299
766.11595 0.01301
764.06751 0.01286
762.01907 0.01259
759.97063 0.01217
757.92219 0.01167
755.87375 0.01126
753.82532 0.01113
751.77688 0.01120
749.72844 0.01115
747.68000 0.01092
745.63156 0.01071
743.58312 0.01068
741.53469 0.01086
739.48625 0.01113
737.43781 0.01123
735.38937 0.01108
733.34093 0.01082
731.29249 0.01057
729.24406 0.01034
727.19562 0.01024
725.14718 0.01021
723.09874 0.01011
721.05030 0.00995
719.00186 0.00984
716.95343 0.00977
714.90499 0.00970
712.85655 0.00969
710.80811 0.00964
708.75967 0.00943
706.71123 0.00926
704.66280 0.00925
702.61436 0.00919
700.56592 0.00901
698.51748 0.00890
696.46904 0.00899
694.42060 0.00910
692.37216 0.00924
690.32373 0.00943
688.27529 0.00935
686.22685 0.00914
684.17841 0.00909
682.12997 0.00894
680.08153 0.00875
678.03310 0.00887
675.98466 0.00925
673.93622 0.00942
671.88778 0.00911
669.83934 0.00870
667.79090 0.00846
665.74247 0.00809
663.69403 0.00778
661.64559 0.00768
659.59715 0.00768
657.54871 0.00779
655.50027 0.00811
653.45184 0.00837
651.40340 0.00818
649.35496 0.00746
647.30652 0.00690
645.25808 0.00721
643.20964 0.00785
641.16121 0.00789
639.11277 0.00741
637.06433 0.00710
635.01589 0.00728
632.96745 0.00783
630.91901 0.00835
628.87058 0.00839
626.82214 0.00792
624.77370 0.00729
622.72526 0.00676
620.67682 0.00615
618.62838 0.00583
616.57995 0.00629
614.53151 0.00678
612.48307 0.00680
610.43463 0.00717
608.38619 0.00791
606.33775 0.00789
604.28932 0.00704
602.24088 0.00623
600.19244 0.00562
598.14400 0.00455
