3996.50324 1.66049
3994.45480 1.66040
3992.40636 1.66035
3990.35792 1.65996
3988.30948 1.65979
3986.26104 1.65976
3984.21261 1.65991
3982.16417 1.66007
3980.11573 1.66011
3978.06729 1.66044
3976.01885 1.66045
3973.97041 1.66043
3971.92198 1.66112
3969.87354 1.66142
3967.82510 1.66021
3965.77666 1.65837
3963.72822 1.65691
3961.67978 1.65631
3959.63135 1.65711
3957.58291 1.65844
3955.53447 1.65941
3953.48603 1.66011
3951.43759 1.65961
3949.38915 1.65832
3947.34072 1.65872
3945.29228 1.65997
3943.24384 1.66053
3941.19540 1.66070
3939.14696 1.66071
3937.09852 1.66042
3935.05009 1.65889
3933.00165 1.65729
3930.95321 1.65792
3928.90477 1.65915
3926.85633 1.65966
3924.80789 1.66127
3922.75946 1.66340
3920.71102 1.66321
3918.66258 1.66254
3916.61414 1.66409
3914.56570 1.66529
3912.51726 1.66436
3910.46883 1.66310
3908.42039 1.66200
3906.37195 1.66039
3904.32351 1.66016
3902.27507 1.66258
3900.22663 1.66628
3898.17820 1.66947
3896.12976 1.67016
3894.08132 1.66914
3892.03288 1.66881
3889.98444 1.67014
3887.93600 1.67037
3885.88756 1.67024
3883.83913 1.67085
3881.79069 1.66999
3879.74225 1.67036
3877.69381 1.67206
3875.64537 1.67260
3873.59693 1.67313
3871.54850 1.67530
3869.50006 1.67853
3867.45162 1.67795
3865.40318 1.67480
3863.35474 1.67413
3861.30630 1.67552
3859.25787 1.67601
3857.20943 1.67470
3855.16099 1.67109
3853.11255 1.67179
3851.06411 1.67940
3849.01567 1.68199
3846.96724 1.67997
3844.91880 1.67716
3842.87036 1.67575
3840.82192 1.67445
3838.77348 1.67442
3836.72504 1.67787
3834.67661 1.68020
3832.62817 1.68015
3830.57973 1.68020
3828.53129 1.68142
3826.48285 1.68326
3824.43441 1.68324
3822.38598 1.68018
3820.33754 1.67817
3818.28910 1.67898
3816.24066 1.68195
3814.19222 1.68593
3812.14378 1.68631
3810.09535 1.68345
3808.04691 1.68086
3805.99847 1.68232
3803.95003 1.68458
3801.90159 1.68700
3799.85315 1.68845
3797.80472 1.68681
3795.75628 1.68700
3793.70784 1.68779
3791.65940 1.68654
3789.61096 1.68530
3787.56252 1.68535
3785.51409 1.68673
3783.46565 1.68859
3781.41721 1.68921
3779.36877 1.68930
3777.32033 1.68981
3775.27189 1.69013
3773.22346 1.68978
3771.17502 1.68853
3769.12658 1.68802
3767.07814 1.68958
3765.02970 1.69181
3762.98126 1.69147
3760.93283 1.68837
3758.88439 1.68718
3756.83595 1.68880
3754.78751 1.68880
3752.73907 1.68791
3750.69063 1.69015
3748.64219 1.68936
3746.59376 1.68269
3744.54532 1.67811
3742.49688 1.67900
3740.44844 1.67887
3738.40000 1.67717
3736.35156 1.67687
3734.30313 1.67949
3732.25469 1.68221
3730.20625 1.68263
3728.15781 1.68184
3726.10937 1.68177
3724.06093 1.68201
3722.01250 1.68208
3719.96406 1.68244
3717.91562 1.68231
3715.86718 1.68109
3713.81874 1.67928
3711.77030 1.68041
3709.72187 1.68412
3707.67343 1.68495
3705.62499 1.68443
3703.57655 1.68433
3701.52811 1.68648
3699.47967 1.68976
3697.43124 1.69114
3695.38280 1.69020
3693.33436 1.68764
3691.28592 1.68635
3689.23748 1.68909
3687.18904 1.69218
3685.14061 1.69296
3683.09217 1.69224
3681.04373 1.69052
3678.99529 1.68860
3676.94685 1.68806
3674.89841 1.69079
3672.84998 1.69079
3670.80154 1.68828
3668.75310 1.68877
3666.70466 1.68968
3664.65622 1.68831
3662.60778 1.68610
3660.55935 1.68516
3658.51091 1.68597
3656.46247 1.68837
3654.41403 1.68996
3652.36559 1.68768
3650.31715 1.68339
3648.26872 1.68412
3646.22028 1.68828
3644.17184 1.68872
3642.12340 1.68677
3640.07496 1.68603
3638.02652 1.68656
3635.97809 1.68635
3633.92965 1.68568
3631.88121 1.68431
3629.83277 1.68377
3627.78433 1.68876
3625.73589 1.69234
3623.68746 1.69157
3621.63902 1.68975
3619.59058 1.69002
3617.54214 1.69174
3615.49370 1.69057
3613.44526 1.68774
3611.39682 1.68665
3609.34839 1.68733
3607.29995 1.68787
3605.25151 1.68678
3603.20307 1.68509
3601.15463 1.68451
3599.10619 1.68463
3597.05776 1.68377
3595.00932 1.68269
3592.96088 1.68379
3590.91244 1.68549
3588.86400 1.68657
3586.81556 1.68898
3584.76713 1.68989
3582.71869 1.68877
3580.67025 1.68928
3578.62181 1.69108
3576.57337 1.69110
3574.52493 1.68966
3572.47650 1.68902
3570.42806 1.68930
3568.37962 1.69000
3566.33118 1.69221
3564.28274 1.69402
3562.23430 1.69405
3560.18587 1.69408
3558.13743 1.69431
3556.08899 1.69412
3554.04055 1.69406
3551.99211 1.69445
3549.94367 1.69429
3547.89524 1.69379
3545.84680 1.69488
3543.79836 1.69693
3541.74992 1.69788
3539.70148 1.69799
3537.65304 1.69786
3535.60461 1.69696
3533.55617 1.69500
3531.50773 1.69373
3529.45929 1.69470
3527.41085 1.69678
3525.36241 1.69789
3523.31398 1.69804
3521.26554 1.69891
3519.21710 1.70067
3517.16866 1.70164
3515.12022 1.70166
3513.07178 1.70238
3511.02335 1.70352
3508.97491 1.70385
3506.92647 1.70363
3504.87803 1.70320
3502.82959 1.70416
3500.78115 1.70599
3498.73272 1.70591
3496.68428 1.70504
3494.63584 1.70592
3492.58740 1.70739
3490.53896 1.70641
3488.49052 1.70332
3486.44209 1.70159
3484.39365 1.70341
3482.34521 1.70707
3480.29677 1.70930
3478.24833 1.70889
3476.19989 1.70691
3474.15146 1.70544
3472.10302 1.70631
3470.05458 1.70886
3468.00614 1.71058
3465.95770 1.71160
3463.90926 1.71278
3461.86082 1.71296
3459.81239 1.71235
3457.76395 1.71268
3455.71551 1.71397
3453.66707 1.71514
3451.61863 1.71626
3449.57019 1.71736
3447.52176 1.71809
3445.47332 1.71834
3443.42488 1.71793
3441.37644 1.71605
3439.32800 1.71344
3437.27956 1.71288
3435.23113 1.71384
3433.18269 1.71376
3431.13425 1.71319
3429.08581 1.71395
3427.03737 1.71509
3424.98893 1.71484
3422.94050 1.71309
3420.89206 1.71109
3418.84362 1.71069
3416.79518 1.71127
3414.74674 1.71174
3412.69830 1.71262
3410.64987 1.71320
3408.60143 1.71302
3406.55299 1.71276
3404.50455 1.71220
3402.45611 1.71169
3400.40767 1.71133
3398.35924 1.71059
3396.31080 1.71045
3394.26236 1.71093
3392.21392 1.71080
3390.16548 1.71094
3388.11704 1.71192
3386.06861 1.71290
3384.02017 1.71402
3381.97173 1.71512
3379.92329 1.71589
3377.87485 1.71698
3375.82641 1.71782
3373.77798 1.71746
3371.72954 1.71615
3369.68110 1.71460
3367.63266 1.71378
3365.58422 1.71377
3363.53578 1.71334
3361.48735 1.71218
3359.43891 1.71172
3357.39047 1.71300
3355.34203 1.71402
3353.29359 1.71296
3351.24515 1.71222
3349.19672 1.71294
3347.14828 1.71308
3345.09984 1.71279
3343.05140 1.71285
3341.00296 1.71262
3338.95452 1.71264
3336.90609 1.71310
3334.85765 1.71323
3332.80921 1.71283
3330.76077 1.71211
3328.71233 1.71101
3326.66389 1.70982
3324.61545 1.70966
3322.56702 1.71032
3320.51858 1.71111
3318.47014 1.71211
3316.42170 1.71224
3314.37326 1.71120
3312.32482 1.71137
3310.27639 1.71337
3308.22795 1.71484
3306.17951 1.71457
3304.13107 1.71353
3302.08263 1.71345
3300.03419 1.71433
3297.98576 1.71500
3295.93732 1.71548
3293.88888 1.71569
3291.84044 1.71530
3289.79200 1.71471
3287.74356 1.71453
3285.69513 1.71501
3283.64669 1.71528
3281.59825 1.71419
3279.54981 1.71264
3277.50137 1.71220
3275.45293 1.71262
3273.40450 1.71253
3271.35606 1.71173
3269.30762 1.71095
3267.25918 1.71077
3265.21074 1.71159
3263.16230 1.71262
3261.11387 1.71341
3259.06543 1.71446
3257.01699 1.71501
3254.96855 1.71427
3252.92011 1.71391
3250.87167 1.71451
3248.82324 1.71469
3246.77480 1.71484
3244.72636 1.71489
3242.67792 1.71393
3240.62948 1.71263
3238.58104 1.71271
3236.53261 1.71432
3234.48417 1.71538
3232.43573 1.71529
3230.38729 1.71527
3228.33885 1.71533
3226.29041 1.71554
3224.24198 1.71626
3222.19354 1.71669
3220.14510 1.71653
3218.09666 1.71632
3216.04822 1.71695
3213.99978 1.71780
3211.95135 1.71768
3209.90291 1.71776
3207.85447 1.71913
3205.80603 1.72063
3203.75759 1.72081
3201.70915 1.72037
3199.66072 1.71987
3197.61228 1.71904
3195.56384 1.71825
3193.51540 1.71733
3191.46696 1.71674
3189.41852 1.71750
3187.37008 1.71797
3185.32165 1.71707
3183.27321 1.71651
3181.22477 1.71693
3179.17633 1.71791
3177.12789 1.71885
3175.07945 1.71968
3173.03102 1.72056
3170.98258 1.72082
3168.93414 1.72058
3166.88570 1.72081
3164.83726 1.72165
3162.78882 1.72214
3160.74039 1.72200
3158.69195 1.72190
3156.64351 1.72254
3154.59507 1.72304
3152.54663 1.72237
3150.49819 1.72140
3148.44976 1.72095
3146.40132 1.72059
3144.35288 1.71945
3142.30444 1.71908
3140.25600 1.72054
3138.20756 1.72154
3136.15913 1.72209
3134.11069 1.72412
3132.06225 1.72644
3130.01381 1.72657
3127.96537 1.72453
3125.91693 1.72350
3123.86850 1.72503
3121.82006 1.72635
3119.77162 1.72637
3117.72318 1.72639
3115.67474 1.72630
3113.62630 1.72624
3111.57787 1.72679
3109.52943 1.72689
3107.48099 1.72648
3105.43255 1.72673
3103.38411 1.72713
3101.33567 1.72714
3099.28724 1.72748
3097.23880 1.72870
3095.19036 1.73003
3093.14192 1.73054
3091.09348 1.73059
3089.04504 1.73072
3086.99661 1.73137
3084.94817 1.73238
3082.89973 1.73302
3080.85129 1.73298
3078.80285 1.73201
3076.75441 1.73073
3074.70598 1.73067
3072.65754 1.73156
3070.60910 1.73196
3068.56066 1.73156
3066.51222 1.73103
3064.46378 1.73072
3062.41535 1.73038
3060.36691 1.73039
3058.31847 1.73053
3056.27003 1.73027
3054.22159 1.72987
3052.17315 1.72861
3050.12471 1.72692
3048.07628 1.72747
3046.02784 1.72974
3043.97940 1.73064
3041.93096 1.72953
3039.88252 1.72791
3037.83408 1.72815
3035.78565 1.73029
3033.73721 1.73111
3031.68877 1.73006
3029.64033 1.72958
3027.59189 1.73031
3025.54345 1.73096
3023.49502 1.73078
3021.44658 1.73064
3019.39814 1.73156
3017.34970 1.73238
3015.30126 1.73219
3013.25282 1.73213
3011.20439 1.73252
3009.15595 1.73305
3007.10751 1.73406
3005.05907 1.73551
3003.01063 1.73633
3000.96219 1.73637
2998.91376 1.73680
2996.86532 1.73753
2994.81688 1.73708
2992.76844 1.73630
2990.72000 1.73744
2988.67156 1.73916
2986.62313 1.73952
2984.57469 1.73989
2982.52625 1.74124
2980.47781 1.74206
2978.42937 1.74202
2976.38093 1.74212
2974.33250 1.74206
2972.28406 1.74226
2970.23562 1.74381
2968.18718 1.74528
2966.13874 1.74486
2964.09030 1.74380
2962.04187 1.74410
2959.99343 1.74538
2957.94499 1.74654
2955.89655 1.74807
2953.84811 1.74934
2951.79967 1.74870
2949.75124 1.74738
2947.70280 1.74729
2945.65436 1.74822
2943.60592 1.74891
2941.55748 1.74880
2939.50904 1.74822
2937.46061 1.74759
2935.41217 1.74785
2933.36373 1.74893
2931.31529 1.75001
2929.26685 1.75161
2927.21841 1.75323
2925.16998 1.75294
2923.12154 1.75166
2921.07310 1.75181
2919.02466 1.75293
2916.97622 1.75354
2914.92778 1.75409
2912.87934 1.75491
2910.83091 1.75544
2908.78247 1.75634
2906.73403 1.75803
2904.68559 1.75937
2902.63715 1.75996
2900.58871 1.76028
2898.54028 1.76012
2896.49184 1.76036
2894.44340 1.76261
2892.39496 1.76606
2890.34652 1.76796
2888.29808 1.76768
2886.24965 1.76766
2884.20121 1.76877
2882.15277 1.76979
2880.10433 1.77092
2878.05589 1.77292
2876.00745 1.77441
2873.95902 1.77448
2871.91058 1.77509
2869.86214 1.77722
2867.81370 1.78003
2865.76526 1.78200
2863.71682 1.78208
2861.66839 1.78180
2859.61995 1.78273
2857.57151 1.78420
2855.52307 1.78548
2853.47463 1.78668
2851.42619 1.78812
2849.37776 1.78995
2847.32932 1.79188
2845.28088 1.79347
2843.23244 1.79429
2841.18400 1.79427
2839.13556 1.79425
2837.08713 1.79497
2835.03869 1.79599
2832.99025 1.79696
2830.94181 1.79797
2828.89337 1.79897
2826.84493 1.80064
2824.79650 1.80273
2822.74806 1.80331
2820.69962 1.80283
2818.65118 1.80328
2816.60274 1.80460
2814.55430 1.80538
2812.50587 1.80457
2810.45743 1.80352
2808.40899 1.80408
2806.36055 1.80554
2804.31211 1.80667
2802.26367 1.80790
2800.21524 1.80922
2798.16680 1.80988
2796.11836 1.80988
2794.06992 1.80910
2792.02148 1.80804
2789.97304 1.80751
2787.92461 1.80790
2785.87617 1.80864
2783.82773 1.80829
2781.77929 1.80707
2779.73085 1.80641
2777.68241 1.80629
2775.63397 1.80608
2773.58554 1.80672
2771.53710 1.80789
2769.48866 1.80862
2767.44022 1.80920
2765.39178 1.80874
2763.34334 1.80728
2761.29491 1.80668
2759.24647 1.80781
2757.19803 1.80953
2755.14959 1.81075
2753.10115 1.81135
2751.05271 1.81121
2749.00428 1.81110
2746.95584 1.81141
2744.90740 1.81160
2742.85896 1.81149
2740.81052 1.81093
2738.76208 1.80999
2736.71365 1.80913
2734.66521 1.80787
2732.61677 1.80626
2730.56833 1.80529
2728.51989 1.80442
2726.47145 1.80331
2724.42302 1.80235
2722.37458 1.80070
2720.32614 1.79820
2718.27770 1.79613
2716.22926 1.79452
2714.18082 1.79306
2712.13239 1.79188
2710.08395 1.79074
2708.03551 1.78978
2705.98707 1.78850
2703.93863 1.78701
2701.89019 1.78615
2699.84176 1.78510
2697.79332 1.78401
2695.74488 1.78359
2693.69644 1.78293
2691.64800 1.78160
2689.59956 1.78029
2687.55113 1.77988
2685.50269 1.78062
2683.45425 1.78183
2681.40581 1.78191
2679.35737 1.78059
2677.30893 1.77958
2675.26050 1.77900
2673.21206 1.77817
2671.16362 1.77785
2669.11518 1.77797
2667.06674 1.77748
2665.01830 1.77677
2662.96987 1.77608
2660.92143 1.77494
2658.87299 1.77398
2656.82455 1.77365
2654.77611 1.77375
2652.72767 1.77442
2650.67924 1.77494
2648.63080 1.77430
2646.58236 1.77377
2644.53392 1.77445
2642.48548 1.77482
2640.43704 1.77439
2638.38860 1.77431
2636.34017 1.77417
2634.29173 1.77322
2632.24329 1.77205
2630.19485 1.77156
2628.14641 1.77167
2626.09797 1.77151
2624.04954 1.77134
2622.00110 1.77165
2619.95266 1.77173
2617.90422 1.77118
2615.85578 1.77064
2613.80734 1.77041
2611.75891 1.77017
2609.71047 1.76997
2607.66203 1.77054
2605.61359 1.77175
2603.56515 1.77229
2601.51671 1.77239
2599.46828 1.77333
2597.41984 1.77475
2595.37140 1.77571
2593.32296 1.77596
2591.27452 1.77598
2589.22608 1.77638
2587.17765 1.77694
2585.12921 1.77715
2583.08077 1.77702
2581.03233 1.77697
2578.98389 1.77759
2576.93545 1.77872
2574.88702 1.77957
2572.83858 1.78028
2570.79014 1.78132
2568.74170 1.78186
2566.69326 1.78101
2564.64482 1.78039
2562.59639 1.78162
2560.54795 1.78374
2558.49951 1.78537
2556.45107 1.78661
2554.40263 1.78853
2552.35419 1.79056
2550.30576 1.79147
2548.25732 1.79240
2546.20888 1.79442
2544.16044 1.79707
2542.11200 1.79946
2540.06356 1.80147
2538.01513 1.80330
2535.96669 1.80445
2533.91825 1.80540
2531.86981 1.80714
2529.82137 1.80945
2527.77293 1.81150
2525.72450 1.81302
2523.67606 1.81372
2521.62762 1.81302
2519.57918 1.81204
2517.53074 1.81133
2515.48230 1.81023
2513.43387 1.80966
2511.38543 1.80997
2509.33699 1.81053
2507.28855 1.81161
2505.24011 1.81286
2503.19167 1.81318
2501.14324 1.81303
2499.09480 1.81401
2497.04636 1.81653
2494.99792 1.81894
2492.94948 1.81963
2490.90104 1.81945
2488.85260 1.81993
2486.80417 1.82169
2484.75573 1.82400
2482.70729 1.82483
2480.65885 1.82452
2478.61041 1.82523
2476.56197 1.82595
2474.51354 1.82521
2472.46510 1.82496
2470.41666 1.82555
2468.36822 1.82492
2466.31978 1.82350
2464.27134 1.82328
2462.22291 1.82454
2460.17447 1.82564
2458.12603 1.82623
2456.07759 1.82727
2454.02915 1.82859
2451.98071 1.83019
2449.93228 1.83193
2447.88384 1.83313
2445.83540 1.83388
2443.78696 1.83488
2441.73852 1.83716
2439.69008 1.83978
2437.64165 1.84090
2435.59321 1.84157
2433.54477 1.84312
2431.49633 1.84505
2429.44789 1.84653
2427.39945 1.84808
2425.35102 1.85121
2423.30258 1.85430
2421.25414 1.85478
2419.20570 1.85373
2417.15726 1.85325
2415.10882 1.85339
2413.06039 1.85317
2411.01195 1.85212
2408.96351 1.85030
2406.91507 1.84820
2404.86663 1.84631
2402.81819 1.84468
2400.76976 1.84319
2398.72132 1.84203
2396.67288 1.84075
2394.62444 1.83869
2392.57600 1.83662
2390.52756 1.83614
2388.47913 1.83690
2386.43069 1.83611
2384.38225 1.83345
2382.33381 1.83160
2380.28537 1.83132
2378.23693 1.83007
2376.18850 1.82587
2374.14006 1.82208
2372.09162 1.82229
2370.04318 1.82366
2367.99474 1.82253
2365.94630 1.81902
2363.89787 1.81593
2361.84943 1.81353
2359.80099 1.81070
2357.75255 1.81473
2355.70411 1.82390
2353.65567 1.82587
2351.60723 1.82279
2349.55880 1.82072
2347.51036 1.82045
2345.46192 1.82048
2343.41348 1.81955
2341.36504 1.82200
2339.31660 1.82588
2337.26817 1.82584
2335.21973 1.82278
2333.17129 1.81955
2331.12285 1.81970
2329.07441 1.82187
2327.02597 1.82208
2324.97754 1.81870
2322.92910 1.81272
2320.88066 1.80724
2318.83222 1.80468
2316.78378 1.80453
2314.73534 1.80414
2312.68691 1.80354
2310.63847 1.80358
2308.59003 1.80292
2306.54159 1.80152
2304.49315 1.80080
2302.44471 1.80089
2300.39628 1.80094
2298.34784 1.80075
2296.29940 1.80028
2294.25096 1.79931
2292.20252 1.79884
2290.15408 1.79923
2288.10565 1.79947
2286.05721 1.79955
2284.00877 1.79952
2281.96033 1.79952
2279.91189 1.79975
2277.86345 1.79973
2275.81502 1.79980
2273.76658 1.80036
2271.71814 1.80039
2269.66970 1.79954
2267.62126 1.79831
2265.57282 1.79723
2263.52439 1.79726
2261.47595 1.79764
2259.42751 1.79691
2257.37907 1.79604
2255.33063 1.79675
2253.28219 1.79853
2251.23376 1.80015
2249.18532 1.80113
2247.13688 1.80166
2245.08844 1.80294
2243.04000 1.80482
2240.99156 1.80611
2238.94313 1.80649
2236.89469 1.80703
2234.84625 1.80893
2232.79781 1.81022
2230.74937 1.80955
2228.70093 1.80930
2226.65250 1.81054
2224.60406 1.81159
2222.55562 1.81110
2220.50718 1.80905
2218.45874 1.80677
2216.41030 1.80592
2214.36186 1.80670
2212.31343 1.80801
2210.26499 1.80831
2208.21655 1.80713
2206.16811 1.80565
2204.11967 1.80475
2202.07123 1.80414
2200.02280 1.80353
2197.97436 1.80348
2195.92592 1.80451
2193.87748 1.80539
2191.82904 1.80555
2189.78060 1.80676
2187.73217 1.80950
2185.68373 1.81172
2183.63529 1.81221
2181.58685 1.81229
2179.53841 1.81223
2177.48997 1.81146
2175.44154 1.81122
2173.39310 1.81200
2171.34466 1.81277
2169.29622 1.81338
2167.24778 1.81420
2165.19934 1.81510
2163.15091 1.81634
2161.10247 1.81753
2159.05403 1.81810
2157.00559 1.81890
2154.95715 1.81988
2152.90871 1.82014
2150.86028 1.82058
2148.81184 1.82209
2146.76340 1.82318
2144.71496 1.82260
2142.66652 1.82175
2140.61808 1.82169
2138.56965 1.82151
2136.52121 1.82093
2134.47277 1.82067
2132.42433 1.82114
2130.37589 1.82181
2128.32745 1.82165
2126.27902 1.82134
2124.23058 1.82177
2122.18214 1.82180
2120.13370 1.82134
2118.08526 1.82140
2116.03682 1.82210
2113.98839 1.82319
2111.93995 1.82412
2109.89151 1.82438
2107.84307 1.82456
2105.79463 1.82607
2103.74619 1.82869
2101.69776 1.83128
2099.64932 1.83315
2097.60088 1.83391
2095.55244 1.83450
2093.50400 1.83500
2091.45556 1.83451
2089.40713 1.83340
2087.35869 1.83271
2085.31025 1.83341
2083.26181 1.83547
2081.21337 1.83747
2079.16493 1.83876
2077.11649 1.83950
2075.06806 1.84026
2073.01962 1.84198
2070.97118 1.84312
2068.92274 1.84258
2066.87430 1.84333
2064.82586 1.84673
2062.77743 1.84933
2060.72899 1.84919
2058.68055 1.84949
2056.63211 1.85139
2054.58367 1.85320
2052.53523 1.85481
2050.48680 1.85540
2048.43836 1.85460
2046.38992 1.85359
2044.34148 1.85317
2042.29304 1.85357
2040.24460 1.85363
2038.19617 1.85233
2036.14773 1.85119
2034.09929 1.85097
2032.05085 1.84982
2030.00241 1.84722
2027.95397 1.84500
2025.90554 1.84328
2023.85710 1.84190
2021.80866 1.84141
2019.76022 1.84141
2017.71178 1.84144
2015.66334 1.84059
2013.61491 1.83929
2011.56647 1.83891
2009.51803 1.83848
2007.46959 1.83758
2005.42115 1.83708
2003.37271 1.83648
2001.32428 1.83562
1999.27584 1.83493
1997.22740 1.83412
1995.17896 1.83308
1993.13052 1.83299
1991.08208 1.83499
1989.03365 1.83753
1986.98521 1.83879
1984.93677 1.83903
1982.88833 1.83923
1980.83989 1.84004
1978.79145 1.84131
1976.74302 1.84183
1974.69458 1.84086
1972.64614 1.83911
1970.59770 1.83755
1968.54926 1.83677
1966.50082 1.83599
1964.45239 1.83455
1962.40395 1.83352
1960.35551 1.83344
1958.30707 1.83363
1956.25863 1.83425
1954.21019 1.83591
1952.16176 1.83730
1950.11332 1.83781
1948.06488 1.83837
1946.01644 1.83884
1943.96800 1.83907
1941.91956 1.84068
1939.87112 1.84337
1937.82269 1.84443
1935.77425 1.84347
1933.72581 1.84233
1931.67737 1.84191
1929.62893 1.84214
1927.58049 1.84342
1925.53206 1.84441
1923.48362 1.84521
1921.43518 1.84744
1919.38674 1.84941
1917.33830 1.85062
1915.28986 1.85209
1913.24143 1.85369
1911.19299 1.85505
1909.14455 1.85654
1907.09611 1.85807
1905.04767 1.85877
1902.99923 1.85935
1900.95080 1.86033
1898.90236 1.86157
1896.85392 1.86306
1894.80548 1.86382
1892.75704 1.86334
1890.70860 1.86358
1888.66017 1.86624
1886.61173 1.86856
1884.56329 1.86916
1882.51485 1.87029
1880.46641 1.87197
1878.41797 1.87279
1876.36954 1.87208
1874.32110 1.87062
1872.27266 1.86900
1870.22422 1.86671
1868.17578 1.86675
1866.12734 1.87055
1864.07891 1.87416
1862.03047 1.87708
1859.98203 1.88015
1857.93359 1.88283
1855.88515 1.88454
1853.83671 1.88582
1851.78828 1.88733
1849.73984 1.88899
1847.69140 1.88944
1845.64296 1.88810
1843.59452 1.88761
1841.54608 1.88917
1839.49765 1.89091
1837.44921 1.89230
1835.40077 1.89316
1833.35233 1.89317
1831.30389 1.89294
1829.25545 1.89492
1827.20702 1.89862
1825.15858 1.90182
1823.11014 1.90443
1821.06170 1.90552
1819.01326 1.90563
1816.96482 1.90662
1814.91639 1.90807
1812.86795 1.90851
1810.81951 1.90849
1808.77107 1.90896
1806.72263 1.90991
1804.67419 1.91106
1802.62575 1.91252
1800.57732 1.91504
1798.52888 1.91770
1796.48044 1.91879
1794.43200 1.91866
1792.38356 1.91948
1790.33512 1.92197
1788.28669 1.92436
1786.23825 1.92702
1784.18981 1.92930
1782.14137 1.92952
1780.09293 1.92986
1778.04449 1.93214
1775.99606 1.93368
1773.94762 1.93252
1771.89918 1.93097
1769.85074 1.93289
1767.80230 1.93714
1765.75386 1.94098
1763.70543 1.94302
1761.65699 1.94590
1759.60855 1.95088
1757.56011 1.95641
1755.51167 1.96183
1753.46323 1.96635
1751.41480 1.97324
1749.36636 1.98428
1747.31792 1.99306
1745.26948 1.99679
1743.22104 1.99661
1741.17260 1.99334
1739.12417 1.99050
1737.07573 1.99022
1735.02729 1.99252
1732.97885 1.99679
1730.93041 1.99336
1728.88197 1.98391
1726.83354 1.97516
1724.78510 1.96895
1722.73666 1.96597
1720.68822 1.96467
1718.63978 1.96245
1716.59134 1.96238
1714.54291 1.96641
1712.49447 1.97051
1710.44603 1.97286
1708.39759 1.97239
1706.34915 1.97115
1704.30071 1.97185
1702.25228 1.97218
1700.20384 1.97368
1698.15540 1.97983
1696.10696 1.98645
1694.05852 1.99121
1692.01008 1.99325
1689.96165 1.99359
1687.91321 1.99259
1685.86477 1.99232
1683.81633 1.99986
1681.76789 2.00990
1679.71945 2.01439
1677.67102 2.01641
1675.62258 2.01857
1673.57414 2.01997
1671.52570 2.02008
1669.47726 2.02288
1667.42882 2.02647
1665.38038 2.02787
1663.33195 2.02926
1661.28351 2.03159
1659.23507 2.03483
1657.18663 2.03729
1655.13819 2.03659
1653.08975 2.03762
1651.04132 2.04396
1648.99288 2.04606
1646.94444 2.04846
1644.89600 2.05539
1642.84756 2.05987
1640.79912 2.06030
1638.75069 2.05889
1636.70225 2.06139
1634.65381 2.07045
1632.60537 2.07477
1630.55693 2.07569
1628.50849 2.07840
1626.46006 2.08339
1624.41162 2.08662
1622.36318 2.08910
1620.31474 2.09268
1618.26630 2.09665
1616.21786 2.10304
1614.16943 2.10953
1612.12099 2.11315
1610.07255 2.11539
1608.02411 2.11891
1605.97567 2.12471
1603.92723 2.13019
1601.87880 2.13451
1599.83036 2.13945
1597.78192 2.14395
1595.73348 2.14759
1593.68504 2.15120
1591.63660 2.15564
1589.58817 2.16036
1587.53973 2.16491
1585.49129 2.17024
1583.44285 2.17613
1581.39441 2.18066
1579.34597 2.18132
1577.29754 2.18268
1575.24910 2.19288
1573.20066 2.20345
1571.15222 2.20748
1569.10378 2.21097
1567.05534 2.21862
1565.00691 2.22653
1562.95847 2.23095
1560.91003 2.23266
1558.86159 2.24208
1556.81315 2.25365
1554.76471 2.26079
1552.71628 2.27027
1550.66784 2.28068
1548.61940 2.28797
1546.57096 2.29484
1544.52252 2.30202
1542.47408 2.30641
1540.42565 2.31542
1538.37721 2.32492
1536.32877 2.32945
1534.28033 2.33612
1532.23189 2.34836
1530.18345 2.35555
1528.13501 2.35733
1526.08658 2.35632
1524.03814 2.35656
1521.98970 2.35566
1519.94126 2.35123
1517.89282 2.34350
1515.84438 2.32746
1513.79595 2.30627
1511.74751 2.28238
1509.69907 2.25831
1507.65063 2.20238
1505.60219 2.10603
1503.55375 2.04685
1501.50532 1.99557
1499.45688 1.93207
1497.40844 1.85509
1495.36000 1.78418
1493.31156 1.73544
1491.26312 1.69021
1489.21469 1.63454
1487.16625 1.58736
1485.11781 1.55478
1483.06937 1.52709
1481.02093 1.50041
1478.97249 1.47801
1476.92406 1.45937
1474.87562 1.44111
1472.82718 1.42224
1470.77874 1.40651
1468.73030 1.39523
1466.68186 1.38385
1464.63343 1.37137
1462.58499 1.36110
1460.53655 1.35301
1458.48811 1.34340
1456.43967 1.33223
1454.39123 1.32521
1452.34280 1.31972
1450.29436 1.31430
1448.24592 1.30944
1446.19748 1.30580
1444.14904 1.30352
1442.10060 1.30253
1440.05217 1.30243
1438.00373 1.30414
1435.95529 1.30970
1433.90685 1.31591
1431.85841 1.32110
1429.80997 1.32771
1427.76154 1.33428
1425.71310 1.33851
1423.66466 1.34106
1421.61622 1.34155
1419.56778 1.33893
1417.51934 1.33317
1415.47091 1.32575
1413.42247 1.31605
1411.37403 1.30414
1409.32559 1.29140
1407.27715 1.27865
1405.22871 1.26543
1403.18028 1.25381
1401.13184 1.24501
1399.08340 1.23744
1397.03496 1.23150
1394.98652 1.22785
1392.93808 1.22636
1390.88965 1.22600
1388.84121 1.22718
1386.79277 1.23193
1384.74433 1.23937
1382.69589 1.24812
1380.64745 1.26008
1378.59901 1.27562
1376.55058 1.29328
1374.50214 1.31458
1372.45370 1.33747
1370.40526 1.35658
1368.35682 1.37383
1366.30838 1.38951
1364.25995 1.40360
1362.21151 1.41919
1360.16307 1.43412
1358.11463 1.44606
1356.06619 1.45706
1354.01775 1.46871
1351.96932 1.48020
1349.92088 1.49042
1347.87244 1.49955
1345.82400 1.50828
1343.77556 1.51637
1341.72712 1.52348
1339.67869 1.53085
1337.63025 1.53871
1335.58181 1.54506
1333.53337 1.55029
1331.48493 1.55609
1329.43649 1.56260
1327.38806 1.56857
1325.33962 1.57347
1323.29118 1.57818
1321.24274 1.58301
1319.19430 1.58783
1317.14586 1.59179
1315.09743 1.59482
1313.04899 1.59839
1311.00055 1.60237
1308.95211 1.60565
1306.90367 1.60808
1304.85523 1.61026
1302.80680 1.61273
1300.75836 1.61513
1298.70992 1.61718
1296.66148 1.61921
1294.61304 1.62136
1292.56460 1.62406
1290.51617 1.62714
1288.46773 1.63007
1286.41929 1.63309
1284.37085 1.63649
1282.32241 1.64003
1280.27397 1.64375
1278.22554 1.64785
1276.17710 1.65164
1274.12866 1.65481
1272.08022 1.65758
1270.03178 1.66031
1267.98334 1.66316
1265.93491 1.66561
1263.88647 1.66765
1261.83803 1.66996
1259.78959 1.67231
1257.74115 1.67438
1255.69271 1.67639
1253.64428 1.67822
1251.59584 1.68018
1249.54740 1.68292
1247.49896 1.68621
1245.45052 1.68961
1243.40208 1.69279
1241.35364 1.69540
1239.30521 1.69740
1237.25677 1.69907
1235.20833 1.70138
1233.15989 1.70490
1231.11145 1.70863
1229.06301 1.71119
1227.01458 1.71271
1224.96614 1.71411
1222.91770 1.71509
1220.86926 1.71556
1218.82082 1.71624
1216.77238 1.71722
1214.72395 1.71857
1212.67551 1.72063
1210.62707 1.72244
1208.57863 1.72358
1206.53019 1.72478
1204.48175 1.72602
1202.43332 1.72739
1200.38488 1.72958
1198.33644 1.73263
1196.28800 1.73526
1194.23956 1.73673
1192.19112 1.73774
1190.14269 1.73854
1188.09425 1.73885
1186.04581 1.73953
1183.99737 1.74122
1181.94893 1.74288
1179.90049 1.74365
1177.85206 1.74368
1175.80362 1.74385
1173.75518 1.74509
1171.70674 1.74741
1169.65830 1.75041
1167.60986 1.75351
1165.56143 1.75527
1163.51299 1.75586
1161.46455 1.75653
1159.41611 1.75691
1157.36767 1.75680
1155.31923 1.75708
1153.27080 1.75811
1151.22236 1.75918
1149.17392 1.75965
1147.12548 1.76011
1145.07704 1.76154
1143.02860 1.76301
1140.98017 1.76371
1138.93173 1.76391
1136.88329 1.76362
1134.83485 1.76375
1132.78641 1.76487
1130.73797 1.76624
1128.68954 1.76762
1126.64110 1.76894
1124.59266 1.76963
1122.54422 1.77023
1120.49578 1.77158
1118.44734 1.77346
1116.39891 1.77566
1114.35047 1.77854
1112.30203 1.78149
1110.25359 1.78279
1108.20515 1.78226
1106.15671 1.78124
1104.10827 1.78070
1102.05984 1.78062
1100.01140 1.78024
1097.96296 1.77890
1095.91452 1.77715
1093.86608 1.77547
1091.81764 1.77446
1089.76921 1.77403
1087.72077 1.77366
1085.67233 1.77370
1083.62389 1.77505
1081.57545 1.77930
1079.52701 1.78520
1077.47858 1.78882
1075.43014 1.78956
1073.38170 1.79104
1071.33326 1.79387
1069.28482 1.79478
1067.23638 1.79370
1065.18795 1.79494
1063.13951 1.80091
1061.09107 1.81068
1059.04263 1.82482
1056.99419 1.83850
1054.94575 1.80768
1052.89732 1.72224
1050.84888 1.66992
1048.80044 1.68590
1046.75200 1.72191
1044.70356 1.74120
1042.65512 1.74857
1040.60669 1.75042
1038.55825 1.75151
1036.50981 1.75514
1034.46137 1.75998
1032.41293 1.76345
1030.36449 1.76629
1028.31606 1.76952
1026.26762 1.77198
1024.21918 1.77213
1022.17074 1.77085
1020.12230 1.76992
1018.07386 1.76979
1016.02543 1.76937
1013.97699 1.76984
1011.92855 1.77290
1009.88011 1.77737
1007.83167 1.78133
1005.78323 1.78412
1003.73480 1.78735
1001.68636 1.79079
999.63792 1.79295
997.58948 1.79415
995.54104 1.79507
993.49260 1.79563
991.44417 1.79598
989.39573 1.79583
987.34729 1.79502
985.29885 1.79451
983.25041 1.79474
981.20197 1.79476
979.15354 1.79317
977.10510 1.79138
975.05666 1.79214
973.00822 1.79484
970.95978 1.79668
968.91134 1.79849
966.86290 1.80157
964.81447 1.80412
962.76603 1.80581
960.71759 1.80716
958.66915 1.80739
956.62071 1.80653
954.57227 1.80542
952.52384 1.80409
950.47540 1.80272
948.42696 1.80225
946.37852 1.80352
944.33008 1.80524
942.28164 1.80654
940.23321 1.80883
938.18477 1.81224
936.13633 1.81584
934.08789 1.81877
932.03945 1.82057
929.99101 1.82143
927.94258 1.82200
925.89414 1.82169
923.84570 1.81981
921.79726 1.81756
919.74882 1.81643
917.70038 1.81703
915.65195 1.81864
913.60351 1.82065
911.55507 1.82326
909.50663 1.82630
907.45819 1.82961
905.40975 1.83291
903.36132 1.83685
901.31288 1.84231
899.26444 1.84656
897.21600 1.84902
895.16756 1.85147
893.11912 1.85239
891.07069 1.85182
889.02225 1.85176
886.97381 1.85274
884.92537 1.85520
882.87693 1.85838
880.82849 1.86113
878.78006 1.86527
876.73162 1.87226
874.68318 1.87967
872.63474 1.88366
870.58630 1.88653
868.53786 1.89396
866.48943 1.90494
864.44099 1.91469
862.39255 1.92275
860.34411 1.93304
858.29567 1.94716
856.24723 1.96296
854.19880 1.97913
852.15036 1.99479
850.10192 1.99542
848.05348 1.93158
846.00504 1.77005
843.95660 1.58443
841.90817 1.45558
839.85973 1.40478
837.81129 1.42393
835.76285 1.49139
833.71441 1.57181
831.66597 1.63554
829.61753 1.67845
827.56910 1.70655
825.52066 1.72148
823.47222 1.72738
821.42378 1.73459
819.37534 1.74581
817.32690 1.75704
815.27847 1.76924
813.23003 1.78093
811.18159 1.78763
809.13315 1.79079
807.08471 1.79351
805.03627 1.79526
802.98784 1.79582
800.93940 1.79930
798.89096 1.80588
796.84252 1.80927
794.79408 1.80839
792.74564 1.80729
790.69721 1.80847
788.64877 1.81229
786.60033 1.81714
784.55189 1.82111
782.50345 1.82338
780.45501 1.82439
778.40658 1.82490
776.35814 1.82743
774.30970 1.83323
772.26126 1.83816
770.21282 1.84070
768.16438 1.84110
766.11595 1.83857
764.06751 1.83730
762.01907 1.83940
759.97063 1.83981
757.92219 1.83784
755.87375 1.83965
753.82532 1.84649
751.77688 1.85396
749.72844 1.85797
747.68000 1.85889
745.63156 1.86135
743.58312 1.86716
741.53469 1.87098
739.48625 1.86872
737.43781 1.86656
735.38937 1.86851
733.34093 1.87073
731.29249 1.87291
729.24406 1.87830
727.19562 1.88416
725.14718 1.88459
723.09874 1.88120
721.05030 1.88104
719.00186 1.88497
716.95343 1.88740
714.90499 1.88698
712.85655 1.88653
710.80811 1.89040
708.75967 1.89992
706.71123 1.91015
704.66280 1.92068
702.61436 1.93840
700.56592 1.95832
698.51748 1.96702
696.46904 1.97125
694.42060 1.98047
692.37216 1.99469
690.32373 2.02506
688.27529 2.07794
686.22685 2.12626
684.17841 2.08493
682.12997 1.85944
680.08153 1.58922
678.03310 1.43959
675.98466 1.44005
673.93622 1.53631
671.88778 1.63033
669.83934 1.68126
667.79090 1.72511
665.74247 1.76325
663.69403 1.77859
661.64559 1.77863
659.59715 1.77277
657.54871 1.77830
655.50027 1.79868
653.45184 1.81992
651.40340 1.83249
649.35496 1.83534
647.30652 1.83765
645.25808 1.84057
643.20964 1.83535
641.16121 1.83370
639.11277 1.84606
637.06433 1.85629
635.01589 1.85211
632.96745 1.84858
630.91901 1.85964
628.87058 1.86550
626.82214 1.85060
624.77370 1.83787
622.72526 1.83650
620.67682 1.83873
618.62838 1.84548
616.57995 1.86302
614.53151 1.87668
612.48307 1.86353
610.43463 1.85227
608.38619 1.85796
606.33775 1.85274
604.28932 1.83364
602.24088 1.83713
600.19244 1.87226
598.14400 1.87987
