3996.50324 2.20459
3994.45480 2.20454
3992.40636 2.20131
3990.35792 2.19916
3988.30948 2.20308
3986.26104 2.20527
3984.21261 2.20083
3982.16417 2.19794
3980.11573 2.19537
3978.06729 2.18974
3976.01885 2.18604
3973.97041 2.18496
3971.92198 2.18279
3969.87354 2.18018
3967.82510 2.18144
3965.77666 2.18562
3963.72822 2.18636
3961.67978 2.18440
3959.63135 2.18446
3957.58291 2.18685
3955.53447 2.18929
3953.48603 2.18665
3951.43759 2.18112
3949.38915 2.18428
3947.34072 2.19275
3945.29228 2.18904
3943.24384 2.18292
3941.19540 2.19002
3939.14696 2.19606
3937.09852 2.19250
3935.05009 2.18524
3933.00165 2.18179
3930.95321 2.18820
3928.90477 2.19276
3926.85633 2.18932
3924.80789 2.18989
3922.75946 2.19332
3920.71102 2.19218
3918.66258 2.19517
3916.61414 2.20756
3914.56570 2.21562
3912.51726 2.21248
3910.46883 2.20829
3908.42039 2.20203
3906.37195 2.19133
3904.32351 2.19380
3902.27507 2.21551
3900.22663 2.23696
3898.17820 2.24993
3896.12976 2.24837
3894.08132 2.23496
3892.03288 2.23175
3889.98444 2.24549
3887.93600 2.24690
3885.88756 2.24507
3883.83913 2.25377
3881.79069 2.25940
3879.74225 2.27478
3877.69381 2.28054
3875.64537 2.26515
3873.59693 2.25186
3871.54850 2.24590
3869.50006 2.25463
3867.45162 2.26270
3865.40318 2.26100
3863.35474 2.27467
3861.30630 2.28546
3859.25787 2.27289
3857.20943 2.24936
3855.16099 2.23513
3853.11255 2.27895
3851.06411 2.32489
3849.01567 2.31724
3846.96724 2.30175
3844.91880 2.28522
3842.87036 2.27041
3840.82192 2.26825
3838.77348 2.28650
3836.72504 2.31368
3834.67661 2.32062
3832.62817 2.31830
3830.57973 2.31348
3828.53129 2.30606
3826.48285 2.30814
3824.43441 2.30816
3822.38598 2.29798
3820.33754 2.30744
3818.28910 2.31606
3816.24066 2.31865
3814.19222 2.33638
3812.14378 2.33921
3810.09535 2.32280
3808.04691 2.31038
3805.99847 2.31482
3803.95003 2.30438
3801.90159 2.29465
3799.85315 2.31802
3797.80472 2.33091
3795.75628 2.33340
3793.70784 2.33288
3791.65940 2.32661
3789.61096 2.32313
3787.56252 2.32071
3785.51409 2.32431
3783.46565 2.33639
3781.41721 2.33921
3779.36877 2.34115
3777.32033 2.35153
3775.27189 2.35483
3773.22346 2.35092
3771.17502 2.34923
3769.12658 2.35624
3767.07814 2.36147
3765.02970 2.36181
3762.98126 2.35571
3760.93283 2.34305
3758.88439 2.33800
3756.83595 2.34022
3754.78751 2.33751
3752.73907 2.32873
3750.69063 2.33188
3748.64219 2.33994
3746.59376 2.32258
3744.54532 2.31233
3742.49688 2.32053
3740.44844 2.31010
3738.40000 2.28869
3736.35156 2.27508
3734.30313 2.28489
3732.25469 2.30714
3730.20625 2.30842
3728.15781 2.29264
3726.10937 2.28984
3724.06093 2.30436
3722.01250 2.31152
3719.96406 2.30845
3717.91562 2.29867
3715.86718 2.28315
3713.81874 2.26255
3711.77030 2.25915
3709.72187 2.29352
3707.67343 2.31676
3705.62499 2.31211
3703.57655 2.29936
3701.52811 2.30585
3699.47967 2.32690
3697.43124 2.33677
3695.38280 2.33610
3693.33436 2.32757
3691.28592 2.31755
3689.23748 2.32396
3687.18904 2.33045
3685.14061 2.31828
3683.09217 2.30282
3681.04373 2.28798
3678.99529 2.26883
3676.94685 2.25594
3674.89841 2.28512
3672.84998 2.31038
3670.80154 2.30509
3668.75310 2.31002
3666.70466 2.30791
3664.65622 2.29288
3662.60778 2.27853
3660.55935 2.26324
3658.51091 2.25043
3656.46247 2.26010
3654.41403 2.28206
3652.36559 2.28336
3650.31715 2.28686
3648.26872 2.31468
3646.22028 2.31079
3644.17184 2.28261
3642.12340 2.25948
3640.07496 2.24523
3638.02652 2.22907
3635.97809 2.21400
3633.92965 2.20742
3631.88121 2.19674
3629.83277 2.18934
3627.78433 2.22758
3625.73589 2.26151
3623.68746 2.26217
3621.63902 2.26218
3619.59058 2.28447
3617.54214 2.29763
3615.49370 2.26841
3613.44526 2.23627
3611.39682 2.22033
3609.34839 2.21570
3607.29995 2.22514
3605.25151 2.23042
3603.20307 2.22073
3601.15463 2.21238
3599.10619 2.21200
3597.05776 2.21209
3595.00932 2.21978
3592.96088 2.23473
3590.91244 2.23526
3588.86400 2.22627
3586.81556 2.23548
3584.76713 2.24901
3582.71869 2.24908
3580.67025 2.24768
3578.62181 2.24753
3576.57337 2.24768
3574.52493 2.25013
3572.47650 2.25076
3570.42806 2.24315
3568.37962 2.23558
3566.33118 2.24822
3564.28274 2.26441
3562.23430 2.26423
3560.18587 2.26039
3558.13743 2.26100
3556.08899 2.26037
3554.04055 2.25899
3551.99211 2.26599
3549.94367 2.27380
3547.89524 2.27382
3545.84680 2.27580
3543.79836 2.28298
3541.74992 2.28657
3539.70148 2.28226
3537.65304 2.27688
3535.60461 2.27828
3533.55617 2.28000
3531.50773 2.27985
3529.45929 2.28488
3527.41085 2.29269
3525.36241 2.29930
3523.31398 2.30629
3521.26554 2.31047
3519.21710 2.30850
3517.16866 2.30212
3515.12022 2.29671
3513.07178 2.29688
3511.02335 2.30227
3508.97491 2.31006
3506.92647 2.31352
3504.87803 2.30900
3502.82959 2.31162
3500.78115 2.32570
3498.73272 2.32985
3496.68428 2.32244
3494.63584 2.31902
3492.58740 2.32086
3490.53896 2.32310
3488.49052 2.33114
3486.44209 2.34031
3484.39365 2.33791
3482.34521 2.33137
3480.29677 2.33450
3478.24833 2.34527
3476.19989 2.35482
3474.15146 2.36183
3472.10302 2.36850
3470.05458 2.37456
3468.00614 2.37951
3465.95770 2.38316
3463.90926 2.38626
3461.86082 2.39177
3459.81239 2.39955
3457.76395 2.40584
3455.71551 2.40871
3453.66707 2.40766
3451.61863 2.40690
3449.57019 2.41090
3447.52176 2.41630
3445.47332 2.41961
3443.42488 2.42104
3441.37644 2.42101
3439.32800 2.42057
3437.27956 2.41561
3435.23113 2.40572
3433.18269 2.39677
3431.13425 2.38926
3429.08581 2.38366
3427.03737 2.37910
3424.98893 2.37204
3422.94050 2.36513
3420.89206 2.36401
3418.84362 2.36922
3416.79518 2.37285
3414.74674 2.37073
3412.69830 2.37130
3410.64987 2.37513
3408.60143 2.37255
3406.55299 2.36536
3404.50455 2.36039
3402.45611 2.35792
3400.40767 2.35882
3398.35924 2.36152
3396.31080 2.35639
3394.26236 2.34639
3392.21392 2.34438
3390.16548 2.34572
3388.11704 2.34163
3386.06861 2.33811
3384.02017 2.33876
3381.97173 2.33657
3379.92329 2.33127
3377.87485 2.32835
3375.82641 2.32484
3373.77798 2.32022
3371.72954 2.31973
3369.68110 2.32179
3367.63266 2.32393
3365.58422 2.32515
3363.53578 2.31896
3361.48735 2.30736
3359.43891 2.30334
3357.39047 2.30764
3355.34203 2.30939
3353.29359 2.30569
3351.24515 2.30222
3349.19672 2.30147
3347.14828 2.30031
3345.09984 2.29841
3343.05140 2.30039
3341.00296 2.30385
3338.95452 2.30139
3336.90609 2.29655
3334.85765 2.29514
3332.80921 2.29113
3330.76077 2.28276
3328.71233 2.28042
3326.66389 2.28309
3324.61545 2.28087
3322.56702 2.27485
3320.51858 2.27088
3318.47014 2.27285
3316.42170 2.27668
3314.37326 2.27387
3312.32482 2.26818
3310.27639 2.26846
3308.22795 2.27162
3306.17951 2.27029
3304.13107 2.26530
3302.08263 2.26205
3300.03419 2.26315
3297.98576 2.26332
3295.93732 2.26110
3293.88888 2.26264
3291.84044 2.26716
3289.79200 2.26731
3287.74356 2.26117
3285.69513 2.25690
3283.64669 2.25860
3281.59825 2.26055
3279.54981 2.26114
3277.50137 2.26264
3275.45293 2.26228
3273.40450 2.26015
3271.35606 2.25958
3269.30762 2.25750
3267.25918 2.25393
3265.21074 2.25382
3263.16230 2.25620
3261.11387 2.25930
3259.06543 2.26203
3257.01699 2.26174
3254.96855 2.26083
3252.92011 2.26339
3250.87167 2.26528
3248.82324 2.26104
3246.77480 2.25607
3244.72636 2.25438
3242.67792 2.25344
3240.62948 2.25383
3238.58104 2.25710
3236.53261 2.26290
3234.48417 2.26503
3232.43573 2.25903
3230.38729 2.25108
3228.33885 2.24829
3226.29041 2.25102
3224.24198 2.25676
3222.19354 2.26232
3220.14510 2.26219
3218.09666 2.26015
3216.04822 2.26385
3213.99978 2.26944
3211.95135 2.27181
3209.90291 2.27036
3207.85447 2.26575
3205.80603 2.26253
3203.75759 2.26435
3201.70915 2.26784
3199.66072 2.26904
3197.61228 2.26825
3195.56384 2.26797
3193.51540 2.27175
3191.46696 2.27533
3189.41852 2.27183
3187.37008 2.26915
3185.32165 2.27381
3183.27321 2.27881
3181.22477 2.28095
3179.17633 2.28155
3177.12789 2.28157
3175.07945 2.28246
3173.03102 2.28180
3170.98258 2.27950
3168.93414 2.27823
3166.88570 2.27938
3164.83726 2.28433
3162.78882 2.28960
3160.74039 2.29298
3158.69195 2.29585
3156.64351 2.29435
3154.59507 2.28838
3152.54663 2.28559
3150.49819 2.28968
3148.44976 2.29558
3146.40132 2.29765
3144.35288 2.29779
3142.30444 2.29890
3140.25600 2.29999
3138.20756 2.29983
3136.15913 2.30048
3134.11069 2.30398
3132.06225 2.30709
3130.01381 2.30715
3127.96537 2.30924
3125.91693 2.31451
3123.86850 2.31533
3121.82006 2.31340
3119.77162 2.31461
3117.72318 2.31880
3115.67474 2.32516
3113.62630 2.33295
3111.57787 2.34179
3109.52943 2.34727
3107.48099 2.34872
3105.43255 2.35125
3103.38411 2.35452
3101.33567 2.35911
3099.28724 2.36421
3097.23880 2.36646
3095.19036 2.37022
3093.14192 2.37681
3091.09348 2.38206
3089.04504 2.38818
3086.99661 2.39543
3084.94817 2.39658
3082.89973 2.39070
3080.85129 2.38698
3078.80285 2.38751
3076.75441 2.38595
3074.70598 2.38212
3072.65754 2.38078
3070.60910 2.38307
3068.56066 2.38446
3066.51222 2.37949
3064.46378 2.36974
3062.41535 2.36526
3060.36691 2.36841
3058.31847 2.37000
3056.27003 2.36756
3054.22159 2.36712
3052.17315 2.36980
3050.12471 2.37097
3048.07628 2.36777
3046.02784 2.36276
3043.97940 2.36163
3041.93096 2.36450
3039.88252 2.36442
3037.83408 2.35967
3035.78565 2.35719
3033.73721 2.36087
3031.68877 2.36715
3029.64033 2.37121
3027.59189 2.37311
3025.54345 2.37626
3023.49502 2.38135
3021.44658 2.38745
3019.39814 2.39167
3017.34970 2.39111
3015.30126 2.39061
3013.25282 2.39657
3011.20439 2.40673
3009.15595 2.41456
3007.10751 2.41527
3005.05907 2.41177
3003.01063 2.41050
3000.96219 2.41287
2998.91376 2.42068
2996.86532 2.42844
2994.81688 2.43077
2992.76844 2.43212
2990.72000 2.43450
2988.67156 2.44059
2986.62313 2.44973
2984.57469 2.45730
2982.52625 2.46101
2980.47781 2.46080
2978.42937 2.45983
2976.38093 2.45943
2974.33250 2.46094
2972.28406 2.46496
2970.23562 2.46739
2968.18718 2.46911
2966.13874 2.47397
2964.09030 2.47948
2962.04187 2.48633
2959.99343 2.49927
2957.94499 2.51183
2955.89655 2.51419
2953.84811 2.51088
2951.79967 2.51048
2949.75124 2.51455
2947.70280 2.51769
2945.65436 2.51765
2943.60592 2.51572
2941.55748 2.51584
2939.50904 2.52234
2937.46061 2.52407
2935.41217 2.51921
2933.36373 2.52160
2931.31529 2.53168
2929.26685 2.53792
2927.21841 2.53781
2925.16998 2.53862
2923.12154 2.53613
2921.07310 2.53070
2919.02466 2.53066
2916.97622 2.53009
2914.92778 2.52929
2912.87934 2.53937
2910.83091 2.55180
2908.78247 2.55010
2906.73403 2.54364
2904.68559 2.54819
2902.63715 2.55687
2900.58871 2.55703
2898.54028 2.55235
2896.49184 2.55173
2894.44340 2.55615
2892.39496 2.55941
2890.34652 2.55948
2888.29808 2.56237
2886.24965 2.57154
2884.20121 2.57945
2882.15277 2.57888
2880.10433 2.57628
2878.05589 2.57531
2876.00745 2.57455
2873.95902 2.57944
2871.91058 2.59236
2869.86214 2.60557
2867.81370 2.61250
2865.76526 2.61322
2863.71682 2.60924
2861.66839 2.60517
2859.61995 2.60804
2857.57151 2.62031
2855.52307 2.62908
2853.47463 2.62367
2851.42619 2.62065
2849.37776 2.63497
2847.32932 2.65445
2845.28088 2.65981
2843.23244 2.65468
2841.18400 2.65291
2839.13556 2.65898
2837.08713 2.67002
2835.03869 2.67828
2832.99025 2.68385
2830.94181 2.68948
2828.89337 2.69249
2826.84493 2.69428
2824.79650 2.69664
2822.74806 2.69934
2820.69962 2.69915
2818.65118 2.69486
2816.60274 2.69328
2814.55430 2.69580
2812.50587 2.69791
2810.45743 2.69593
2808.40899 2.68994
2806.36055 2.68695
2804.31211 2.69307
2802.26367 2.70836
2800.21524 2.71784
2798.16680 2.71394
2796.11836 2.71627
2794.06992 2.72575
2792.02148 2.72120
2789.97304 2.70718
2787.92461 2.70684
2785.87617 2.71972
2783.82773 2.72692
2781.77929 2.72448
2779.73085 2.72255
2777.68241 2.72104
2775.63397 2.71572
2773.58554 2.71234
2771.53710 2.71436
2769.48866 2.72126
2767.44022 2.72477
2765.39178 2.72046
2763.34334 2.71573
2761.29491 2.71225
2759.24647 2.71503
2757.19803 2.72496
2755.14959 2.72954
2753.10115 2.72452
2751.05271 2.71941
2749.00428 2.72124
2746.95584 2.73011
2744.90740 2.73669
2742.85896 2.73360
2740.81052 2.73510
2738.76208 2.74313
2736.71365 2.74253
2734.66521 2.73235
2732.61677 2.72058
2730.56833 2.71933
2728.51989 2.72852
2726.47145 2.73468
2724.42302 2.73485
2722.37458 2.73029
2720.32614 2.72153
2718.27770 2.71711
2716.22926 2.72072
2714.18082 2.72372
2712.13239 2.72176
2710.08395 2.71580
2708.03551 2.70397
2705.98707 2.69399
2703.93863 2.69379
2701.89019 2.69489
2699.84176 2.69084
2697.79332 2.68636
2695.74488 2.68833
2693.69644 2.69628
2691.64800 2.70159
2689.59956 2.70105
2687.55113 2.69688
2685.50269 2.69196
2683.45425 2.68701
2681.40581 2.68355
2679.35737 2.68754
2677.30893 2.69758
2675.26050 2.70063
2673.21206 2.69315
2671.16362 2.68503
2669.11518 2.67852
2667.06674 2.67711
2665.01830 2.68541
2662.96987 2.69225
2660.92143 2.68599
2658.87299 2.67298
2656.82455 2.66136
2654.77611 2.65077
2652.72767 2.64253
2650.67924 2.63977
2648.63080 2.64302
2646.58236 2.64355
2644.53392 2.63292
2642.48548 2.62231
2640.43704 2.62354
2638.38860 2.62805
2636.34017 2.62191
2634.29173 2.61005
2632.24329 2.60634
2630.19485 2.60685
2628.14641 2.60007
2626.09797 2.59045
2624.04954 2.58624
2622.00110 2.58724
2619.95266 2.58994
2617.90422 2.58931
2615.85578 2.58298
2613.80734 2.57764
2611.75891 2.58148
2609.71047 2.58895
2607.66203 2.59014
2605.61359 2.58727
2603.56515 2.58353
2601.51671 2.58098
2599.46828 2.58356
2597.41984 2.58919
2595.37140 2.59209
2593.32296 2.59087
2591.27452 2.58774
2589.22608 2.58273
2587.17765 2.58073
2585.12921 2.58482
2583.08077 2.58457
2581.03233 2.57838
2578.98389 2.57777
2576.93545 2.57960
2574.88702 2.57607
2572.83858 2.57631
2570.79014 2.58403
2568.74170 2.58817
2566.69326 2.58543
2564.64482 2.58135
2562.59639 2.57580
2560.54795 2.57185
2558.49951 2.57568
2556.45107 2.58386
2554.40263 2.59346
2552.35419 2.60296
2550.30576 2.60728
2548.25732 2.60691
2546.20888 2.60486
2544.16044 2.60476
2542.11200 2.61418
2540.06356 2.62850
2538.01513 2.63455
2535.96669 2.63487
2533.91825 2.63758
2531.86981 2.64335
2529.82137 2.64616
2527.77293 2.64137
2525.72450 2.63595
2523.67606 2.63705
2521.62762 2.64427
2519.57918 2.65420
2517.53074 2.65800
2515.48230 2.65257
2513.43387 2.64926
2511.38543 2.65302
2509.33699 2.65655
2507.28855 2.65439
2505.24011 2.64720
2503.19167 2.63983
2501.14324 2.64275
2499.09480 2.65818
2497.04636 2.66818
2494.99792 2.66242
2492.94948 2.65402
2490.90104 2.65518
2488.85260 2.66421
2486.80417 2.66997
2484.75573 2.66827
2482.70729 2.66596
2480.65885 2.66923
2478.61041 2.68130
2476.56197 2.69431
2474.51354 2.69680
2472.46510 2.69236
2470.41666 2.68976
2468.36822 2.69578
2466.31978 2.70553
2464.27134 2.70699
2462.22291 2.70638
2460.17447 2.71347
2458.12603 2.72319
2456.07759 2.72151
2454.02915 2.70704
2451.98071 2.69771
2449.93228 2.69868
2447.88384 2.70057
2445.83540 2.70296
2443.78696 2.71221
2441.73852 2.72481
2439.69008 2.73050
2437.64165 2.73096
2435.59321 2.73245
2433.54477 2.73196
2431.49633 2.72988
2429.44789 2.73281
2427.39945 2.73962
2425.35102 2.74442
2423.30258 2.74450
2421.25414 2.74815
2419.20570 2.76378
2417.15726 2.77811
2415.10882 2.77614
2413.06039 2.76958
2411.01195 2.77188
2408.96351 2.77090
2406.91507 2.75534
2404.86663 2.73214
2402.81819 2.71415
2400.76976 2.71035
2398.72132 2.71312
2396.67288 2.71230
2394.62444 2.71032
2392.57600 2.71115
2390.52756 2.71103
2388.47913 2.70686
2386.43069 2.70220
2384.38225 2.69027
2382.33381 2.66546
2380.28537 2.64759
2378.23693 2.65638
2376.18850 2.67780
2374.14006 2.67782
2372.09162 2.65201
2370.04318 2.63125
2367.99474 2.64783
2365.94630 2.68372
2363.89787 2.67800
2361.84943 2.65168
2359.80099 2.62722
2357.75255 2.58772
2355.70411 2.58001
2353.65567 2.60491
2351.60723 2.61076
2349.55880 2.59997
2347.51036 2.58679
2345.46192 2.57750
2343.41348 2.58079
2341.36504 2.56751
2339.31660 2.53593
2337.26817 2.51828
2335.21973 2.50378
2333.17129 2.50305
2331.12285 2.52517
2329.07441 2.52749
2327.02597 2.51278
2324.97754 2.50528
2322.92910 2.49419
2320.88066 2.48315
2318.83222 2.48413
2316.78378 2.48698
2314.73534 2.48245
2312.68691 2.47916
2310.63847 2.48079
2308.59003 2.48081
2306.54159 2.47562
2304.49315 2.46979
2302.44471 2.46776
2300.39628 2.46924
2298.34784 2.47206
2296.29940 2.46868
2294.25096 2.45807
2292.20252 2.45032
2290.15408 2.44912
2288.10565 2.44964
2286.05721 2.44741
2284.00877 2.44266
2281.96033 2.43925
2279.91189 2.43651
2277.86345 2.43295
2275.81502 2.42967
2273.76658 2.42508
2271.71814 2.42092
2269.66970 2.41860
2267.62126 2.41661
2265.57282 2.41512
2263.52439 2.41391
2261.47595 2.41250
2259.42751 2.41123
2257.37907 2.41177
2255.33063 2.41318
2253.28219 2.41255
2251.23376 2.41167
2249.18532 2.41106
2247.13688 2.41004
2245.08844 2.41049
2243.04000 2.40831
2240.99156 2.40289
2238.94313 2.40414
2236.89469 2.41386
2234.84625 2.42211
2232.79781 2.42349
2230.74937 2.42180
2228.70093 2.42109
2226.65250 2.42000
2224.60406 2.41692
2222.55562 2.41521
2220.50718 2.41417
2218.45874 2.40949
2216.41030 2.40148
2214.36186 2.39449
2212.31343 2.39194
2210.26499 2.39048
2208.21655 2.38612
2206.16811 2.38026
2204.11967 2.37560
2202.07123 2.37242
2200.02280 2.36949
2197.97436 2.36785
2195.92592 2.36991
2193.87748 2.37337
2191.82904 2.37332
2189.78060 2.37051
2187.73217 2.36957
2185.68373 2.37161
2183.63529 2.37376
2181.58685 2.37465
2179.53841 2.37622
2177.48997 2.38065
2175.44154 2.38515
2173.39310 2.38712
2171.34466 2.38977
2169.29622 2.39521
2167.24778 2.40150
2165.19934 2.40643
2163.15091 2.41326
2161.10247 2.42280
2159.05403 2.42913
2157.00559 2.43185
2154.95715 2.43518
2152.90871 2.44121
2150.86028 2.44669
2148.81184 2.44601
2146.76340 2.44123
2144.71496 2.43482
2142.66652 2.42414
2140.61808 2.41407
2138.56965 2.41031
2136.52121 2.40985
2134.47277 2.41094
2132.42433 2.41185
2130.37589 2.40826
2128.32745 2.40205
2126.27902 2.40005
2124.23058 2.40276
2122.18214 2.40493
2120.13370 2.40655
2118.08526 2.40785
2116.03682 2.40568
2113.98839 2.40564
2111.93995 2.41121
2109.89151 2.41541
2107.84307 2.42155
2105.79463 2.43861
2103.74619 2.46291
2101.69776 2.48781
2099.64932 2.50954
2097.60088 2.52168
2095.55244 2.51617
2093.50400 2.49307
2091.45556 2.47000
2089.40713 2.45894
2087.35869 2.45258
2085.31025 2.44708
2083.26181 2.44644
2081.21337 2.45170
2079.16493 2.46231
2077.11649 2.47236
2075.06806 2.47604
2073.01962 2.48032
2070.97118 2.49092
2068.92274 2.50311
2066.87430 2.51470
2064.82586 2.52502
2062.77743 2.53033
2060.72899 2.53282
2058.68055 2.53819
2056.63211 2.54635
2054.58367 2.55218
2052.53523 2.55256
2050.48680 2.54990
2048.43836 2.54667
2046.38992 2.54268
2044.34148 2.53647
2042.29304 2.52581
2040.24460 2.51212
2038.19617 2.49752
2036.14773 2.48253
2034.09929 2.46783
2032.05085 2.45270
2030.00241 2.43922
2027.95397 2.43018
2025.90554 2.42597
2023.85710 2.42285
2021.80866 2.41375
2019.76022 2.40178
2017.71178 2.39564
2015.66334 2.39579
2013.61491 2.39761
2011.56647 2.39698
2009.51803 2.39159
2007.46959 2.38537
2005.42115 2.38365
2003.37271 2.38221
2001.32428 2.37643
1999.27584 2.36947
1997.22740 2.36433
1995.17896 2.36100
1993.13052 2.35885
1991.08208 2.35802
1989.03365 2.35659
1986.98521 2.35401
1984.93677 2.35128
1982.88833 2.34686
1980.83989 2.34174
1978.79145 2.33824
1976.74302 2.33643
1974.69458 2.33650
1972.64614 2.33670
1970.59770 2.33312
1968.54926 2.32617
1966.50082 2.32033
1964.45239 2.31801
1962.40395 2.31644
1960.35551 2.31301
1958.30707 2.31093
1956.25863 2.31159
1954.21019 2.31073
1952.16176 2.30895
1950.11332 2.30994
1948.06488 2.31198
1946.01644 2.31269
1943.96800 2.31413
1941.91956 2.31954
1939.87112 2.32545
1937.82269 2.33008
1935.77425 2.33654
1933.72581 2.34245
1931.67737 2.34464
1929.62893 2.34450
1927.58049 2.34588
1925.53206 2.35111
1923.48362 2.35917
1921.43518 2.36214
1919.38674 2.35866
1917.33830 2.36176
1915.28986 2.37086
1913.24143 2.37689
1911.19299 2.38148
1909.14455 2.38721
1907.09611 2.39389
1905.04767 2.39945
1902.99923 2.40256
1900.95080 2.40617
1898.90236 2.41170
1896.85392 2.41707
1894.80548 2.42186
1892.75704 2.42397
1890.70860 2.42678
1888.66017 2.43545
1886.61173 2.44274
1884.56329 2.44752
1882.51485 2.45251
1880.46641 2.45370
1878.41797 2.45197
1876.36954 2.45056
1874.32110 2.45001
1872.27266 2.44860
1870.22422 2.44876
1868.17578 2.46093
1866.12734 2.47642
1864.07891 2.48049
1862.03047 2.47874
1859.98203 2.47833
1857.93359 2.48023
1855.88515 2.48297
1853.83671 2.48639
1851.78828 2.48928
1849.73984 2.49173
1847.69140 2.49458
1845.64296 2.49843
1843.59452 2.50745
1841.54608 2.51563
1839.49765 2.51900
1837.44921 2.52288
1835.40077 2.52802
1833.35233 2.53025
1831.30389 2.53053
1829.25545 2.53863
1827.20702 2.55171
1825.15858 2.56154
1823.11014 2.56593
1821.06170 2.56387
1819.01326 2.55999
1816.96482 2.55716
1814.91639 2.55804
1812.86795 2.56485
1810.81951 2.57574
1808.77107 2.58428
1806.72263 2.59077
1804.67419 2.59841
1802.62575 2.60449
1800.57732 2.61225
1798.52888 2.62673
1796.48044 2.64219
1794.43200 2.65247
1792.38356 2.66779
1790.33512 2.69490
1788.28669 2.71215
1786.23825 2.71948
1784.18981 2.72684
1782.14137 2.73427
1780.09293 2.74371
1778.04449 2.75462
1775.99606 2.75805
1773.94762 2.75085
1771.89918 2.74640
1769.85074 2.75828
1767.80230 2.77784
1765.75386 2.79227
1763.70543 2.79560
1761.65699 2.79560
1759.60855 2.79797
1757.56011 2.80872
1755.51167 2.82987
1753.46323 2.84329
1751.41480 2.85024
1749.36636 2.87163
1747.31792 2.90216
1745.26948 2.91861
1743.22104 2.91080
1741.17260 2.89234
1739.12417 2.88541
1737.07573 2.88714
1735.02729 2.89412
1732.97885 2.91250
1730.93041 2.91664
1728.88197 2.90202
1726.83354 2.88545
1724.78510 2.87521
1722.73666 2.87024
1720.68822 2.86986
1718.63978 2.87274
1716.59134 2.87625
1714.54291 2.88849
1712.49447 2.89761
1710.44603 2.89615
1708.39759 2.88992
1706.34915 2.88080
1704.30071 2.87897
1702.25228 2.87556
1700.20384 2.85954
1698.15540 2.86032
1696.10696 2.87980
1694.05852 2.89596
1692.01008 2.90893
1689.96165 2.93130
1687.91321 2.95267
1685.86477 2.95205
1683.81633 2.92050
1681.76789 2.89641
1679.71945 2.90081
1677.67102 2.91389
1675.62258 2.92391
1673.57414 2.93607
1671.52570 2.94689
1669.47726 2.94150
1667.42882 2.93687
1665.38038 2.94607
1663.33195 2.96195
1661.28351 2.96953
1659.23507 2.96779
1657.18663 2.97835
1655.13819 3.01016
1653.08975 3.03723
1651.04132 2.99828
1648.99288 2.96418
1646.94444 2.96252
1644.89600 2.97723
1642.84756 2.97638
1640.79912 2.96864
1638.75069 2.95505
1636.70225 2.94833
1634.65381 2.96893
1632.60537 2.97881
1630.55693 2.97871
1628.50849 2.97797
1626.46006 2.96637
1624.41162 2.96263
1622.36318 2.99065
1620.31474 3.01520
1618.26630 3.02102
1616.21786 3.03078
1614.16943 3.03469
1612.12099 3.02690
1610.07255 3.02318
1608.02411 3.03594
1605.97567 3.05666
1603.92723 3.06308
1601.87880 3.05418
1599.83036 3.05150
1597.78192 3.06110
1595.73348 3.06551
1593.68504 3.07112
1591.63660 3.10010
1589.58817 3.12505
1587.53973 3.12092
1585.49129 3.11072
1583.44285 3.10012
1581.39441 3.08911
1579.34597 3.09215
1577.29754 3.11083
1575.24910 3.12616
1573.20066 3.12864
1571.15222 3.13167
1569.10378 3.14455
1567.05534 3.15508
1565.00691 3.16394
1562.95847 3.17995
1560.91003 3.17901
1558.86159 3.16430
1556.81315 3.19925
1554.76471 3.24214
1552.71628 3.26697
1550.66784 3.27014
1548.61940 3.26703
1546.57096 3.26089
1544.52252 3.25688
1542.47408 3.30598
1540.42565 3.45807
1538.37721 3.47990
1536.32877 3.40147
1534.28033 3.35872
1532.23189 3.34232
1530.18345 3.31690
1528.13501 3.30174
1526.08658 3.34028
1524.03814 3.40813
1521.98970 3.42246
1519.94126 3.37931
1517.89282 3.31570
1515.84438 3.22611
1513.79595 3.16283
1511.74751 3.14715
1509.69907 3.15825
1507.65063 3.13354
1505.60219 3.03756
1503.55375 2.97483
1501.50532 2.92307
1499.45688 2.86076
1497.40844 2.78920
1495.36000 2.72685
1493.31156 2.68682
1491.26312 2.65108
1489.21469 2.60648
1487.16625 2.56825
1485.11781 2.54002
1483.06937 2.51350
1481.02093 2.48583
1478.97249 2.46238
1476.92406 2.44310
1474.87562 2.42159
1472.82718 2.40100
1470.77874 2.39005
1468.73030 2.38192
1466.68186 2.37099
1464.63343 2.35799
1462.58499 2.34775
1460.53655 2.34051
1458.48811 2.33077
1456.43967 2.32047
1454.39123 2.31574
1452.34280 2.31065
1450.29436 2.30407
1448.24592 2.29777
1446.19748 2.29413
1444.14904 2.29149
1442.10060 2.28909
1440.05217 2.28737
1438.00373 2.28659
1435.95529 2.29135
1433.90685 2.30010
1431.85841 2.30817
1429.80997 2.31603
1427.76154 2.32107
1425.71310 2.32298
1423.66466 2.32380
1421.61622 2.32212
1419.56778 2.31636
1417.51934 2.30976
1415.47091 2.30455
1413.42247 2.29693
1411.37403 2.28561
1409.32559 2.27200
1407.27715 2.25687
1405.22871 2.24133
1403.18028 2.22900
1401.13184 2.22010
1399.08340 2.21121
1397.03496 2.20109
1394.98652 2.19648
1392.93808 2.20112
1390.88965 2.20678
1388.84121 2.20996
1386.79277 2.21318
1384.74433 2.21963
1382.69589 2.22962
1380.64745 2.24187
1378.59901 2.25605
1376.55058 2.27248
1374.50214 2.28975
1372.45370 2.30541
1370.40526 2.31944
1368.35682 2.33466
1366.30838 2.35060
1364.25995 2.36576
1362.21151 2.38176
1360.16307 2.39598
1358.11463 2.40542
1356.06619 2.41304
1354.01775 2.42368
1351.96932 2.43706
1349.92088 2.44967
1347.87244 2.45732
1345.82400 2.46037
1343.77556 2.46580
1341.72712 2.47571
1339.67869 2.48573
1337.63025 2.49211
1335.58181 2.49653
1333.53337 2.49911
1331.48493 2.50113
1329.43649 2.50726
1327.38806 2.51286
1325.33962 2.51448
1323.29118 2.51727
1321.24274 2.52072
1319.19430 2.52380
1317.14586 2.52520
1315.09743 2.52162
1313.04899 2.52020
1311.00055 2.52861
1308.95211 2.53903
1306.90367 2.54362
1304.85523 2.54482
1302.80680 2.54574
1300.75836 2.54825
1298.70992 2.55102
1296.66148 2.55040
1294.61304 2.54619
1292.56460 2.54364
1290.51617 2.54567
1288.46773 2.54873
1286.41929 2.54900
1284.37085 2.54869
1282.32241 2.55268
1280.27397 2.55723
1278.22554 2.55931
1276.17710 2.56371
1274.12866 2.56865
1272.08022 2.56870
1270.03178 2.56603
1267.98334 2.56328
1265.93491 2.56255
1263.88647 2.56686
1261.83803 2.57096
1259.78959 2.56971
1257.74115 2.56708
1255.69271 2.56692
1253.64428 2.56604
1251.59584 2.56246
1249.54740 2.56093
1247.49896 2.56284
1245.45052 2.56534
1243.40208 2.56941
1241.35364 2.57568
1239.30521 2.57813
1237.25677 2.57631
1235.20833 2.57710
1233.15989 2.57977
1231.11145 2.58051
1229.06301 2.58033
1227.01458 2.57919
1224.96614 2.58022
1222.91770 2.58629
1220.86926 2.59083
1218.82082 2.59127
1216.77238 2.59172
1214.72395 2.59161
1212.67551 2.58945
1210.62707 2.58928
1208.57863 2.59287
1206.53019 2.59661
1204.48175 2.59842
1202.43332 2.59933
1200.38488 2.60134
1198.33644 2.60513
1196.28800 2.60886
1194.23956 2.60850
1192.19112 2.60433
1190.14269 2.60287
1188.09425 2.60633
1186.04581 2.60976
1183.99737 2.61261
1181.94893 2.61847
1179.90049 2.62485
1177.85206 2.62822
1175.80362 2.62701
1173.75518 2.62396
1171.70674 2.62536
1169.65830 2.62638
1167.60986 2.62265
1165.56143 2.62218
1163.51299 2.62659
1161.46455 2.62967
1159.41611 2.63072
1157.36767 2.63397
1155.31923 2.63950
1153.27080 2.64236
1151.22236 2.64166
1149.17392 2.63903
1147.12548 2.63622
1145.07704 2.63965
1143.02860 2.64685
1140.98017 2.64512
1138.93173 2.63768
1136.88329 2.63632
1134.83485 2.64135
1132.78641 2.64491
1130.73797 2.64336
1128.68954 2.64116
1126.64110 2.63835
1124.59266 2.63771
1122.54422 2.64473
1120.49578 2.65163
1118.44734 2.65279
1116.39891 2.65537
1114.35047 2.65991
1112.30203 2.66002
1110.25359 2.65713
1108.20515 2.65685
1106.15671 2.65689
1104.10827 2.65242
1102.05984 2.65028
1100.01140 2.65561
1097.96296 2.66288
1095.91452 2.66488
1093.86608 2.66140
1091.81764 2.66012
1089.76921 2.65875
1087.72077 2.65132
1085.67233 2.64570
1083.62389 2.64742
1081.57545 2.64953
1079.52701 2.65242
1077.47858 2.65957
1075.43014 2.66483
1073.38170 2.66841
1071.33326 2.67450
1069.28482 2.67974
1067.23638 2.67854
1065.18795 2.67677
1063.13951 2.68067
1061.09107 2.68386
1059.04263 2.68775
1056.99419 2.69824
1054.94575 2.69203
1052.89732 2.64635
1050.84888 2.60539
1048.80044 2.60853
1046.75200 2.63457
1044.70356 2.65030
1042.65512 2.65109
1040.60669 2.65112
1038.55825 2.65739
1036.50981 2.66013
1034.46137 2.65746
1032.41293 2.65992
1030.36449 2.66793
1028.31606 2.66815
1026.26762 2.65934
1024.21918 2.65458
1022.17074 2.65594
1020.12230 2.65778
1018.07386 2.65972
1016.02543 2.66673
1013.97699 2.67587
1011.92855 2.67393
1009.88011 2.66346
1007.83167 2.66614
1005.78323 2.68546
1003.73480 2.70012
1001.68636 2.70078
999.63792 2.69275
997.58948 2.68521
995.54104 2.68537
993.49260 2.68798
991.44417 2.68816
989.39573 2.68619
987.34729 2.68466
985.29885 2.68597
983.25041 2.68909
981.20197 2.69512
979.15354 2.70308
977.10510 2.70636
975.05666 2.70727
973.00822 2.71066
970.95978 2.70677
968.91134 2.69132
966.86290 2.68384
964.81447 2.69675
962.76603 2.70840
960.71759 2.70199
958.66915 2.69327
956.62071 2.69574
954.57227 2.70890
952.52384 2.72276
950.47540 2.72604
948.42696 2.72182
946.37852 2.72029
944.33008 2.72254
942.28164 2.72944
940.23321 2.73979
938.18477 2.74535
936.13633 2.74979
934.08789 2.75720
932.03945 2.75912
929.99101 2.75360
927.94258 2.75093
925.89414 2.75580
923.84570 2.76068
921.79726 2.76095
919.74882 2.76177
917.70038 2.76322
915.65195 2.76052
913.60351 2.76042
911.55507 2.76830
909.50663 2.77631
907.45819 2.77233
905.40975 2.76197
903.36132 2.76588
901.31288 2.77475
899.26444 2.76939
897.21600 2.76689
895.16756 2.78113
893.11912 2.79313
891.07069 2.78654
889.02225 2.77831
886.97381 2.78462
884.92537 2.80105
882.87693 2.81992
880.82849 2.83021
878.78006 2.82444
876.73162 2.81078
874.68318 2.80432
872.63474 2.81338
870.58630 2.82578
868.53786 2.83285
866.48943 2.84925
864.44099 2.86914
862.39255 2.86372
860.34411 2.84031
858.29567 2.83327
856.24723 2.85523
854.19880 2.89833
852.15036 2.94557
850.10192 2.96277
848.05348 2.90822
846.00504 2.76726
843.95660 2.60161
841.90817 2.48525
839.85973 2.43846
837.81129 2.44923
835.76285 2.49621
833.71441 2.56037
831.66597 2.62060
829.61753 2.66237
827.56910 2.70476
825.52066 2.74457
823.47222 2.75142
821.42378 2.73664
819.37534 2.73330
817.32690 2.75435
815.27847 2.76863
813.23003 2.75593
811.18159 2.75246
809.13315 2.78081
807.08471 2.80847
805.03627 2.80793
802.98784 2.80853
800.93940 2.82113
798.89096 2.82504
796.84252 2.81998
794.79408 2.83277
792.74564 2.85196
790.69721 2.83319
788.64877 2.80671
786.60033 2.80594
784.55189 2.81638
782.50345 2.82442
780.45501 2.82167
778.40658 2.82024
776.35814 2.84347
774.30970 2.87584
772.26126 2.88483
770.21282 2.89239
768.16438 2.90031
766.11595 2.87631
764.06751 2.84642
762.01907 2.83177
759.97063 2.83843
757.92219 2.86783
755.87375 2.92541
753.82532 3.01769
751.77688 3.02578
749.72844 2.91737
747.68000 2.83807
745.63156 2.82293
743.58312 2.84568
741.53469 2.88631
739.48625 2.94393
737.43781 2.98803
735.38937 2.97709
733.34093 2.95278
731.29249 2.94765
729.24406 2.94373
727.19562 2.95953
725.14718 2.98663
723.09874 2.96004
721.05030 2.93226
719.00186 2.97242
716.95343 3.00383
714.90499 2.94303
712.85655 2.87848
710.80811 2.87434
708.75967 2.90000
706.71123 2.91503
704.66280 2.94903
702.61436 2.99446
700.56592 2.96848
698.51748 2.96128
696.46904 3.01664
694.42060 2.99462
692.37216 2.90775
690.32373 2.89235
688.27529 2.99311
686.22685 3.11664
684.17841 3.09875
682.12997 2.89755
680.08153 2.62499
678.03310 2.45703
675.98466 2.45008
673.93622 2.56137
671.88778 2.67846
669.83934 2.74872
667.79090 2.85719
665.74247 2.94947
663.69403 2.92413
661.64559 2.87696
659.59715 2.86960
657.54871 2.86197
655.50027 2.78866
653.45184 2.69786
651.40340 2.68433
649.35496 2.73207
647.30652 2.80052
645.25808 2.91522
643.20964 2.94925
641.16121 2.90226
639.11277 3.05110
637.06433 3.52235
635.01589 4.44209
632.96745 4.33410
630.91901 3.44713
628.87058 3.14021
626.82214 2.99967
624.77370 2.79705
622.72526 2.62870
620.67682 2.58575
618.62838 2.71500
616.57995 2.96014
614.53151 2.86598
612.48307 2.80203
610.43463 3.07428
608.38619 3.04093
606.33775 2.62352
604.28932 2.50085
602.24088 2.65802
600.19244 2.73804
598.14400 2.46388
