3996.50324 1.22643
3994.45480 1.22658
3992.40636 1.22720
3990.35792 1.22783
3988.30948 1.22794
3986.26104 1.22763
3984.21261 1.22735
3982.16417 1.22721
3980.11573 1.22733
3978.06729 1.22729
3976.01885 1.22667
3973.97041 1.22594
3971.92198 1.22544
3969.87354 1.22558
3967.82510 1.22651
3965.77666 1.22730
3963.72822 1.22713
3961.67978 1.22618
3959.63135 1.22526
3957.58291 1.22521
3955.53447 1.22567
3953.48603 1.22572
3951.43759 1.22535
3949.38915 1.22534
3947.34072 1.22576
3945.29228 1.22545
3943.24384 1.22566
3941.19540 1.22716
3939.14696 1.22791
3937.09852 1.22738
3935.05009 1.22608
3933.00165 1.22566
3930.95321 1.22714
3928.90477 1.22796
3926.85633 1.22730
3924.80789 1.22720
3922.75946 1.22728
3920.71102 1.22662
3918.66258 1.22698
3916.61414 1.22884
3914.56570 1.22997
3912.51726 1.22962
3910.46883 1.22898
3908.42039 1.22802
3906.37195 1.22640
3904.32351 1.22580
3902.27507 1.22690
3900.22663 1.22854
3898.17820 1.23052
3896.12976 1.23060
3894.08132 1.22845
3892.03288 1.22784
3889.98444 1.22939
3887.93600 1.22904
3885.88756 1.22942
3883.83913 1.23170
3881.79069 1.23240
3879.74225 1.23370
3877.69381 1.23390
3875.64537 1.23183
3873.59693 1.23038
3871.54850 1.23034
3869.50006 1.23199
3867.45162 1.23278
3865.40318 1.23198
3863.35474 1.23315
3861.30630 1.23495
3859.25787 1.23444
3857.20943 1.23177
3855.16099 1.22868
3853.11255 1.23156
3851.06411 1.23703
3849.01567 1.23745
3846.96724 1.23570
3844.91880 1.23373
3842.87036 1.23262
3840.82192 1.23210
3838.77348 1.23246
3836.72504 1.23378
3834.67661 1.23391
3832.62817 1.23418
3830.57973 1.23536
3828.53129 1.23561
3826.48285 1.23525
3824.43441 1.23426
3822.38598 1.23322
3820.33754 1.23518
3818.28910 1.23651
3816.24066 1.23709
3814.19222 1.23864
3812.14378 1.23845
3810.09535 1.23678
3808.04691 1.23574
3805.99847 1.23619
3803.95003 1.23537
3801.90159 1.23580
3799.85315 1.23869
3797.80472 1.23915
3795.75628 1.23943
3793.70784 1.24062
3791.65940 1.24133
3789.61096 1.24107
3787.56252 1.23976
3785.51409 1.23881
3783.46565 1.23913
3781.41721 1.23949
3779.36877 1.24018
3777.32033 1.24122
3775.27189 1.24122
3773.22346 1.24005
3771.17502 1.23884
3769.12658 1.23924
3767.07814 1.24013
3765.02970 1.24063
3762.98126 1.24031
3760.93283 1.23914
3758.88439 1.23911
3756.83595 1.23959
3754.78751 1.23771
3752.73907 1.23372
3750.69063 1.23280
3748.64219 1.23532
3746.59376 1.23489
3744.54532 1.23483
3742.49688 1.23670
3740.44844 1.23663
3738.40000 1.23495
3736.35156 1.23365
3734.30313 1.23557
3732.25469 1.23853
3730.20625 1.23864
3728.15781 1.23676
3726.10937 1.23541
3724.06093 1.23598
3722.01250 1.23732
3719.96406 1.23809
3717.91562 1.23765
3715.86718 1.23604
3713.81874 1.23362
3711.77030 1.23347
3709.72187 1.23777
3707.67343 1.24073
3705.62499 1.24093
3703.57655 1.24025
3701.52811 1.24080
3699.47967 1.24240
3697.43124 1.24354
3695.38280 1.24377
3693.33436 1.24239
3691.28592 1.24001
3689.23748 1.24023
3687.18904 1.24297
3685.14061 1.24388
3683.09217 1.24312
3681.04373 1.24175
3678.99529 1.23983
3676.94685 1.23815
3674.89841 1.23968
3672.84998 1.24034
3670.80154 1.24000
3668.75310 1.24284
3666.70466 1.24456
3664.65622 1.24363
3662.60778 1.24217
3660.55935 1.24100
3658.51091 1.23970
3656.46247 1.23960
3654.41403 1.24036
3652.36559 1.23901
3650.31715 1.23718
3648.26872 1.23918
3646.22028 1.24139
3644.17184 1.24093
3642.12340 1.23977
3640.07496 1.23919
3638.02652 1.23872
3635.97809 1.23795
3633.92965 1.23683
3631.88121 1.23429
3629.83277 1.23209
3627.78433 1.23566
3625.73589 1.23918
3623.68746 1.23971
3621.63902 1.23945
3619.59058 1.24001
3617.54214 1.24137
3615.49370 1.24070
3613.44526 1.23891
3611.39682 1.23769
3609.34839 1.23727
3607.29995 1.23818
3605.25151 1.23846
3603.20307 1.23708
3601.15463 1.23605
3599.10619 1.23623
3597.05776 1.23651
3595.00932 1.23704
3592.96088 1.23764
3590.91244 1.23641
3588.86400 1.23425
3586.81556 1.23555
3584.76713 1.23859
3582.71869 1.23938
3580.67025 1.23903
3578.62181 1.23869
3576.57337 1.23870
3574.52493 1.23885
3572.47650 1.23856
3570.42806 1.23726
3568.37962 1.23588
3566.33118 1.23745
3564.28274 1.23957
3562.23430 1.23964
3560.18587 1.23987
3558.13743 1.24083
3556.08899 1.24107
3554.04055 1.24041
3551.99211 1.24040
3549.94367 1.24038
3547.89524 1.23942
3545.84680 1.23961
3543.79836 1.24105
3541.74992 1.24171
3539.70148 1.24178
3537.65304 1.24209
3535.60461 1.24261
3533.55617 1.24250
3531.50773 1.24133
3529.45929 1.24010
3527.41085 1.24030
3525.36241 1.24128
3523.31398 1.24217
3521.26554 1.24319
3519.21710 1.24398
3517.16866 1.24416
3515.12022 1.24417
3513.07178 1.24436
3511.02335 1.24446
3508.97491 1.24415
3506.92647 1.24336
3504.87803 1.24281
3502.82959 1.24348
3500.78115 1.24461
3498.73272 1.24515
3496.68428 1.24543
3494.63584 1.24536
3492.58740 1.24490
3490.53896 1.24511
3488.49052 1.24602
3486.44209 1.24625
3484.39365 1.24555
3482.34521 1.24527
3480.29677 1.24600
3478.24833 1.24662
3476.19989 1.24662
3474.15146 1.24637
3472.10302 1.24634
3470.05458 1.24674
3468.00614 1.24745
3465.95770 1.24811
3463.90926 1.24829
3461.86082 1.24832
3459.81239 1.24846
3457.76395 1.24857
3455.71551 1.24913
3453.66707 1.24994
3451.61863 1.25028
3449.57019 1.24995
3447.52176 1.24956
3445.47332 1.24967
3443.42488 1.24980
3441.37644 1.24985
3439.32800 1.24976
3437.27956 1.24943
3435.23113 1.24921
3433.18269 1.24892
3431.13425 1.24844
3429.08581 1.24802
3427.03737 1.24786
3424.98893 1.24767
3422.94050 1.24720
3420.89206 1.24701
3418.84362 1.24731
3416.79518 1.24774
3414.74674 1.24805
3412.69830 1.24820
3410.64987 1.24828
3408.60143 1.24814
3406.55299 1.24779
3404.50455 1.24768
3402.45611 1.24813
3400.40767 1.24886
3398.35924 1.24884
3396.31080 1.24800
3394.26236 1.24766
3392.21392 1.24808
3390.16548 1.24836
3388.11704 1.24798
3386.06861 1.24732
3384.02017 1.24722
3381.97173 1.24754
3379.92329 1.24750
3377.87485 1.24730
3375.82641 1.24740
3373.77798 1.24774
3371.72954 1.24798
3369.68110 1.24786
3367.63266 1.24761
3365.58422 1.24728
3363.53578 1.24696
3361.48735 1.24722
3359.43891 1.24778
3357.39047 1.24782
3355.34203 1.24747
3353.29359 1.24732
3351.24515 1.24742
3349.19672 1.24736
3347.14828 1.24692
3345.09984 1.24666
3343.05140 1.24700
3341.00296 1.24726
3338.95452 1.24713
3336.90609 1.24699
3334.85765 1.24686
3332.80921 1.24675
3330.76077 1.24685
3328.71233 1.24696
3326.66389 1.24714
3324.61545 1.24733
3322.56702 1.24735
3320.51858 1.24765
3318.47014 1.24815
3316.42170 1.24808
3314.37326 1.24768
3312.32482 1.24736
3310.27639 1.24724
3308.22795 1.24749
3306.17951 1.24763
3304.13107 1.24749
3302.08263 1.24749
3300.03419 1.24756
3297.98576 1.24732
3295.93732 1.24691
3293.88888 1.24700
3291.84044 1.24752
3289.79200 1.24768
3287.74356 1.24753
3285.69513 1.24735
3283.64669 1.24728
3281.59825 1.24747
3279.54981 1.24768
3277.50137 1.24789
3275.45293 1.24825
3273.40450 1.24864
3271.35606 1.24878
3269.30762 1.24871
3267.25918 1.24854
3265.21074 1.24788
3263.16230 1.24728
3261.11387 1.24759
3259.06543 1.24843
3257.01699 1.24891
3254.96855 1.24894
3252.92011 1.24903
3250.87167 1.24929
3248.82324 1.24932
3246.77480 1.24920
3244.72636 1.24949
3242.67792 1.24993
3240.62948 1.24988
3238.58104 1.24948
3236.53261 1.24904
3234.48417 1.24877
3232.43573 1.24914
3230.38729 1.25001
3228.33885 1.25068
3226.29041 1.25073
3224.24198 1.25017
3222.19354 1.24977
3220.14510 1.25017
3218.09666 1.25060
3216.04822 1.25047
3213.99978 1.25047
3211.95135 1.25083
3209.90291 1.25121
3207.85447 1.25141
3205.80603 1.25128
3203.75759 1.25136
3201.70915 1.25156
3199.66072 1.25149
3197.61228 1.25145
3195.56384 1.25144
3193.51540 1.25130
3191.46696 1.25107
3189.41852 1.25095
3187.37008 1.25110
3185.32165 1.25131
3183.27321 1.25118
3181.22477 1.25106
3179.17633 1.25134
3177.12789 1.25149
3175.07945 1.25139
3173.03102 1.25155
3170.98258 1.25175
3168.93414 1.25180
3166.88570 1.25179
3164.83726 1.25159
3162.78882 1.25159
3160.74039 1.25222
3158.69195 1.25308
3156.64351 1.25351
3154.59507 1.25328
3152.54663 1.25279
3150.49819 1.25278
3148.44976 1.25327
3146.40132 1.25358
3144.35288 1.25363
3142.30444 1.25365
3140.25600 1.25361
3138.20756 1.25330
3136.15913 1.25274
3134.11069 1.25260
3132.06225 1.25288
3130.01381 1.25287
3127.96537 1.25299
3125.91693 1.25360
3123.86850 1.25403
3121.82006 1.25433
3119.77162 1.25479
3117.72318 1.25490
3115.67474 1.25452
3113.62630 1.25418
3111.57787 1.25421
3109.52943 1.25454
3107.48099 1.25518
3105.43255 1.25589
3103.38411 1.25624
3101.33567 1.25628
3099.28724 1.25627
3097.23880 1.25634
3095.19036 1.25659
3093.14192 1.25697
3091.09348 1.25727
3089.04504 1.25720
3086.99661 1.25699
3084.94817 1.25731
3082.89973 1.25776
3080.85129 1.25783
3078.80285 1.25799
3076.75441 1.25830
3074.70598 1.25845
3072.65754 1.25854
3070.60910 1.25847
3068.56066 1.25812
3066.51222 1.25754
3064.46378 1.25706
3062.41535 1.25708
3060.36691 1.25742
3058.31847 1.25761
3056.27003 1.25750
3054.22159 1.25717
3052.17315 1.25661
3050.12471 1.25617
3048.07628 1.25644
3046.02784 1.25685
3043.97940 1.25666
3041.93096 1.25635
3039.88252 1.25625
3037.83408 1.25633
3035.78565 1.25650
3033.73721 1.25644
3031.68877 1.25633
3029.64033 1.25657
3027.59189 1.25697
3025.54345 1.25726
3023.49502 1.25730
3021.44658 1.25723
3019.39814 1.25731
3017.34970 1.25747
3015.30126 1.25763
3013.25282 1.25786
3011.20439 1.25802
3009.15595 1.25816
3007.10751 1.25867
3005.05907 1.25952
3003.01063 1.26004
3000.96219 1.26038
2998.91376 1.26077
2996.86532 1.26090
2994.81688 1.26087
2992.76844 1.26082
2990.72000 1.26078
2988.67156 1.26096
2986.62313 1.26145
2984.57469 1.26192
2982.52625 1.26211
2980.47781 1.26219
2978.42937 1.26237
2976.38093 1.26250
2974.33250 1.26238
2972.28406 1.26218
2970.23562 1.26237
2968.18718 1.26294
2966.13874 1.26321
2964.09030 1.26297
2962.04187 1.26281
2959.99343 1.26310
2957.94499 1.26354
2955.89655 1.26379
2953.84811 1.26365
2951.79967 1.26344
2949.75124 1.26369
2947.70280 1.26414
2945.65436 1.26434
2943.60592 1.26443
2941.55748 1.26456
2939.50904 1.26472
2937.46061 1.26494
2935.41217 1.26504
2933.36373 1.26486
2931.31529 1.26486
2929.26685 1.26511
2927.21841 1.26516
2925.16998 1.26504
2923.12154 1.26516
2921.07310 1.26555
2919.02466 1.26566
2916.97622 1.26557
2914.92778 1.26582
2912.87934 1.26621
2910.83091 1.26658
2908.78247 1.26695
2906.73403 1.26719
2904.68559 1.26724
2902.63715 1.26714
2900.58871 1.26715
2898.54028 1.26741
2896.49184 1.26771
2894.44340 1.26799
2892.39496 1.26830
2890.34652 1.26869
2888.29808 1.26910
2886.24965 1.26943
2884.20121 1.26955
2882.15277 1.26930
2880.10433 1.26893
2878.05589 1.26885
2876.00745 1.26895
2873.95902 1.26884
2871.91058 1.26879
2869.86214 1.26903
2867.81370 1.26926
2865.76526 1.26948
2863.71682 1.26980
2861.66839 1.27012
2859.61995 1.27037
2857.57151 1.27060
2855.52307 1.27075
2853.47463 1.27064
2851.42619 1.27048
2849.37776 1.27059
2847.32932 1.27087
2845.28088 1.27141
2843.23244 1.27198
2841.18400 1.27175
2839.13556 1.27110
2837.08713 1.27121
2835.03869 1.27165
2832.99025 1.27182
2830.94181 1.27226
2828.89337 1.27270
2826.84493 1.27251
2824.79650 1.27231
2822.74806 1.27241
2820.69962 1.27233
2818.65118 1.27242
2816.60274 1.27276
2814.55430 1.27268
2812.50587 1.27226
2810.45743 1.27196
2808.40899 1.27200
2806.36055 1.27216
2804.31211 1.27204
2802.26367 1.27186
2800.21524 1.27177
2798.16680 1.27171
2796.11836 1.27168
2794.06992 1.27167
2792.02148 1.27182
2789.97304 1.27190
2787.92461 1.27199
2785.87617 1.27235
2783.82773 1.27269
2781.77929 1.27282
2779.73085 1.27311
2777.68241 1.27345
2775.63397 1.27343
2773.58554 1.27324
2771.53710 1.27302
2769.48866 1.27279
2767.44022 1.27288
2765.39178 1.27321
2763.34334 1.27369
2761.29491 1.27428
2759.24647 1.27470
2757.19803 1.27465
2755.14959 1.27429
2753.10115 1.27397
2751.05271 1.27357
2749.00428 1.27302
2746.95584 1.27295
2744.90740 1.27346
2742.85896 1.27370
2740.81052 1.27323
2738.76208 1.27267
2736.71365 1.27267
2734.66521 1.27287
2732.61677 1.27274
2730.56833 1.27239
2728.51989 1.27193
2726.47145 1.27157
2724.42302 1.27164
2722.37458 1.27206
2720.32614 1.27271
2718.27770 1.27336
2716.22926 1.27338
2714.18082 1.27296
2712.13239 1.27289
2710.08395 1.27321
2708.03551 1.27332
2705.98707 1.27315
2703.93863 1.27324
2701.89019 1.27382
2699.84176 1.27443
2697.79332 1.27471
2695.74488 1.27489
2693.69644 1.27512
2691.64800 1.27534
2689.59956 1.27552
2687.55113 1.27562
2685.50269 1.27573
2683.45425 1.27588
2681.40581 1.27601
2679.35737 1.27604
2677.30893 1.27596
2675.26050 1.27575
2673.21206 1.27564
2671.16362 1.27604
2669.11518 1.27676
2667.06674 1.27710
2665.01830 1.27689
2662.96987 1.27645
2660.92143 1.27608
2658.87299 1.27593
2656.82455 1.27604
2654.77611 1.27633
2652.72767 1.27645
2650.67924 1.27653
2648.63080 1.27685
2646.58236 1.27711
2644.53392 1.27711
2642.48548 1.27700
2640.43704 1.27688
2638.38860 1.27701
2636.34017 1.27739
2634.29173 1.27761
2632.24329 1.27769
2630.19485 1.27789
2628.14641 1.27792
2626.09797 1.27771
2624.04954 1.27775
2622.00110 1.27805
2619.95266 1.27830
2617.90422 1.27855
2615.85578 1.27863
2613.80734 1.27842
2611.75891 1.27826
2609.71047 1.27845
2607.66203 1.27866
2605.61359 1.27858
2603.56515 1.27885
2601.51671 1.27956
2599.46828 1.27993
2597.41984 1.27987
2595.37140 1.27977
2593.32296 1.27973
2591.27452 1.27961
2589.22608 1.27959
2587.17765 1.27989
2585.12921 1.28027
2583.08077 1.28041
2581.03233 1.28009
2578.98389 1.27975
2576.93545 1.28004
2574.88702 1.28069
2572.83858 1.28120
2570.79014 1.28139
2568.74170 1.28121
2566.69326 1.28118
2564.64482 1.28145
2562.59639 1.28165
2560.54795 1.28190
2558.49951 1.28231
2556.45107 1.28263
2554.40263 1.28303
2552.35419 1.28363
2550.30576 1.28400
2548.25732 1.28419
2546.20888 1.28445
2544.16044 1.28472
2542.11200 1.28506
2540.06356 1.28540
2538.01513 1.28544
2535.96669 1.28524
2533.91825 1.28519
2531.86981 1.28537
2529.82137 1.28563
2527.77293 1.28596
2525.72450 1.28619
2523.67606 1.28618
2521.62762 1.28607
2519.57918 1.28598
2517.53074 1.28589
2515.48230 1.28584
2513.43387 1.28591
2511.38543 1.28612
2509.33699 1.28611
2507.28855 1.28592
2505.24011 1.28602
2503.19167 1.28622
2501.14324 1.28643
2499.09480 1.28670
2497.04636 1.28669
2494.99792 1.28650
2492.94948 1.28644
2490.90104 1.28674
2488.85260 1.28765
2486.80417 1.28851
2484.75573 1.28856
2482.70729 1.28832
2480.65885 1.28838
2478.61041 1.28867
2476.56197 1.28892
2474.51354 1.28897
2472.46510 1.28899
2470.41666 1.28932
2468.36822 1.28982
2466.31978 1.28992
2464.27134 1.28986
2462.22291 1.29022
2460.17447 1.29073
2458.12603 1.29079
2456.07759 1.29069
2454.02915 1.29080
2451.98071 1.29098
2449.93228 1.29129
2447.88384 1.29163
2445.83540 1.29167
2443.78696 1.29149
2441.73852 1.29153
2439.69008 1.29195
2437.64165 1.29247
2435.59321 1.29300
2433.54477 1.29359
2431.49633 1.29395
2429.44789 1.29378
2427.39945 1.29359
2425.35102 1.29390
2423.30258 1.29401
2421.25414 1.29348
2419.20570 1.29288
2417.15726 1.29239
2415.10882 1.29156
2413.06039 1.29008
2411.01195 1.28834
2408.96351 1.28701
2406.91507 1.28610
2404.86663 1.28543
2402.81819 1.28503
2400.76976 1.28498
2398.72132 1.28534
2396.67288 1.28564
2394.62444 1.28565
2392.57600 1.28573
2390.52756 1.28604
2388.47913 1.28653
2386.43069 1.28715
2384.38225 1.28781
2382.33381 1.28840
2380.28537 1.28882
2378.23693 1.28924
2376.18850 1.29014
2374.14006 1.29131
2372.09162 1.29212
2370.04318 1.29296
2367.99474 1.29418
2365.94630 1.29425
2363.89787 1.29222
2361.84943 1.29070
2359.80099 1.29129
2357.75255 1.29133
2355.70411 1.29028
2353.65567 1.29070
2351.60723 1.29217
2349.55880 1.29279
2347.51036 1.29331
2345.46192 1.29431
2343.41348 1.29344
2341.36504 1.29146
2339.31660 1.29255
2337.26817 1.29465
2335.21973 1.29393
2333.17129 1.29285
2331.12285 1.29447
2329.07441 1.29621
2327.02597 1.29616
2324.97754 1.29623
2322.92910 1.29717
2320.88066 1.29767
2318.83222 1.29753
2316.78378 1.29755
2314.73534 1.29761
2312.68691 1.29735
2310.63847 1.29698
2308.59003 1.29655
2306.54159 1.29600
2304.49315 1.29577
2302.44471 1.29572
2300.39628 1.29527
2298.34784 1.29460
2296.29940 1.29413
2294.25096 1.29389
2292.20252 1.29387
2290.15408 1.29388
2288.10565 1.29395
2286.05721 1.29403
2284.00877 1.29383
2281.96033 1.29361
2279.91189 1.29374
2277.86345 1.29400
2275.81502 1.29406
2273.76658 1.29382
2271.71814 1.29357
2269.66970 1.29381
2267.62126 1.29424
2265.57282 1.29444
2263.52439 1.29470
2261.47595 1.29523
2259.42751 1.29591
2257.37907 1.29642
2255.33063 1.29649
2253.28219 1.29630
2251.23376 1.29621
2249.18532 1.29622
2247.13688 1.29630
2245.08844 1.29660
2243.04000 1.29703
2240.99156 1.29745
2238.94313 1.29793
2236.89469 1.29829
2234.84625 1.29831
2232.79781 1.29830
2230.74937 1.29850
2228.70093 1.29870
2226.65250 1.29871
2224.60406 1.29861
2222.55562 1.29864
2220.50718 1.29867
2218.45874 1.29872
2216.41030 1.29893
2214.36186 1.29886
2212.31343 1.29829
2210.26499 1.29789
2208.21655 1.29822
2206.16811 1.29888
2204.11967 1.29906
2202.07123 1.29860
2200.02280 1.29825
2197.97436 1.29862
2195.92592 1.29919
2193.87748 1.29931
2191.82904 1.29944
2189.78060 1.30008
2187.73217 1.30088
2185.68373 1.30139
2183.63529 1.30169
2181.58685 1.30200
2179.53841 1.30215
2177.48997 1.30214
2175.44154 1.30243
2173.39310 1.30304
2171.34466 1.30357
2169.29622 1.30408
2167.24778 1.30457
2165.19934 1.30507
2163.15091 1.30585
2161.10247 1.30668
2159.05403 1.30728
2157.00559 1.30772
2154.95715 1.30816
2152.90871 1.30859
2150.86028 1.30874
2148.81184 1.30870
2146.76340 1.30838
2144.71496 1.30789
2142.66652 1.30771
2140.61808 1.30774
2138.56965 1.30772
2136.52121 1.30758
2134.47277 1.30735
2132.42433 1.30728
2130.37589 1.30748
2128.32745 1.30799
2126.27902 1.30852
2124.23058 1.30885
2122.18214 1.30905
2120.13370 1.30940
2118.08526 1.30984
2116.03682 1.31021
2113.98839 1.31081
2111.93995 1.31142
2109.89151 1.31173
2107.84307 1.31217
2105.79463 1.31300
2103.74619 1.31412
2101.69776 1.31509
2099.64932 1.31551
2097.60088 1.31559
2095.55244 1.31545
2093.50400 1.31512
2091.45556 1.31491
2089.40713 1.31497
2087.35869 1.31500
2085.31025 1.31512
2083.26181 1.31577
2081.21337 1.31653
2079.16493 1.31682
2077.11649 1.31679
2075.06806 1.31704
2073.01962 1.31763
2070.97118 1.31842
2068.92274 1.31963
2066.87430 1.32095
2064.82586 1.32173
2062.77743 1.32221
2060.72899 1.32303
2058.68055 1.32364
2056.63211 1.32367
2054.58367 1.32380
2052.53523 1.32426
2050.48680 1.32460
2048.43836 1.32481
2046.38992 1.32530
2044.34148 1.32562
2042.29304 1.32539
2040.24460 1.32513
2038.19617 1.32491
2036.14773 1.32452
2034.09929 1.32434
2032.05085 1.32471
2030.00241 1.32502
2027.95397 1.32454
2025.90554 1.32373
2023.85710 1.32324
2021.80866 1.32299
2019.76022 1.32268
2017.71178 1.32251
2015.66334 1.32271
2013.61491 1.32293
2011.56647 1.32290
2009.51803 1.32265
2007.46959 1.32261
2005.42115 1.32292
2003.37271 1.32305
2001.32428 1.32305
1999.27584 1.32333
1997.22740 1.32388
1995.17896 1.32431
1993.13052 1.32455
1991.08208 1.32487
1989.03365 1.32522
1986.98521 1.32544
1984.93677 1.32539
1982.88833 1.32507
1980.83989 1.32469
1978.79145 1.32452
1976.74302 1.32454
1974.69458 1.32463
1972.64614 1.32463
1970.59770 1.32430
1968.54926 1.32401
1966.50082 1.32408
1964.45239 1.32402
1962.40395 1.32392
1960.35551 1.32424
1958.30707 1.32462
1956.25863 1.32485
1954.21019 1.32504
1952.16176 1.32525
1950.11332 1.32553
1948.06488 1.32567
1946.01644 1.32580
1943.96800 1.32640
1941.91956 1.32785
1939.87112 1.32925
1937.82269 1.32999
1935.77425 1.33055
1933.72581 1.33111
1931.67737 1.33167
1929.62893 1.33221
1927.58049 1.33275
1925.53206 1.33324
1923.48362 1.33396
1921.43518 1.33480
1919.38674 1.33522
1917.33830 1.33582
1915.28986 1.33678
1913.24143 1.33763
1911.19299 1.33840
1909.14455 1.33934
1907.09611 1.34046
1905.04767 1.34143
1902.99923 1.34203
1900.95080 1.34238
1898.90236 1.34270
1896.85392 1.34308
1894.80548 1.34369
1892.75704 1.34423
1890.70860 1.34483
1888.66017 1.34627
1886.61173 1.34774
1884.56329 1.34847
1882.51485 1.34878
1880.46641 1.34917
1878.41797 1.34997
1876.36954 1.35073
1874.32110 1.35097
1872.27266 1.35072
1870.22422 1.35044
1868.17578 1.35157
1866.12734 1.35376
1864.07891 1.35504
1862.03047 1.35566
1859.98203 1.35643
1857.93359 1.35743
1855.88515 1.35848
1853.83671 1.35953
1851.78828 1.36025
1849.73984 1.36026
1847.69140 1.35987
1845.64296 1.36013
1843.59452 1.36216
1841.54608 1.36406
1839.49765 1.36453
1837.44921 1.36511
1835.40077 1.36642
1833.35233 1.36702
1831.30389 1.36693
1829.25545 1.36805
1827.20702 1.36955
1825.15858 1.37062
1823.11014 1.37191
1821.06170 1.37286
1819.01326 1.37364
1816.96482 1.37444
1814.91639 1.37506
1812.86795 1.37567
1810.81951 1.37658
1808.77107 1.37793
1806.72263 1.37946
1804.67419 1.38033
1802.62575 1.38039
1800.57732 1.38112
1798.52888 1.38273
1796.48044 1.38345
1794.43200 1.38327
1792.38356 1.38446
1790.33512 1.38755
1788.28669 1.38973
1786.23825 1.39064
1784.18981 1.39104
1782.14137 1.39145
1780.09293 1.39238
1778.04449 1.39353
1775.99606 1.39405
1773.94762 1.39436
1771.89918 1.39605
1769.85074 1.39864
1767.80230 1.40079
1765.75386 1.40211
1763.70543 1.40297
1761.65699 1.40525
1759.60855 1.40828
1757.56011 1.41083
1755.51167 1.41332
1753.46323 1.41505
1751.41480 1.41706
1749.36636 1.42064
1747.31792 1.42365
1745.26948 1.42392
1743.22104 1.42098
1741.17260 1.41616
1739.12417 1.41232
1737.07573 1.41060
1735.02729 1.41049
1732.97885 1.41108
1730.93041 1.40788
1728.88197 1.40115
1726.83354 1.39482
1724.78510 1.39235
1722.73666 1.39424
1720.68822 1.39708
1718.63978 1.40012
1716.59134 1.40614
1714.54291 1.41219
1712.49447 1.41566
1710.44603 1.41746
1708.39759 1.41842
1706.34915 1.41973
1704.30071 1.42118
1702.25228 1.42154
1700.20384 1.42255
1698.15540 1.42509
1696.10696 1.42811
1694.05852 1.43146
1692.01008 1.43349
1689.96165 1.43533
1687.91321 1.43688
1685.86477 1.43796
1683.81633 1.44165
1681.76789 1.44557
1679.71945 1.44747
1677.67102 1.44875
1675.62258 1.45054
1673.57414 1.45245
1671.52570 1.45339
1669.47726 1.45624
1667.42882 1.46069
1665.38038 1.46278
1663.33195 1.46422
1661.28351 1.46656
1659.23507 1.46838
1657.18663 1.46900
1655.13819 1.46927
1653.08975 1.47398
1651.04132 1.47852
1648.99288 1.47874
1646.94444 1.48130
1644.89600 1.48679
1642.84756 1.48966
1640.79912 1.49093
1638.75069 1.49145
1636.70225 1.49314
1634.65381 1.49899
1632.60537 1.50322
1630.55693 1.50526
1628.50849 1.50767
1626.46006 1.51105
1624.41162 1.51471
1622.36318 1.51856
1620.31474 1.52076
1618.26630 1.52286
1616.21786 1.52755
1614.16943 1.53203
1612.12099 1.53507
1610.07255 1.53831
1608.02411 1.54181
1605.97567 1.54502
1603.92723 1.54880
1601.87880 1.55294
1599.83036 1.55701
1597.78192 1.56117
1595.73348 1.56632
1593.68504 1.57196
1591.63660 1.57774
1589.58817 1.58379
1587.53973 1.58947
1585.49129 1.59488
1583.44285 1.60078
1581.39441 1.60719
1579.34597 1.61199
1577.29754 1.61780
1575.24910 1.62823
1573.20066 1.63673
1571.15222 1.64336
1569.10378 1.65378
1567.05534 1.66393
1565.00691 1.67218
1562.95847 1.67935
1560.91003 1.68468
1558.86159 1.70062
1556.81315 1.71929
1554.76471 1.72943
1552.71628 1.73952
1550.66784 1.75216
1548.61940 1.76534
1546.57096 1.77687
1544.52252 1.78885
1542.47408 1.80326
1540.42565 1.82868
1538.37721 1.85230
1536.32877 1.86085
1534.28033 1.87172
1532.23189 1.89370
1530.18345 1.90938
1528.13501 1.92193
1526.08658 1.93485
1524.03814 1.94603
1521.98970 1.95354
1519.94126 1.95506
1517.89282 1.94080
1515.84438 1.90592
1513.79595 1.86512
1511.74751 1.81760
1509.69907 1.76243
1507.65063 1.65171
1505.60219 1.50388
1503.55375 1.42571
1501.50532 1.36033
1499.45688 1.28173
1497.40844 1.19019
1495.36000 1.11075
1493.31156 1.05969
1491.26312 1.01410
1489.21469 0.96032
1487.16625 0.91861
1485.11781 0.89239
1483.06937 0.87189
1481.02093 0.85370
1478.97249 0.83898
1476.92406 0.82701
1474.87562 0.81558
1472.82718 0.80366
1470.77874 0.79335
1468.73030 0.78593
1466.68186 0.77845
1464.63343 0.76999
1462.58499 0.76261
1460.53655 0.75658
1458.48811 0.74953
1456.43967 0.74161
1454.39123 0.73664
1452.34280 0.73263
1450.29436 0.72850
1448.24592 0.72483
1446.19748 0.72250
1444.14904 0.72134
1442.10060 0.72117
1440.05217 0.72179
1438.00373 0.72415
1435.95529 0.72997
1433.90685 0.73629
1431.85841 0.74204
1429.80997 0.74914
1427.76154 0.75567
1425.71310 0.76000
1423.66466 0.76281
1421.61622 0.76340
1419.56778 0.76132
1417.51934 0.75668
1415.47091 0.75057
1413.42247 0.74253
1411.37403 0.73209
1409.32559 0.72024
1407.27715 0.70830
1405.22871 0.69620
1403.18028 0.68562
1401.13184 0.67739
1399.08340 0.66996
1397.03496 0.66394
1394.98652 0.66022
1392.93808 0.65864
1390.88965 0.65827
1388.84121 0.65924
1386.79277 0.66283
1384.74433 0.66855
1382.69589 0.67569
1380.64745 0.68561
1378.59901 0.69864
1376.55058 0.71434
1374.50214 0.73448
1372.45370 0.75648
1370.40526 0.77551
1368.35682 0.79368
1366.30838 0.81049
1364.25995 0.82574
1362.21151 0.84229
1360.16307 0.85750
1358.11463 0.86985
1356.06619 0.88161
1354.01775 0.89340
1351.96932 0.90444
1349.92088 0.91479
1347.87244 0.92477
1345.82400 0.93417
1343.77556 0.94236
1341.72712 0.94954
1339.67869 0.95677
1337.63025 0.96405
1335.58181 0.97054
1333.53337 0.97666
1331.48493 0.98284
1329.43649 0.98894
1327.38806 0.99467
1325.33962 0.99994
1323.29118 1.00486
1321.24274 1.00942
1319.19430 1.01384
1317.14586 1.01801
1315.09743 1.02176
1313.04899 1.02526
1311.00055 1.02856
1308.95211 1.03156
1306.90367 1.03430
1304.85523 1.03690
1302.80680 1.03955
1300.75836 1.04242
1298.70992 1.04527
1296.66148 1.04811
1294.61304 1.05106
1292.56460 1.05427
1290.51617 1.05756
1288.46773 1.06078
1286.41929 1.06394
1284.37085 1.06703
1282.32241 1.07011
1280.27397 1.07320
1278.22554 1.07625
1276.17710 1.07939
1274.12866 1.08264
1272.08022 1.08578
1270.03178 1.08873
1267.98334 1.09145
1265.93491 1.09429
1263.88647 1.09720
1261.83803 1.10009
1259.78959 1.10313
1257.74115 1.10623
1255.69271 1.10917
1253.64428 1.11195
1251.59584 1.11464
1249.54740 1.11726
1247.49896 1.11990
1245.45052 1.12242
1243.40208 1.12485
1241.35364 1.12725
1239.30521 1.12962
1237.25677 1.13176
1235.20833 1.13362
1233.15989 1.13562
1231.11145 1.13797
1229.06301 1.14040
1227.01458 1.14268
1224.96614 1.14480
1222.91770 1.14666
1220.86926 1.14840
1218.82082 1.15030
1216.77238 1.15235
1214.72395 1.15408
1212.67551 1.15554
1210.62707 1.15722
1208.57863 1.15896
1206.53019 1.16053
1204.48175 1.16217
1202.43332 1.16405
1200.38488 1.16578
1198.33644 1.16725
1196.28800 1.16876
1194.23956 1.17043
1192.19112 1.17184
1190.14269 1.17291
1188.09425 1.17412
1186.04581 1.17568
1183.99737 1.17737
1181.94893 1.17876
1179.90049 1.17977
1177.85206 1.18086
1175.80362 1.18217
1173.75518 1.18341
1171.70674 1.18472
1169.65830 1.18610
1167.60986 1.18726
1165.56143 1.18820
1163.51299 1.18950
1161.46455 1.19113
1159.41611 1.19246
1157.36767 1.19353
1155.31923 1.19458
1153.27080 1.19561
1151.22236 1.19672
1149.17392 1.19817
1147.12548 1.19979
1145.07704 1.20105
1143.02860 1.20164
1140.98017 1.20215
1138.93173 1.20301
1136.88329 1.20388
1134.83485 1.20468
1132.78641 1.20557
1130.73797 1.20643
1128.68954 1.20723
1126.64110 1.20823
1124.59266 1.20945
1122.54422 1.21085
1120.49578 1.21237
1118.44734 1.21419
1116.39891 1.21614
1114.35047 1.21757
1112.30203 1.21803
1110.25359 1.21782
1108.20515 1.21757
1106.15671 1.21737
1104.10827 1.21714
1102.05984 1.21720
1100.01140 1.21782
1097.96296 1.21849
1095.91452 1.21918
1093.86608 1.22024
1091.81764 1.22158
1089.76921 1.22262
1087.72077 1.22367
1085.67233 1.22532
1083.62389 1.22722
1081.57545 1.22918
1079.52701 1.23128
1077.47858 1.23324
1075.43014 1.23481
1073.38170 1.23669
1071.33326 1.23915
1069.28482 1.24220
1067.23638 1.24572
1065.18795 1.24992
1063.13951 1.25553
1061.09107 1.26428
1059.04263 1.27871
1056.99419 1.29329
1054.94575 1.26173
1052.89732 1.17324
1050.84888 1.11957
1048.80044 1.13666
1046.75200 1.17422
1044.70356 1.19504
1042.65512 1.20528
1040.60669 1.21134
1038.55825 1.21540
1036.50981 1.21869
1034.46137 1.22192
1032.41293 1.22474
1030.36449 1.22680
1028.31606 1.22862
1026.26762 1.23100
1024.21918 1.23311
1022.17074 1.23471
1020.12230 1.23632
1018.07386 1.23805
1016.02543 1.23937
1013.97699 1.24049
1011.92855 1.24189
1009.88011 1.24343
1007.83167 1.24499
1005.78323 1.24624
1003.73480 1.24716
1001.68636 1.24773
999.63792 1.24820
997.58948 1.24848
995.54104 1.24865
993.49260 1.24918
991.44417 1.24999
989.39573 1.25063
987.34729 1.25132
985.29885 1.25234
983.25041 1.25317
981.20197 1.25400
979.15354 1.25525
977.10510 1.25700
975.05666 1.25877
973.00822 1.26036
970.95978 1.26170
968.91134 1.26289
966.86290 1.26432
964.81447 1.26592
962.76603 1.26724
960.71759 1.26819
958.66915 1.26907
956.62071 1.27041
954.57227 1.27248
952.52384 1.27417
950.47540 1.27523
948.42696 1.27667
946.37852 1.27866
944.33008 1.28046
942.28164 1.28212
940.23321 1.28366
938.18477 1.28487
936.13633 1.28637
934.08789 1.28821
932.03945 1.29008
929.99101 1.29205
927.94258 1.29421
925.89414 1.29625
923.84570 1.29777
921.79726 1.29890
919.74882 1.29975
917.70038 1.30079
915.65195 1.30278
913.60351 1.30515
911.55507 1.30716
909.50663 1.30911
907.45819 1.31137
905.40975 1.31365
903.36132 1.31558
901.31288 1.31771
899.26444 1.32018
897.21600 1.32304
895.16756 1.32625
893.11912 1.32902
891.07069 1.33154
889.02225 1.33461
886.97381 1.33781
884.92537 1.34047
882.87693 1.34307
880.82849 1.34598
878.78006 1.34905
876.73162 1.35281
874.68318 1.35726
872.63474 1.36170
870.58630 1.36735
868.53786 1.37454
866.48943 1.38204
864.44099 1.39036
862.39255 1.40008
860.34411 1.41110
858.29567 1.42422
856.24723 1.44009
854.19880 1.45783
852.15036 1.47525
850.10192 1.47846
848.05348 1.41743
846.00504 1.25375
843.95660 1.06343
841.90817 0.93587
839.85973 0.89741
837.81129 0.93588
835.76285 1.01643
833.71441 1.09555
831.66597 1.15132
829.61753 1.18804
827.56910 1.21298
825.52066 1.22718
823.47222 1.23316
821.42378 1.23963
819.37534 1.24990
817.32690 1.25971
815.27847 1.26755
813.23003 1.27444
811.18159 1.28039
809.13315 1.28569
807.08471 1.29042
805.03627 1.29555
802.98784 1.30125
800.93940 1.30528
798.89096 1.30768
796.84252 1.30996
794.79408 1.31248
792.74564 1.31559
790.69721 1.31876
788.64877 1.32140
786.60033 1.32409
784.55189 1.32656
782.50345 1.32872
780.45501 1.33066
778.40658 1.33194
776.35814 1.33312
774.30970 1.33551
772.26126 1.33853
770.21282 1.34050
768.16438 1.34252
766.11595 1.34624
764.06751 1.35025
762.01907 1.35294
759.97063 1.35532
757.92219 1.35819
755.87375 1.36059
753.82532 1.36198
751.77688 1.36349
749.72844 1.36608
747.68000 1.36863
745.63156 1.37025
743.58312 1.37169
741.53469 1.37450
739.48625 1.37865
737.43781 1.38185
735.38937 1.38275
733.34093 1.38361
731.29249 1.38636
729.24406 1.38902
727.19562 1.39018
725.14718 1.39154
723.09874 1.39440
721.05030 1.39809
719.00186 1.40247
716.95343 1.40720
714.90499 1.41127
712.85655 1.41559
710.80811 1.42194
708.75967 1.42929
706.71123 1.43598
704.66280 1.44343
702.61436 1.45228
700.56592 1.46066
698.51748 1.46913
696.46904 1.48160
694.42060 1.49835
692.37216 1.51880
690.32373 1.54913
688.27529 1.59850
686.22685 1.65118
684.17841 1.60789
682.12997 1.37842
680.08153 1.11472
678.03310 0.96540
675.98466 0.95792
673.93622 1.04697
671.88778 1.14371
669.83934 1.20558
667.79090 1.25659
665.74247 1.28909
663.69403 1.30658
661.64559 1.32253
659.59715 1.33504
657.54871 1.34568
655.50027 1.35529
653.45184 1.36117
651.40340 1.36600
649.35496 1.37074
647.30652 1.37425
645.25808 1.37740
643.20964 1.37905
641.16121 1.37900
639.11277 1.37919
637.06433 1.38418
635.01589 1.39379
632.96745 1.39708
630.91901 1.38959
628.87058 1.38439
626.82214 1.39218
624.77370 1.40736
622.72526 1.41913
620.67682 1.41470
618.62838 1.40457
616.57995 1.41335
614.53151 1.42904
612.48307 1.42994
610.43463 1.41886
608.38619 1.41186
606.33775 1.42220
604.28932 1.44239
602.24088 1.45041
600.19244 1.44235
598.14400 1.43455
