3996.50324 1.37711
3994.45480 1.37678
3992.40636 1.37686
3990.35792 1.37707
3988.30948 1.37711
3986.26104 1.37698
3984.21261 1.37675
3982.16417 1.37626
3980.11573 1.37590
3978.06729 1.37633
3976.01885 1.37692
3973.97041 1.37703
3971.92198 1.37703
3969.87354 1.37663
3967.82510 1.37569
3965.77666 1.37516
3963.72822 1.37555
3961.67978 1.37638
3959.63135 1.37673
3957.58291 1.37670
3955.53447 1.37675
3953.48603 1.37632
3951.43759 1.37565
3949.38915 1.37554
3947.34072 1.37557
3945.29228 1.37559
3943.24384 1.37592
3941.19540 1.37635
3939.14696 1.37693
3937.09852 1.37768
3935.05009 1.37762
3933.00165 1.37579
3930.95321 1.37400
3928.90477 1.37500
3926.85633 1.37691
3924.80789 1.37708
3922.75946 1.37672
3920.71102 1.37728
3918.66258 1.37773
3916.61414 1.37766
3914.56570 1.37755
3912.51726 1.37720
3910.46883 1.37693
3908.42039 1.37730
3906.37195 1.37711
3904.32351 1.37564
3902.27507 1.37469
3900.22663 1.37482
3898.17820 1.37598
3896.12976 1.37754
3894.08132 1.37772
3892.03288 1.37681
3889.98444 1.37711
3887.93600 1.37799
3885.88756 1.37785
3883.83913 1.37773
3881.79069 1.37853
3879.74225 1.37967
3877.69381 1.38078
3875.64537 1.38094
3873.59693 1.38000
3871.54850 1.37827
3869.50006 1.37677
3867.45162 1.37805
3865.40318 1.37932
3863.35474 1.37880
3861.30630 1.37887
3859.25787 1.37916
3857.20943 1.37896
3855.16099 1.37824
3853.11255 1.37701
3851.06411 1.37794
3849.01567 1.37930
3846.96724 1.38028
3844.91880 1.38128
3842.87036 1.38177
3840.82192 1.38148
3838.77348 1.38039
3836.72504 1.37898
3834.67661 1.37836
3832.62817 1.37860
3830.57973 1.37967
3828.53129 1.38080
3826.48285 1.38141
3824.43441 1.38145
3822.38598 1.37938
3820.33754 1.37626
3818.28910 1.37647
3816.24066 1.37768
3814.19222 1.37931
3812.14378 1.38086
3810.09535 1.38153
3808.04691 1.38171
3805.99847 1.38202
3803.95003 1.38213
3801.90159 1.38059
3799.85315 1.37971
3797.80472 1.38048
3795.75628 1.38081
3793.70784 1.38129
3791.65940 1.38203
3789.61096 1.38221
3787.56252 1.38177
3785.51409 1.38158
3783.46565 1.38235
3781.41721 1.38309
3779.36877 1.38279
3777.32033 1.38265
3775.27189 1.38353
3773.22346 1.38419
3771.17502 1.38333
3769.12658 1.38198
3767.07814 1.38240
3765.02970 1.38323
3762.98126 1.38314
3760.93283 1.38219
3758.88439 1.38111
3756.83595 1.38101
3754.78751 1.38103
3752.73907 1.38018
3750.69063 1.37849
3748.64219 1.37875
3746.59376 1.37952
3744.54532 1.37802
3742.49688 1.37772
3740.44844 1.37932
3738.40000 1.37989
3736.35156 1.37830
3734.30313 1.37617
3732.25469 1.37629
3730.20625 1.37780
3728.15781 1.37880
3726.10937 1.37887
3724.06093 1.37973
3722.01250 1.38093
3719.96406 1.38105
3717.91562 1.38106
3715.86718 1.38105
3713.81874 1.37986
3711.77030 1.37754
3709.72187 1.37819
3707.67343 1.38087
3705.62499 1.38208
3703.57655 1.38170
3701.52811 1.38070
3699.47967 1.38102
3697.43124 1.38234
3695.38280 1.38287
3693.33436 1.38220
3691.28592 1.37992
3689.23748 1.37733
3687.18904 1.37850
3685.14061 1.38057
3683.09217 1.38139
3681.04373 1.38176
3678.99529 1.38235
3676.94685 1.38175
3674.89841 1.38070
3672.84998 1.38240
3670.80154 1.38202
3668.75310 1.38030
3666.70466 1.38171
3664.65622 1.38307
3662.60778 1.38319
3660.55935 1.38291
3658.51091 1.38225
3656.46247 1.38179
3654.41403 1.38245
3652.36559 1.38228
3650.31715 1.37909
3648.26872 1.37673
3646.22028 1.37926
3644.17184 1.38186
3642.12340 1.38270
3640.07496 1.38197
3638.02652 1.38106
3635.97809 1.38066
3633.92965 1.38035
3631.88121 1.38056
3629.83277 1.38021
3627.78433 1.37935
3625.73589 1.38049
3623.68746 1.38131
3621.63902 1.38126
3619.59058 1.38043
3617.54214 1.37949
3615.49370 1.37953
3613.44526 1.37948
3611.39682 1.37940
3609.34839 1.37877
3607.29995 1.37808
3605.25151 1.37969
3603.20307 1.38153
3601.15463 1.38165
3599.10619 1.38146
3597.05776 1.38163
3595.00932 1.38166
3592.96088 1.38191
3590.91244 1.38185
3588.86400 1.38069
3586.81556 1.38002
3584.76713 1.38108
3582.71869 1.38173
3580.67025 1.38202
3578.62181 1.38253
3576.57337 1.38263
3574.52493 1.38232
3572.47650 1.38216
3570.42806 1.38159
3568.37962 1.38005
3566.33118 1.37946
3564.28274 1.38055
3562.23430 1.38149
3560.18587 1.38205
3558.13743 1.38249
3556.08899 1.38314
3554.04055 1.38362
3551.99211 1.38358
3549.94367 1.38382
3547.89524 1.38411
3545.84680 1.38387
3543.79836 1.38400
3541.74992 1.38471
3539.70148 1.38553
3537.65304 1.38585
3535.60461 1.38552
3533.55617 1.38516
3531.50773 1.38484
3529.45929 1.38447
3527.41085 1.38418
3525.36241 1.38404
3523.31398 1.38418
3521.26554 1.38473
3519.21710 1.38536
3517.16866 1.38591
3515.12022 1.38627
3513.07178 1.38611
3511.02335 1.38540
3508.97491 1.38468
3506.92647 1.38450
3504.87803 1.38435
3502.82959 1.38447
3500.78115 1.38523
3498.73272 1.38558
3496.68428 1.38526
3494.63584 1.38505
3492.58740 1.38519
3490.53896 1.38530
3488.49052 1.38583
3486.44209 1.38671
3484.39365 1.38624
3482.34521 1.38477
3480.29677 1.38439
3478.24833 1.38501
3476.19989 1.38584
3474.15146 1.38665
3472.10302 1.38659
3470.05458 1.38580
3468.00614 1.38570
3465.95770 1.38637
3463.90926 1.38702
3461.86082 1.38776
3459.81239 1.38809
3457.76395 1.38726
3455.71551 1.38664
3453.66707 1.38723
3451.61863 1.38741
3449.57019 1.38638
3447.52176 1.38580
3445.47332 1.38662
3443.42488 1.38769
3441.37644 1.38803
3439.32800 1.38777
3437.27956 1.38743
3435.23113 1.38736
3433.18269 1.38789
3431.13425 1.38892
3429.08581 1.38908
3427.03737 1.38798
3424.98893 1.38684
3422.94050 1.38618
3420.89206 1.38644
3418.84362 1.38721
3416.79518 1.38746
3414.74674 1.38753
3412.69830 1.38750
3410.64987 1.38717
3408.60143 1.38677
3406.55299 1.38625
3404.50455 1.38560
3402.45611 1.38511
3400.40767 1.38502
3398.35924 1.38551
3396.31080 1.38648
3394.26236 1.38742
3392.21392 1.38770
3390.16548 1.38749
3388.11704 1.38728
3386.06861 1.38706
3384.02017 1.38672
3381.97173 1.38651
3379.92329 1.38667
3377.87485 1.38705
3375.82641 1.38741
3373.77798 1.38775
3371.72954 1.38780
3369.68110 1.38748
3367.63266 1.38733
3365.58422 1.38758
3363.53578 1.38813
3361.48735 1.38861
3359.43891 1.38855
3357.39047 1.38801
3355.34203 1.38741
3353.29359 1.38752
3351.24515 1.38850
3349.19672 1.38896
3347.14828 1.38802
3345.09984 1.38723
3343.05140 1.38738
3341.00296 1.38706
3338.95452 1.38652
3336.90609 1.38661
3334.85765 1.38665
3332.80921 1.38661
3330.76077 1.38690
3328.71233 1.38716
3326.66389 1.38720
3324.61545 1.38746
3322.56702 1.38782
3320.51858 1.38785
3318.47014 1.38800
3316.42170 1.38838
3314.37326 1.38856
3312.32482 1.38853
3310.27639 1.38838
3308.22795 1.38793
3306.17951 1.38727
3304.13107 1.38706
3302.08263 1.38761
3300.03419 1.38826
3297.98576 1.38834
3295.93732 1.38805
3293.88888 1.38775
3291.84044 1.38740
3289.79200 1.38712
3287.74356 1.38721
3285.69513 1.38754
3283.64669 1.38792
3281.59825 1.38857
3279.54981 1.38929
3277.50137 1.38923
3275.45293 1.38849
3273.40450 1.38817
3271.35606 1.38847
3269.30762 1.38868
3267.25918 1.38864
3265.21074 1.38851
3263.16230 1.38840
3261.11387 1.38861
3259.06543 1.38901
3257.01699 1.38877
3254.96855 1.38847
3252.92011 1.38881
3250.87167 1.38915
3248.82324 1.38947
3246.77480 1.38933
3244.72636 1.38868
3242.67792 1.38862
3240.62948 1.38917
3238.58104 1.38953
3236.53261 1.38921
3234.48417 1.38831
3232.43573 1.38778
3230.38729 1.38815
3228.33885 1.38873
3226.29041 1.38917
3224.24198 1.38939
3222.19354 1.38923
3220.14510 1.38904
3218.09666 1.38885
3216.04822 1.38868
3213.99978 1.38882
3211.95135 1.38898
3209.90291 1.38872
3207.85447 1.38823
3205.80603 1.38814
3203.75759 1.38852
3201.70915 1.38873
3199.66072 1.38871
3197.61228 1.38906
3195.56384 1.38952
3193.51540 1.38922
3191.46696 1.38857
3189.41852 1.38858
3187.37008 1.38909
3185.32165 1.38957
3183.27321 1.38978
3181.22477 1.38953
3179.17633 1.38931
3177.12789 1.38946
3175.07945 1.38982
3173.03102 1.38992
3170.98258 1.38953
3168.93414 1.38936
3166.88570 1.38967
3164.83726 1.38962
3162.78882 1.38915
3160.74039 1.38894
3158.69195 1.38895
3156.64351 1.38903
3154.59507 1.38971
3152.54663 1.39045
3150.49819 1.39039
3148.44976 1.39010
3146.40132 1.38988
3144.35288 1.38964
3142.30444 1.38952
3140.25600 1.38972
3138.20756 1.39027
3136.15913 1.39063
3134.11069 1.39035
3132.06225 1.38973
3130.01381 1.38968
3127.96537 1.39037
3125.91693 1.39069
3123.86850 1.39047
3121.82006 1.39046
3119.77162 1.39040
3117.72318 1.39027
3115.67474 1.39051
3113.62630 1.39093
3111.57787 1.39117
3109.52943 1.39111
3107.48099 1.39098
3105.43255 1.39096
3103.38411 1.39091
3101.33567 1.39103
3099.28724 1.39120
3097.23880 1.39094
3095.19036 1.39055
3093.14192 1.39050
3091.09348 1.39071
3089.04504 1.39089
3086.99661 1.39098
3084.94817 1.39113
3082.89973 1.39141
3080.85129 1.39166
3078.80285 1.39151
3076.75441 1.39114
3074.70598 1.39089
3072.65754 1.39076
3070.60910 1.39073
3068.56066 1.39082
3066.51222 1.39102
3064.46378 1.39126
3062.41535 1.39127
3060.36691 1.39112
3058.31847 1.39135
3056.27003 1.39164
3054.22159 1.39109
3052.17315 1.39048
3050.12471 1.39085
3048.07628 1.39155
3046.02784 1.39210
3043.97940 1.39243
3041.93096 1.39216
3039.88252 1.39154
3037.83408 1.39135
3035.78565 1.39156
3033.73721 1.39117
3031.68877 1.39044
3029.64033 1.39062
3027.59189 1.39119
3025.54345 1.39128
3023.49502 1.39136
3021.44658 1.39161
3019.39814 1.39167
3017.34970 1.39157
3015.30126 1.39185
3013.25282 1.39247
3011.20439 1.39266
3009.15595 1.39240
3007.10751 1.39223
3005.05907 1.39238
3003.01063 1.39272
3000.96219 1.39280
2998.91376 1.39244
2996.86532 1.39248
2994.81688 1.39303
2992.76844 1.39313
2990.72000 1.39278
2988.67156 1.39272
2986.62313 1.39299
2984.57469 1.39313
2982.52625 1.39312
2980.47781 1.39327
2978.42937 1.39356
2976.38093 1.39355
2974.33250 1.39351
2972.28406 1.39397
2970.23562 1.39430
2968.18718 1.39393
2966.13874 1.39370
2964.09030 1.39389
2962.04187 1.39377
2959.99343 1.39369
2957.94499 1.39411
2955.89655 1.39435
2953.84811 1.39422
2951.79967 1.39425
2949.75124 1.39422
2947.70280 1.39389
2945.65436 1.39394
2943.60592 1.39424
2941.55748 1.39420
2939.50904 1.39420
2937.46061 1.39431
2935.41217 1.39407
2933.36373 1.39360
2931.31529 1.39302
2929.26685 1.39238
2927.21841 1.39195
2925.16998 1.39205
2923.12154 1.39243
2921.07310 1.39229
2919.02466 1.39175
2916.97622 1.39187
2914.92778 1.39293
2912.87934 1.39390
2910.83091 1.39435
2908.78247 1.39480
2906.73403 1.39544
2904.68559 1.39597
2902.63715 1.39638
2900.58871 1.39662
2898.54028 1.39636
2896.49184 1.39652
2894.44340 1.39760
2892.39496 1.39821
2890.34652 1.39789
2888.29808 1.39765
2886.24965 1.39791
2884.20121 1.39799
2882.15277 1.39747
2880.10433 1.39717
2878.05589 1.39759
2876.00745 1.39801
2873.95902 1.39809
2871.91058 1.39821
2869.86214 1.39839
2867.81370 1.39834
2865.76526 1.39825
2863.71682 1.39841
2861.66839 1.39828
2859.61995 1.39746
2857.57151 1.39663
2855.52307 1.39666
2853.47463 1.39713
2851.42619 1.39700
2849.37776 1.39674
2847.32932 1.39734
2845.28088 1.39840
2843.23244 1.39888
2841.18400 1.39885
2839.13556 1.39913
2837.08713 1.39963
2835.03869 1.40004
2832.99025 1.40031
2830.94181 1.40033
2828.89337 1.40032
2826.84493 1.40039
2824.79650 1.40017
2822.74806 1.39964
2820.69962 1.39938
2818.65118 1.39950
2816.60274 1.39965
2814.55430 1.39991
2812.50587 1.40017
2810.45743 1.39997
2808.40899 1.39943
2806.36055 1.39915
2804.31211 1.39942
2802.26367 1.39985
2800.21524 1.39988
2798.16680 1.39968
2796.11836 1.39974
2794.06992 1.39995
2792.02148 1.39975
2789.97304 1.39935
2787.92461 1.39952
2785.87617 1.40012
2783.82773 1.40049
2781.77929 1.40057
2779.73085 1.40055
2777.68241 1.40029
2775.63397 1.39977
2773.58554 1.39948
2771.53710 1.39960
2769.48866 1.39969
2767.44022 1.39972
2765.39178 1.39984
2763.34334 1.40002
2761.29491 1.40028
2759.24647 1.40045
2757.19803 1.40038
2755.14959 1.40014
2753.10115 1.39985
2751.05271 1.39964
2749.00428 1.39938
2746.95584 1.39924
2744.90740 1.39955
2742.85896 1.40006
2740.81052 1.40028
2738.76208 1.40002
2736.71365 1.39961
2734.66521 1.39934
2732.61677 1.39905
2730.56833 1.39884
2728.51989 1.39896
2726.47145 1.39907
2724.42302 1.39898
2722.37458 1.39892
2720.32614 1.39928
2718.27770 1.40003
2716.22926 1.40029
2714.18082 1.39985
2712.13239 1.39932
2710.08395 1.39886
2708.03551 1.39889
2705.98707 1.39945
2703.93863 1.39965
2701.89019 1.39956
2699.84176 1.39975
2697.79332 1.40004
2695.74488 1.40012
2693.69644 1.39986
2691.64800 1.39950
2689.59956 1.39934
2687.55113 1.39937
2685.50269 1.39930
2683.45425 1.39933
2681.40581 1.39992
2679.35737 1.40042
2677.30893 1.40033
2675.26050 1.40018
2673.21206 1.40033
2671.16362 1.40057
2669.11518 1.40072
2667.06674 1.40088
2665.01830 1.40106
2662.96987 1.40126
2660.92143 1.40145
2658.87299 1.40163
2656.82455 1.40214
2654.77611 1.40274
2652.72767 1.40270
2650.67924 1.40221
2648.63080 1.40195
2646.58236 1.40236
2644.53392 1.40300
2642.48548 1.40283
2640.43704 1.40193
2638.38860 1.40119
2636.34017 1.40099
2634.29173 1.40115
2632.24329 1.40162
2630.19485 1.40241
2628.14641 1.40315
2626.09797 1.40342
2624.04954 1.40346
2622.00110 1.40367
2619.95266 1.40366
2617.90422 1.40313
2615.85578 1.40260
2613.80734 1.40257
2611.75891 1.40286
2609.71047 1.40298
2607.66203 1.40279
2605.61359 1.40235
2603.56515 1.40226
2601.51671 1.40288
2599.46828 1.40367
2597.41984 1.40391
2595.37140 1.40376
2593.32296 1.40364
2591.27452 1.40354
2589.22608 1.40372
2587.17765 1.40429
2585.12921 1.40486
2583.08077 1.40560
2581.03233 1.40624
2578.98389 1.40619
2576.93545 1.40583
2574.88702 1.40560
2572.83858 1.40542
2570.79014 1.40547
2568.74170 1.40576
2566.69326 1.40607
2564.64482 1.40630
2562.59639 1.40620
2560.54795 1.40604
2558.49951 1.40609
2556.45107 1.40610
2554.40263 1.40603
2552.35419 1.40599
2550.30576 1.40615
2548.25732 1.40664
2546.20888 1.40702
2544.16044 1.40699
2542.11200 1.40700
2540.06356 1.40703
2538.01513 1.40694
2535.96669 1.40706
2533.91825 1.40734
2531.86981 1.40732
2529.82137 1.40708
2527.77293 1.40718
2525.72450 1.40740
2523.67606 1.40756
2521.62762 1.40767
2519.57918 1.40759
2517.53074 1.40777
2515.48230 1.40856
2513.43387 1.40931
2511.38543 1.40931
2509.33699 1.40880
2507.28855 1.40838
2505.24011 1.40827
2503.19167 1.40832
2501.14324 1.40850
2499.09480 1.40876
2497.04636 1.40867
2494.99792 1.40847
2492.94948 1.40859
2490.90104 1.40870
2488.85260 1.40871
2486.80417 1.40893
2484.75573 1.40957
2482.70729 1.41029
2480.65885 1.41024
2478.61041 1.40961
2476.56197 1.40942
2474.51354 1.40994
2472.46510 1.41032
2470.41666 1.41002
2468.36822 1.40976
2466.31978 1.41010
2464.27134 1.41082
2462.22291 1.41146
2460.17447 1.41132
2458.12603 1.41055
2456.07759 1.41010
2454.02915 1.41015
2451.98071 1.41050
2449.93228 1.41122
2447.88384 1.41206
2445.83540 1.41252
2443.78696 1.41260
2441.73852 1.41250
2439.69008 1.41235
2437.64165 1.41234
2435.59321 1.41259
2433.54477 1.41334
2431.49633 1.41440
2429.44789 1.41487
2427.39945 1.41456
2425.35102 1.41415
2423.30258 1.41381
2421.25414 1.41320
2419.20570 1.41252
2417.15726 1.41174
2415.10882 1.41041
2413.06039 1.40887
2411.01195 1.40763
2408.96351 1.40676
2406.91507 1.40597
2404.86663 1.40484
2402.81819 1.40373
2400.76976 1.40346
2398.72132 1.40415
2396.67288 1.40494
2394.62444 1.40526
2392.57600 1.40533
2390.52756 1.40543
2388.47913 1.40581
2386.43069 1.40648
2384.38225 1.40737
2382.33381 1.40822
2380.28537 1.40885
2378.23693 1.40938
2376.18850 1.40972
2374.14006 1.41036
2372.09162 1.41095
2370.04318 1.41029
2367.99474 1.41012
2365.94630 1.41307
2363.89787 1.41685
2361.84943 1.41641
2359.80099 1.41390
2357.75255 1.41342
2355.70411 1.41311
2353.65567 1.41162
2351.60723 1.41079
2349.55880 1.41188
2347.51036 1.41363
2345.46192 1.41418
2343.41348 1.41353
2341.36504 1.41386
2339.31660 1.41588
2337.26817 1.41732
2335.21973 1.41652
2333.17129 1.41491
2331.12285 1.41374
2329.07441 1.41428
2327.02597 1.41583
2324.97754 1.41625
2322.92910 1.41569
2320.88066 1.41547
2318.83222 1.41545
2316.78378 1.41496
2314.73534 1.41456
2312.68691 1.41439
2310.63847 1.41451
2308.59003 1.41515
2306.54159 1.41538
2304.49315 1.41496
2302.44471 1.41466
2300.39628 1.41449
2298.34784 1.41421
2296.29940 1.41404
2294.25096 1.41390
2292.20252 1.41342
2290.15408 1.41317
2288.10565 1.41367
2286.05721 1.41438
2284.00877 1.41512
2281.96033 1.41570
2279.91189 1.41565
2277.86345 1.41521
2275.81502 1.41502
2273.76658 1.41527
2271.71814 1.41563
2269.66970 1.41598
2267.62126 1.41601
2265.57282 1.41572
2263.52439 1.41564
2261.47595 1.41580
2259.42751 1.41592
2257.37907 1.41604
2255.33063 1.41629
2253.28219 1.41664
2251.23376 1.41718
2249.18532 1.41744
2247.13688 1.41716
2245.08844 1.41711
2243.04000 1.41757
2240.99156 1.41780
2238.94313 1.41749
2236.89469 1.41752
2234.84625 1.41784
2232.79781 1.41810
2230.74937 1.41865
2228.70093 1.41891
2226.65250 1.41864
2224.60406 1.41873
2222.55562 1.41946
2220.50718 1.42035
2218.45874 1.42094
2216.41030 1.42119
2214.36186 1.42117
2212.31343 1.42098
2210.26499 1.42065
2208.21655 1.42015
2206.16811 1.42007
2204.11967 1.42053
2202.07123 1.42076
2200.02280 1.42052
2197.97436 1.42034
2195.92592 1.42068
2193.87748 1.42132
2191.82904 1.42174
2189.78060 1.42183
2187.73217 1.42168
2185.68373 1.42141
2183.63529 1.42136
2181.58685 1.42188
2179.53841 1.42256
2177.48997 1.42268
2175.44154 1.42215
2173.39310 1.42197
2171.34466 1.42262
2169.29622 1.42320
2167.24778 1.42335
2165.19934 1.42356
2163.15091 1.42394
2161.10247 1.42429
2159.05403 1.42444
2157.00559 1.42449
2154.95715 1.42492
2152.90871 1.42563
2150.86028 1.42585
2148.81184 1.42561
2146.76340 1.42562
2144.71496 1.42606
2142.66652 1.42657
2140.61808 1.42672
2138.56965 1.42644
2136.52121 1.42621
2134.47277 1.42599
2132.42433 1.42549
2130.37589 1.42556
2128.32745 1.42644
2126.27902 1.42720
2124.23058 1.42744
2122.18214 1.42759
2120.13370 1.42795
2118.08526 1.42849
2116.03682 1.42907
2113.98839 1.42921
2111.93995 1.42890
2109.89151 1.42902
2107.84307 1.42980
2105.79463 1.43071
2103.74619 1.43129
2101.69776 1.43137
2099.64932 1.43116
2097.60088 1.43127
2095.55244 1.43185
2093.50400 1.43208
2091.45556 1.43155
2089.40713 1.43135
2087.35869 1.43190
2085.31025 1.43233
2083.26181 1.43271
2081.21337 1.43327
2079.16493 1.43365
2077.11649 1.43396
2075.06806 1.43449
2073.01962 1.43500
2070.97118 1.43497
2068.92274 1.43463
2066.87430 1.43454
2064.82586 1.43480
2062.77743 1.43543
2060.72899 1.43615
2058.68055 1.43633
2056.63211 1.43640
2054.58367 1.43685
2052.53523 1.43708
2050.48680 1.43703
2048.43836 1.43728
2046.38992 1.43755
2044.34148 1.43744
2042.29304 1.43734
2040.24460 1.43757
2038.19617 1.43814
2036.14773 1.43863
2034.09929 1.43875
2032.05085 1.43905
2030.00241 1.43966
2027.95397 1.43998
2025.90554 1.43987
2023.85710 1.43968
2021.80866 1.43969
2019.76022 1.43968
2017.71178 1.43944
2015.66334 1.43934
2013.61491 1.43948
2011.56647 1.43953
2009.51803 1.43978
2007.46959 1.44073
2005.42115 1.44170
2003.37271 1.44159
2001.32428 1.44088
1999.27584 1.44076
1997.22740 1.44130
1995.17896 1.44157
1993.13052 1.44143
1991.08208 1.44178
1989.03365 1.44245
1986.98521 1.44243
1984.93677 1.44187
1982.88833 1.44169
1980.83989 1.44203
1978.79145 1.44233
1976.74302 1.44287
1974.69458 1.44372
1972.64614 1.44418
1970.59770 1.44403
1968.54926 1.44375
1966.50082 1.44401
1964.45239 1.44468
1962.40395 1.44500
1960.35551 1.44494
1958.30707 1.44504
1956.25863 1.44541
1954.21019 1.44599
1952.16176 1.44657
1950.11332 1.44705
1948.06488 1.44754
1946.01644 1.44784
1943.96800 1.44794
1941.91956 1.44829
1939.87112 1.44892
1937.82269 1.44932
1935.77425 1.44966
1933.72581 1.45021
1931.67737 1.45068
1929.62893 1.45104
1927.58049 1.45156
1925.53206 1.45187
1923.48362 1.45175
1921.43518 1.45186
1919.38674 1.45230
1917.33830 1.45314
1915.28986 1.45449
1913.24143 1.45556
1911.19299 1.45608
1909.14455 1.45630
1907.09611 1.45639
1905.04767 1.45686
1902.99923 1.45781
1900.95080 1.45832
1898.90236 1.45838
1896.85392 1.45878
1894.80548 1.45968
1892.75704 1.46050
1890.70860 1.46066
1888.66017 1.46089
1886.61173 1.46156
1884.56329 1.46185
1882.51485 1.46183
1880.46641 1.46230
1878.41797 1.46344
1876.36954 1.46455
1874.32110 1.46491
1872.27266 1.46452
1870.22422 1.46383
1868.17578 1.46425
1866.12734 1.46607
1864.07891 1.46711
1862.03047 1.46729
1859.98203 1.46784
1857.93359 1.46889
1855.88515 1.47023
1853.83671 1.47151
1851.78828 1.47233
1849.73984 1.47262
1847.69140 1.47244
1845.64296 1.47203
1843.59452 1.47244
1841.54608 1.47385
1839.49765 1.47500
1837.44921 1.47578
1835.40077 1.47682
1833.35233 1.47787
1831.30389 1.47786
1829.25545 1.47749
1827.20702 1.47829
1825.15858 1.47965
1823.11014 1.48155
1821.06170 1.48330
1819.01326 1.48381
1816.96482 1.48393
1814.91639 1.48457
1812.86795 1.48493
1810.81951 1.48498
1808.77107 1.48591
1806.72263 1.48706
1804.67419 1.48741
1802.62575 1.48777
1800.57732 1.48891
1798.52888 1.49020
1796.48044 1.49092
1794.43200 1.49108
1792.38356 1.49131
1790.33512 1.49258
1788.28669 1.49441
1786.23825 1.49611
1784.18981 1.49759
1782.14137 1.49850
1780.09293 1.49899
1778.04449 1.50004
1775.99606 1.50168
1773.94762 1.50303
1771.89918 1.50358
1769.85074 1.50439
1767.80230 1.50584
1765.75386 1.50753
1763.70543 1.50885
1761.65699 1.50979
1759.60855 1.51154
1757.56011 1.51430
1755.51167 1.51759
1753.46323 1.52006
1751.41480 1.52104
1749.36636 1.52199
1747.31792 1.52412
1745.26948 1.52502
1743.22104 1.52286
1741.17260 1.51874
1739.12417 1.51576
1737.07573 1.51509
1735.02729 1.51439
1732.97885 1.51281
1730.93041 1.50978
1728.88197 1.50399
1726.83354 1.49882
1724.78510 1.49761
1722.73666 1.50026
1720.68822 1.50368
1718.63978 1.50591
1716.59134 1.50921
1714.54291 1.51434
1712.49447 1.51853
1710.44603 1.52142
1708.39759 1.52294
1706.34915 1.52381
1704.30071 1.52545
1702.25228 1.52652
1700.20384 1.52640
1698.15540 1.52817
1696.10696 1.53166
1694.05852 1.53483
1692.01008 1.53681
1689.96165 1.53803
1687.91321 1.53979
1685.86477 1.54298
1683.81633 1.54679
1681.76789 1.54946
1679.71945 1.55165
1677.67102 1.55303
1675.62258 1.55331
1673.57414 1.55353
1671.52570 1.55467
1669.47726 1.55745
1667.42882 1.56139
1665.38038 1.56371
1663.33195 1.56455
1661.28351 1.56569
1659.23507 1.56735
1657.18663 1.56857
1655.13819 1.56924
1653.08975 1.57110
1651.04132 1.57460
1648.99288 1.57670
1646.94444 1.57844
1644.89600 1.58192
1642.84756 1.58550
1640.79912 1.58822
1638.75069 1.59004
1636.70225 1.59210
1634.65381 1.59569
1632.60537 1.59864
1630.55693 1.60129
1628.50849 1.60424
1626.46006 1.60690
1624.41162 1.60859
1622.36318 1.61055
1620.31474 1.61331
1618.26630 1.61646
1616.21786 1.62025
1614.16943 1.62437
1612.12099 1.62820
1610.07255 1.63149
1608.02411 1.63423
1605.97567 1.63693
1603.92723 1.64060
1601.87880 1.64448
1599.83036 1.64804
1597.78192 1.65192
1595.73348 1.65673
1593.68504 1.66126
1591.63660 1.66528
1589.58817 1.66959
1587.53973 1.67398
1585.49129 1.67796
1583.44285 1.68171
1581.39441 1.68632
1579.34597 1.69037
1577.29754 1.69364
1575.24910 1.69913
1573.20066 1.70592
1571.15222 1.71151
1569.10378 1.71731
1567.05534 1.72275
1565.00691 1.72763
1562.95847 1.73202
1560.91003 1.73553
1558.86159 1.74226
1556.81315 1.74840
1554.76471 1.75313
1552.71628 1.75887
1550.66784 1.76658
1548.61940 1.77464
1546.57096 1.78124
1544.52252 1.78608
1542.47408 1.79032
1540.42565 1.79880
1538.37721 1.80781
1536.32877 1.81306
1534.28033 1.81829
1532.23189 1.82575
1530.18345 1.83012
1528.13501 1.83259
1526.08658 1.83326
1524.03814 1.83350
1521.98970 1.83028
1519.94126 1.82355
1517.89282 1.81432
1515.84438 1.79970
1513.79595 1.78358
1511.74751 1.76345
1509.69907 1.73791
1507.65063 1.67945
1505.60219 1.59174
1503.55375 1.54018
1501.50532 1.49315
1499.45688 1.43271
1497.40844 1.35776
1495.36000 1.28965
1493.31156 1.24465
1491.26312 1.20184
1489.21469 1.14684
1487.16625 1.10101
1485.11781 1.07026
1483.06937 1.04416
1481.02093 1.01867
1478.97249 0.99659
1476.92406 0.97746
1474.87562 0.95807
1472.82718 0.93677
1470.77874 0.91950
1468.73030 0.90883
1466.68186 0.89776
1464.63343 0.88378
1462.58499 0.87215
1460.53655 0.86388
1458.48811 0.85312
1456.43967 0.83900
1454.39123 0.83161
1452.34280 0.82692
1450.29436 0.82149
1448.24592 0.81559
1446.19748 0.81102
1444.14904 0.80855
1442.10060 0.80743
1440.05217 0.80717
1438.00373 0.80830
1435.95529 0.81233
1433.90685 0.81783
1431.85841 0.82307
1429.80997 0.82919
1427.76154 0.83515
1425.71310 0.83932
1423.66466 0.84183
1421.61622 0.84213
1419.56778 0.83881
1417.51934 0.83219
1415.47091 0.82529
1413.42247 0.81673
1411.37403 0.80537
1409.32559 0.79263
1407.27715 0.77994
1405.22871 0.76685
1403.18028 0.75562
1401.13184 0.74738
1399.08340 0.74003
1397.03496 0.73423
1394.98652 0.73097
1392.93808 0.73021
1390.88965 0.73098
1388.84121 0.73302
1386.79277 0.73773
1384.74433 0.74523
1382.69589 0.75470
1380.64745 0.76719
1378.59901 0.78266
1376.55058 0.80018
1374.50214 0.82094
1372.45370 0.84274
1370.40526 0.86157
1368.35682 0.87938
1366.30838 0.89568
1364.25995 0.91018
1362.21151 0.92588
1360.16307 0.94096
1358.11463 0.95355
1356.06619 0.96532
1354.01775 0.97693
1351.96932 0.98783
1349.92088 0.99815
1347.87244 1.00813
1345.82400 1.01760
1343.77556 1.02592
1341.72712 1.03293
1339.67869 1.03988
1337.63025 1.04743
1335.58181 1.05453
1333.53337 1.06092
1331.48493 1.06698
1329.43649 1.07284
1327.38806 1.07839
1325.33962 1.08354
1323.29118 1.08834
1321.24274 1.09270
1319.19430 1.09694
1317.14586 1.10114
1315.09743 1.10505
1313.04899 1.10850
1311.00055 1.11157
1308.95211 1.11430
1306.90367 1.11669
1304.85523 1.11906
1302.80680 1.12175
1300.75836 1.12472
1298.70992 1.12746
1296.66148 1.13006
1294.61304 1.13292
1292.56460 1.13604
1290.51617 1.13911
1288.46773 1.14216
1286.41929 1.14534
1284.37085 1.14879
1282.32241 1.15229
1280.27397 1.15544
1278.22554 1.15857
1276.17710 1.16178
1274.12866 1.16480
1272.08022 1.16772
1270.03178 1.17077
1267.98334 1.17361
1265.93491 1.17622
1263.88647 1.17895
1261.83803 1.18171
1259.78959 1.18451
1257.74115 1.18750
1255.69271 1.19048
1253.64428 1.19322
1251.59584 1.19573
1249.54740 1.19807
1247.49896 1.20054
1245.45052 1.20311
1243.40208 1.20547
1241.35364 1.20764
1239.30521 1.20988
1237.25677 1.21234
1235.20833 1.21478
1233.15989 1.21688
1231.11145 1.21882
1229.06301 1.22083
1227.01458 1.22272
1224.96614 1.22455
1222.91770 1.22652
1220.86926 1.22846
1218.82082 1.23010
1216.77238 1.23160
1214.72395 1.23312
1212.67551 1.23472
1210.62707 1.23661
1208.57863 1.23853
1206.53019 1.24005
1204.48175 1.24142
1202.43332 1.24295
1200.38488 1.24436
1198.33644 1.24559
1196.28800 1.24685
1194.23956 1.24825
1192.19112 1.24983
1190.14269 1.25149
1188.09425 1.25308
1186.04581 1.25456
1183.99737 1.25584
1181.94893 1.25691
1179.90049 1.25804
1177.85206 1.25949
1175.80362 1.26127
1173.75518 1.26287
1171.70674 1.26394
1169.65830 1.26470
1167.60986 1.26549
1165.56143 1.26633
1163.51299 1.26732
1161.46455 1.26848
1159.41611 1.26965
1157.36767 1.27075
1155.31923 1.27182
1153.27080 1.27293
1151.22236 1.27405
1149.17392 1.27528
1147.12548 1.27647
1145.07704 1.27748
1143.02860 1.27835
1140.98017 1.27921
1138.93173 1.28014
1136.88329 1.28112
1134.83485 1.28206
1132.78641 1.28281
1130.73797 1.28347
1128.68954 1.28464
1126.64110 1.28629
1124.59266 1.28744
1122.54422 1.28813
1120.49578 1.28909
1118.44734 1.29063
1116.39891 1.29214
1114.35047 1.29272
1112.30203 1.29240
1110.25359 1.29168
1108.20515 1.29057
1106.15671 1.28967
1104.10827 1.28966
1102.05984 1.29016
1100.01140 1.29068
1097.96296 1.29096
1095.91452 1.29135
1093.86608 1.29209
1091.81764 1.29312
1089.76921 1.29453
1087.72077 1.29634
1085.67233 1.29823
1083.62389 1.30004
1081.57545 1.30193
1079.52701 1.30388
1077.47858 1.30559
1075.43014 1.30704
1073.38170 1.30886
1071.33326 1.31096
1069.28482 1.31358
1067.23638 1.31712
1065.18795 1.32175
1063.13951 1.32791
1061.09107 1.33729
1059.04263 1.35179
1056.99419 1.36266
1054.94575 1.32474
1052.89732 1.23550
1050.84888 1.18422
1048.80044 1.20264
1046.75200 1.24098
1044.70356 1.26253
1042.65512 1.27320
1040.60669 1.27962
1038.55825 1.28399
1036.50981 1.28754
1034.46137 1.29065
1032.41293 1.29284
1030.36449 1.29425
1028.31606 1.29546
1026.26762 1.29711
1024.21918 1.29893
1022.17074 1.30060
1020.12230 1.30187
1018.07386 1.30305
1016.02543 1.30443
1013.97699 1.30562
1011.92855 1.30638
1009.88011 1.30708
1007.83167 1.30829
1005.78323 1.30960
1003.73480 1.31071
1001.68636 1.31146
999.63792 1.31200
997.58948 1.31239
995.54104 1.31262
993.49260 1.31280
991.44417 1.31316
989.39573 1.31345
987.34729 1.31369
985.29885 1.31439
983.25041 1.31515
981.20197 1.31592
979.15354 1.31697
977.10510 1.31811
975.05666 1.31924
973.00822 1.32076
970.95978 1.32237
968.91134 1.32329
966.86290 1.32387
964.81447 1.32508
962.76603 1.32682
960.71759 1.32843
958.66915 1.32994
956.62071 1.33135
954.57227 1.33228
952.52384 1.33270
950.47540 1.33348
948.42696 1.33458
946.37852 1.33552
944.33008 1.33659
942.28164 1.33797
940.23321 1.33965
938.18477 1.34129
936.13633 1.34241
934.08789 1.34333
932.03945 1.34459
929.99101 1.34588
927.94258 1.34681
925.89414 1.34761
923.84570 1.34906
921.79726 1.35104
919.74882 1.35237
917.70038 1.35312
915.65195 1.35450
913.60351 1.35647
911.55507 1.35818
909.50663 1.35984
907.45819 1.36157
905.40975 1.36314
903.36132 1.36501
901.31288 1.36745
899.26444 1.36960
897.21600 1.37109
895.16756 1.37272
893.11912 1.37471
891.07069 1.37729
889.02225 1.38055
886.97381 1.38340
884.92537 1.38562
882.87693 1.38806
880.82849 1.39069
878.78006 1.39378
876.73162 1.39767
874.68318 1.40157
872.63474 1.40545
870.58630 1.41061
868.53786 1.41707
866.48943 1.42424
864.44099 1.43248
862.39255 1.44219
860.34411 1.45331
858.29567 1.46632
856.24723 1.48163
854.19880 1.49748
852.15036 1.50908
850.10192 1.49804
848.05348 1.41605
846.00504 1.24662
843.95660 1.06801
841.90817 0.94914
839.85973 0.90667
837.81129 0.93391
835.76285 1.00911
833.71441 1.09389
831.66597 1.15831
829.61753 1.20063
827.56910 1.22795
825.52066 1.24259
823.47222 1.24863
821.42378 1.25515
819.37534 1.26552
817.32690 1.27624
815.27847 1.28529
813.23003 1.29247
811.18159 1.29802
809.13315 1.30267
807.08471 1.30750
805.03627 1.31284
802.98784 1.31724
800.93940 1.32066
798.89096 1.32410
796.84252 1.32683
794.79408 1.32902
792.74564 1.33162
790.69721 1.33437
788.64877 1.33681
786.60033 1.33866
784.55189 1.34026
782.50345 1.34206
780.45501 1.34353
778.40658 1.34490
776.35814 1.34732
774.30970 1.35000
772.26126 1.35156
770.21282 1.35232
768.16438 1.35298
766.11595 1.35440
764.06751 1.35710
762.01907 1.35981
759.97063 1.36254
757.92219 1.36583
755.87375 1.36780
753.82532 1.36813
751.77688 1.36868
749.72844 1.37035
747.68000 1.37279
745.63156 1.37466
743.58312 1.37604
741.53469 1.37772
739.48625 1.37830
737.43781 1.37859
735.38937 1.38102
733.34093 1.38467
731.29249 1.38755
729.24406 1.38909
727.19562 1.38959
725.14718 1.39074
723.09874 1.39347
721.05030 1.39636
719.00186 1.39919
716.95343 1.40311
714.90499 1.40751
712.85655 1.40993
710.80811 1.41127
708.75967 1.41519
706.71123 1.42238
704.66280 1.43173
702.61436 1.44122
700.56592 1.44888
698.51748 1.45768
696.46904 1.47219
694.42060 1.48944
692.37216 1.50766
690.32373 1.53251
688.27529 1.57115
686.22685 1.61090
684.17841 1.57709
682.12997 1.36673
680.08153 1.10052
678.03310 0.94972
675.98466 0.94740
673.93622 1.03821
671.88778 1.12856
669.83934 1.18517
667.79090 1.23238
665.74247 1.25839
663.69403 1.26891
661.64559 1.27970
659.59715 1.29189
657.54871 1.30340
655.50027 1.31476
653.45184 1.32518
651.40340 1.33173
649.35496 1.33403
647.30652 1.33542
645.25808 1.33813
643.20964 1.33995
641.16121 1.34171
639.11277 1.34626
637.06433 1.35042
635.01589 1.35161
632.96745 1.35345
630.91901 1.35528
628.87058 1.35386
626.82214 1.35294
624.77370 1.35791
622.72526 1.36708
620.67682 1.36903
618.62838 1.36412
616.57995 1.36395
614.53151 1.36403
612.48307 1.35456
610.43463 1.34313
608.38619 1.34017
606.33775 1.33935
604.28932 1.34282
602.24088 1.35449
600.19244 1.35538
598.14400 1.34556
