3996.50324 1.76975
3994.45480 1.76957
3992.40636 1.76994
3990.35792 1.77215
3988.30948 1.77508
3986.26104 1.77587
3984.21261 1.77454
3982.16417 1.77392
3980.11573 1.77343
3978.06729 1.77233
3976.01885 1.77260
3973.97041 1.77354
3971.92198 1.77339
3969.87354 1.77199
3967.82510 1.76988
3965.77666 1.76875
3963.72822 1.76850
3961.67978 1.76745
3959.63135 1.76679
3957.58291 1.76749
3955.53447 1.76783
3953.48603 1.76718
3951.43759 1.76593
3949.38915 1.76622
3947.34072 1.76904
3945.29228 1.77017
3943.24384 1.77056
3941.19540 1.77285
3939.14696 1.77365
3937.09852 1.77250
3935.05009 1.77082
3933.00165 1.77010
3930.95321 1.77172
3928.90477 1.77296
3926.85633 1.77207
3924.80789 1.77199
3922.75946 1.77312
3920.71102 1.77240
3918.66258 1.77256
3916.61414 1.77585
3914.56570 1.77774
3912.51726 1.77712
3910.46883 1.77694
3908.42039 1.77709
3906.37195 1.77624
3904.32351 1.77631
3902.27507 1.77817
3900.22663 1.77941
3898.17820 1.77981
3896.12976 1.77993
3894.08132 1.77982
3892.03288 1.78167
3889.98444 1.78505
3887.93600 1.78378
3885.88756 1.78065
3883.83913 1.78111
3881.79069 1.78215
3879.74225 1.78479
3877.69381 1.78769
3875.64537 1.78815
3873.59693 1.78811
3871.54850 1.78776
3869.50006 1.78947
3867.45162 1.79128
3865.40318 1.78925
3863.35474 1.78893
3861.30630 1.79103
3859.25787 1.78936
3857.20943 1.78540
3855.16099 1.78242
3853.11255 1.78469
3851.06411 1.79226
3849.01567 1.79679
3846.96724 1.79719
3844.91880 1.79455
3842.87036 1.79250
3840.82192 1.79254
3838.77348 1.79378
3836.72504 1.79754
3834.67661 1.79937
3832.62817 1.79723
3830.57973 1.79582
3828.53129 1.79834
3826.48285 1.80243
3824.43441 1.80193
3822.38598 1.79686
3820.33754 1.79703
3818.28910 1.80085
3816.24066 1.80214
3814.19222 1.80238
3812.14378 1.79961
3810.09535 1.79567
3808.04691 1.79513
3805.99847 1.79773
3803.95003 1.79653
3801.90159 1.79442
3799.85315 1.79683
3797.80472 1.79855
3795.75628 1.80113
3793.70784 1.80434
3791.65940 1.80440
3789.61096 1.80197
3787.56252 1.79971
3785.51409 1.80000
3783.46565 1.80175
3781.41721 1.80211
3779.36877 1.80234
3777.32033 1.80463
3775.27189 1.80676
3773.22346 1.80684
3771.17502 1.80564
3769.12658 1.80523
3767.07814 1.80573
3765.02970 1.80668
3762.98126 1.80710
3760.93283 1.80559
3758.88439 1.80485
3756.83595 1.80508
3754.78751 1.80121
3752.73907 1.79440
3750.69063 1.79368
3748.64219 1.79692
3746.59376 1.79364
3744.54532 1.79166
3742.49688 1.79517
3740.44844 1.79507
3738.40000 1.79099
3736.35156 1.78561
3734.30313 1.78489
3732.25469 1.78941
3730.20625 1.79025
3728.15781 1.78711
3726.10937 1.78511
3724.06093 1.78587
3722.01250 1.78751
3719.96406 1.78977
3717.91562 1.78998
3715.86718 1.78751
3713.81874 1.78571
3711.77030 1.78848
3709.72187 1.79394
3707.67343 1.79572
3705.62499 1.79544
3703.57655 1.79520
3701.52811 1.79751
3699.47967 1.80125
3697.43124 1.80250
3695.38280 1.80274
3693.33436 1.80294
3691.28592 1.80164
3689.23748 1.80313
3687.18904 1.80936
3685.14061 1.81167
3683.09217 1.81095
3681.04373 1.81116
3678.99529 1.81104
3676.94685 1.80854
3674.89841 1.80874
3672.84998 1.81122
3670.80154 1.81158
3668.75310 1.81241
3666.70466 1.81328
3664.65622 1.81326
3662.60778 1.81282
3660.55935 1.81202
3658.51091 1.81117
3656.46247 1.81172
3654.41403 1.81446
3652.36559 1.81601
3650.31715 1.81416
3648.26872 1.81051
3646.22028 1.80814
3644.17184 1.80527
3642.12340 1.80161
3640.07496 1.79845
3638.02652 1.79637
3635.97809 1.79480
3633.92965 1.79213
3631.88121 1.78813
3629.83277 1.78892
3627.78433 1.79966
3625.73589 1.80582
3623.68746 1.80653
3621.63902 1.80732
3619.59058 1.80990
3617.54214 1.81223
3615.49370 1.81014
3613.44526 1.80598
3611.39682 1.80354
3609.34839 1.80240
3607.29995 1.80321
3605.25151 1.80422
3603.20307 1.80128
3601.15463 1.79716
3599.10619 1.79551
3597.05776 1.79344
3595.00932 1.79230
3592.96088 1.79534
3590.91244 1.79713
3588.86400 1.79596
3586.81556 1.79882
3584.76713 1.80375
3582.71869 1.80478
3580.67025 1.80392
3578.62181 1.80301
3576.57337 1.80258
3574.52493 1.80286
3572.47650 1.80298
3570.42806 1.80107
3568.37962 1.79734
3566.33118 1.79731
3564.28274 1.80244
3562.23430 1.80654
3560.18587 1.80890
3558.13743 1.81053
3556.08899 1.80995
3554.04055 1.80751
3551.99211 1.80640
3549.94367 1.80793
3547.89524 1.81044
3545.84680 1.81312
3543.79836 1.81561
3541.74992 1.81659
3539.70148 1.81598
3537.65304 1.81476
3535.60461 1.81391
3533.55617 1.81370
3531.50773 1.81294
3529.45929 1.81196
3527.41085 1.81235
3525.36241 1.81346
3523.31398 1.81416
3521.26554 1.81497
3519.21710 1.81602
3517.16866 1.81629
3515.12022 1.81598
3513.07178 1.81663
3511.02335 1.81804
3508.97491 1.81898
3506.92647 1.81928
3504.87803 1.81836
3502.82959 1.81708
3500.78115 1.81665
3498.73272 1.81681
3496.68428 1.81822
3494.63584 1.81983
3492.58740 1.82026
3490.53896 1.81985
3488.49052 1.81952
3486.44209 1.82006
3484.39365 1.81968
3482.34521 1.81849
3480.29677 1.81968
3478.24833 1.82198
3476.19989 1.82282
3474.15146 1.82388
3472.10302 1.82683
3470.05458 1.82955
3468.00614 1.82985
3465.95770 1.82863
3463.90926 1.82705
3461.86082 1.82608
3459.81239 1.82698
3457.76395 1.82935
3455.71551 1.83072
3453.66707 1.83044
3451.61863 1.83064
3449.57019 1.83136
3447.52176 1.83262
3445.47332 1.83480
3443.42488 1.83594
3441.37644 1.83594
3439.32800 1.83518
3437.27956 1.83306
3435.23113 1.83100
3433.18269 1.83037
3431.13425 1.83074
3429.08581 1.83027
3427.03737 1.82884
3424.98893 1.82826
3422.94050 1.82712
3420.89206 1.82466
3418.84362 1.82393
3416.79518 1.82561
3414.74674 1.82760
3412.69830 1.82907
3410.64987 1.83040
3408.60143 1.83003
3406.55299 1.82732
3404.50455 1.82433
3402.45611 1.82195
3400.40767 1.82110
3398.35924 1.82242
3396.31080 1.82433
3394.26236 1.82600
3392.21392 1.82778
3390.16548 1.82874
3388.11704 1.82750
3386.06861 1.82526
3384.02017 1.82425
3381.97173 1.82430
3379.92329 1.82456
3377.87485 1.82437
3375.82641 1.82325
3373.77798 1.82193
3371.72954 1.82203
3369.68110 1.82490
3367.63266 1.82807
3365.58422 1.82851
3363.53578 1.82765
3361.48735 1.82667
3359.43891 1.82544
3357.39047 1.82486
3355.34203 1.82502
3353.29359 1.82441
3351.24515 1.82320
3349.19672 1.82294
3347.14828 1.82316
3345.09984 1.82376
3343.05140 1.82471
3341.00296 1.82412
3338.95452 1.82197
3336.90609 1.82106
3334.85765 1.82251
3332.80921 1.82386
3330.76077 1.82313
3328.71233 1.82102
3326.66389 1.82050
3324.61545 1.82302
3322.56702 1.82516
3320.51858 1.82412
3318.47014 1.82157
3316.42170 1.82043
3314.37326 1.82155
3312.32482 1.82308
3310.27639 1.82177
3308.22795 1.81812
3306.17951 1.81723
3304.13107 1.81984
3302.08263 1.82196
3300.03419 1.82280
3297.98576 1.82341
3295.93732 1.82306
3293.88888 1.82179
3291.84044 1.82098
3289.79200 1.82102
3287.74356 1.82181
3285.69513 1.82217
3283.64669 1.82066
3281.59825 1.81944
3279.54981 1.81960
3277.50137 1.81901
3275.45293 1.81880
3273.40450 1.82068
3271.35606 1.82232
3269.30762 1.82139
3267.25918 1.81951
3265.21074 1.81884
3263.16230 1.81927
3261.11387 1.82017
3259.06543 1.82016
3257.01699 1.81982
3254.96855 1.82055
3252.92011 1.82090
3250.87167 1.82066
3248.82324 1.82048
3246.77480 1.81929
3244.72636 1.81769
3242.67792 1.81752
3240.62948 1.81758
3238.58104 1.81689
3236.53261 1.81764
3234.48417 1.81922
3232.43573 1.81978
3230.38729 1.82103
3228.33885 1.82238
3226.29041 1.82134
3224.24198 1.81946
3222.19354 1.81963
3220.14510 1.82138
3218.09666 1.82211
3216.04822 1.82088
3213.99978 1.81901
3211.95135 1.81904
3209.90291 1.82109
3207.85447 1.82223
3205.80603 1.82158
3203.75759 1.82127
3201.70915 1.82179
3199.66072 1.82128
3197.61228 1.82008
3195.56384 1.81924
3193.51540 1.81910
3191.46696 1.81996
3189.41852 1.82057
3187.37008 1.82047
3185.32165 1.82151
3183.27321 1.82348
3181.22477 1.82304
3179.17633 1.82094
3177.12789 1.82101
3175.07945 1.82149
3173.03102 1.82007
3170.98258 1.81962
3168.93414 1.82099
3166.88570 1.82193
3164.83726 1.82145
3162.78882 1.81958
3160.74039 1.81844
3158.69195 1.81894
3156.64351 1.82002
3154.59507 1.82193
3152.54663 1.82300
3150.49819 1.82126
3148.44976 1.81857
3146.40132 1.81664
3144.35288 1.81626
3142.30444 1.81762
3140.25600 1.81861
3138.20756 1.81800
3136.15913 1.81760
3134.11069 1.81888
3132.06225 1.82061
3130.01381 1.82133
3127.96537 1.82167
3125.91693 1.82286
3123.86850 1.82411
3121.82006 1.82425
3119.77162 1.82386
3117.72318 1.82325
3115.67474 1.82262
3113.62630 1.82292
3111.57787 1.82407
3109.52943 1.82487
3107.48099 1.82528
3105.43255 1.82608
3103.38411 1.82630
3101.33567 1.82593
3099.28724 1.82600
3097.23880 1.82646
3095.19036 1.82770
3093.14192 1.82916
3091.09348 1.82990
3089.04504 1.83081
3086.99661 1.83223
3084.94817 1.83297
3082.89973 1.83242
3080.85129 1.83050
3078.80285 1.82803
3076.75441 1.82750
3074.70598 1.82865
3072.65754 1.82878
3070.60910 1.82809
3068.56066 1.82811
3066.51222 1.82828
3064.46378 1.82789
3062.41535 1.82716
3060.36691 1.82643
3058.31847 1.82597
3056.27003 1.82480
3054.22159 1.82331
3052.17315 1.82309
3050.12471 1.82354
3048.07628 1.82387
3046.02784 1.82380
3043.97940 1.82293
3041.93096 1.82205
3039.88252 1.82265
3037.83408 1.82440
3035.78565 1.82524
3033.73721 1.82474
3031.68877 1.82360
3029.64033 1.82223
3027.59189 1.82169
3025.54345 1.82204
3023.49502 1.82184
3021.44658 1.82164
3019.39814 1.82262
3017.34970 1.82331
3015.30126 1.82342
3013.25282 1.82420
3011.20439 1.82499
3009.15595 1.82515
3007.10751 1.82519
3005.05907 1.82564
3003.01063 1.82638
3000.96219 1.82712
2998.91376 1.82791
2996.86532 1.82903
2994.81688 1.83025
2992.76844 1.83091
2990.72000 1.83136
2988.67156 1.83146
2986.62313 1.83050
2984.57469 1.82949
2982.52625 1.82917
2980.47781 1.82968
2978.42937 1.83160
2976.38093 1.83383
2974.33250 1.83438
2972.28406 1.83412
2970.23562 1.83500
2968.18718 1.83653
2966.13874 1.83798
2964.09030 1.83910
2962.04187 1.83937
2959.99343 1.83928
2957.94499 1.83896
2955.89655 1.83893
2953.84811 1.84019
2951.79967 1.84105
2949.75124 1.84038
2947.70280 1.83947
2945.65436 1.83905
2943.60592 1.83900
2941.55748 1.83900
2939.50904 1.83936
2937.46061 1.84107
2935.41217 1.84293
2933.36373 1.84289
2931.31529 1.84222
2929.26685 1.84310
2927.21841 1.84529
2925.16998 1.84747
2923.12154 1.84756
2921.07310 1.84525
2919.02466 1.84319
2916.97622 1.84267
2914.92778 1.84344
2912.87934 1.84425
2910.83091 1.84425
2908.78247 1.84454
2906.73403 1.84639
2904.68559 1.84868
2902.63715 1.84862
2900.58871 1.84762
2898.54028 1.84845
2896.49184 1.84989
2894.44340 1.84994
2892.39496 1.84831
2890.34652 1.84619
2888.29808 1.84575
2886.24965 1.84719
2884.20121 1.84876
2882.15277 1.85002
2880.10433 1.85163
2878.05589 1.85428
2876.00745 1.85618
2873.95902 1.85519
2871.91058 1.85326
2869.86214 1.85252
2867.81370 1.85285
2865.76526 1.85350
2863.71682 1.85383
2861.66839 1.85404
2859.61995 1.85471
2857.57151 1.85567
2855.52307 1.85695
2853.47463 1.85854
2851.42619 1.85921
2849.37776 1.85885
2847.32932 1.85855
2845.28088 1.85834
2843.23244 1.85803
2841.18400 1.85809
2839.13556 1.85838
2837.08713 1.85823
2835.03869 1.85751
2832.99025 1.85709
2830.94181 1.85779
2828.89337 1.85817
2826.84493 1.85740
2824.79650 1.85684
2822.74806 1.85750
2820.69962 1.85842
2818.65118 1.85796
2816.60274 1.85700
2814.55430 1.85687
2812.50587 1.85728
2810.45743 1.85786
2808.40899 1.85827
2806.36055 1.85809
2804.31211 1.85737
2802.26367 1.85699
2800.21524 1.85734
2798.16680 1.85839
2796.11836 1.85959
2794.06992 1.86013
2792.02148 1.86058
2789.97304 1.86077
2787.92461 1.86018
2785.87617 1.85931
2783.82773 1.85864
2781.77929 1.85879
2779.73085 1.85904
2777.68241 1.85882
2775.63397 1.85922
2773.58554 1.86007
2771.53710 1.85999
2769.48866 1.85945
2767.44022 1.85949
2765.39178 1.85929
2763.34334 1.85924
2761.29491 1.85977
2759.24647 1.85916
2757.19803 1.85772
2755.14959 1.85663
2753.10115 1.85618
2751.05271 1.85685
2749.00428 1.85793
2746.95584 1.85900
2744.90740 1.86014
2742.85896 1.85987
2740.81052 1.85874
2738.76208 1.85886
2736.71365 1.85976
2734.66521 1.86014
2732.61677 1.85980
2730.56833 1.86006
2728.51989 1.86147
2726.47145 1.86210
2724.42302 1.86097
2722.37458 1.85987
2720.32614 1.86027
2718.27770 1.86051
2716.22926 1.85945
2714.18082 1.85835
2712.13239 1.85739
2710.08395 1.85591
2708.03551 1.85453
2705.98707 1.85444
2703.93863 1.85542
2701.89019 1.85539
2699.84176 1.85401
2697.79332 1.85323
2695.74488 1.85350
2693.69644 1.85390
2691.64800 1.85394
2689.59956 1.85419
2687.55113 1.85524
2685.50269 1.85606
2683.45425 1.85563
2681.40581 1.85477
2679.35737 1.85382
2677.30893 1.85227
2675.26050 1.85133
2673.21206 1.85196
2671.16362 1.85293
2669.11518 1.85323
2667.06674 1.85350
2665.01830 1.85381
2662.96987 1.85399
2660.92143 1.85421
2658.87299 1.85369
2656.82455 1.85299
2654.77611 1.85295
2652.72767 1.85303
2650.67924 1.85278
2648.63080 1.85186
2646.58236 1.85042
2644.53392 1.84876
2642.48548 1.84789
2640.43704 1.84891
2638.38860 1.85105
2636.34017 1.85242
2634.29173 1.85186
2632.24329 1.85083
2630.19485 1.85034
2628.14641 1.84945
2626.09797 1.84849
2624.04954 1.84826
2622.00110 1.84883
2619.95266 1.84964
2617.90422 1.84955
2615.85578 1.84835
2613.80734 1.84666
2611.75891 1.84531
2609.71047 1.84519
2607.66203 1.84652
2605.61359 1.84820
2603.56515 1.84872
2601.51671 1.84810
2599.46828 1.84736
2597.41984 1.84720
2595.37140 1.84760
2593.32296 1.84775
2591.27452 1.84802
2589.22608 1.84934
2587.17765 1.85095
2585.12921 1.85216
2583.08077 1.85241
2581.03233 1.85114
2578.98389 1.85019
2576.93545 1.85075
2574.88702 1.85055
2572.83858 1.84942
2570.79014 1.85000
2568.74170 1.85186
2566.69326 1.85336
2564.64482 1.85514
2562.59639 1.85671
2560.54795 1.85641
2558.49951 1.85499
2556.45107 1.85460
2554.40263 1.85593
2552.35419 1.85778
2550.30576 1.85930
2548.25732 1.86095
2546.20888 1.86220
2544.16044 1.86227
2542.11200 1.86245
2540.06356 1.86317
2538.01513 1.86366
2535.96669 1.86350
2533.91825 1.86234
2531.86981 1.86194
2529.82137 1.86303
2527.77293 1.86408
2525.72450 1.86516
2523.67606 1.86597
2521.62762 1.86576
2519.57918 1.86541
2517.53074 1.86507
2515.48230 1.86430
2513.43387 1.86432
2511.38543 1.86567
2509.33699 1.86672
2507.28855 1.86658
2505.24011 1.86646
2503.19167 1.86648
2501.14324 1.86569
2499.09480 1.86563
2497.04636 1.86719
2494.99792 1.86901
2492.94948 1.87001
2490.90104 1.87017
2488.85260 1.87069
2486.80417 1.87127
2484.75573 1.87055
2482.70729 1.86967
2480.65885 1.87000
2478.61041 1.87056
2476.56197 1.87094
2474.51354 1.87203
2472.46510 1.87369
2470.41666 1.87465
2468.36822 1.87481
2466.31978 1.87471
2464.27134 1.87357
2462.22291 1.87144
2460.17447 1.87018
2458.12603 1.87083
2456.07759 1.87185
2454.02915 1.87222
2451.98071 1.87276
2449.93228 1.87319
2447.88384 1.87239
2445.83540 1.87122
2443.78696 1.87210
2441.73852 1.87443
2439.69008 1.87587
2437.64165 1.87686
2435.59321 1.87760
2433.54477 1.87667
2431.49633 1.87510
2429.44789 1.87473
2427.39945 1.87563
2425.35102 1.87715
2423.30258 1.87839
2421.25414 1.87930
2419.20570 1.87998
2417.15726 1.87934
2415.10882 1.87762
2413.06039 1.87713
2411.01195 1.87784
2408.96351 1.87687
2406.91507 1.87399
2404.86663 1.87153
2402.81819 1.87052
2400.76976 1.87050
2398.72132 1.87042
2396.67288 1.86996
2394.62444 1.86945
2392.57600 1.86917
2390.52756 1.86954
2388.47913 1.86969
2386.43069 1.86887
2384.38225 1.86814
2382.33381 1.86777
2380.28537 1.86835
2378.23693 1.87037
2376.18850 1.87065
2374.14006 1.86813
2372.09162 1.86779
2370.04318 1.87020
2367.99474 1.86834
2365.94630 1.86120
2363.89787 1.85739
2361.84943 1.86050
2359.80099 1.86631
2357.75255 1.87047
2355.70411 1.86824
2353.65567 1.86510
2351.60723 1.86752
2349.55880 1.86931
2347.51036 1.86624
2345.46192 1.86032
2343.41348 1.85611
2341.36504 1.85722
2339.31660 1.86246
2337.26817 1.86417
2335.21973 1.86018
2333.17129 1.85786
2331.12285 1.85997
2329.07441 1.86139
2327.02597 1.85931
2324.97754 1.85748
2322.92910 1.85793
2320.88066 1.85918
2318.83222 1.86026
2316.78378 1.85970
2314.73534 1.85859
2312.68691 1.85938
2310.63847 1.86031
2308.59003 1.85894
2306.54159 1.85623
2304.49315 1.85412
2302.44471 1.85376
2300.39628 1.85433
2298.34784 1.85411
2296.29940 1.85440
2294.25096 1.85548
2292.20252 1.85436
2290.15408 1.85130
2288.10565 1.84903
2286.05721 1.84859
2284.00877 1.84887
2281.96033 1.84875
2279.91189 1.84872
2277.86345 1.84848
2275.81502 1.84803
2273.76658 1.84849
2271.71814 1.84869
2269.66970 1.84727
2267.62126 1.84620
2265.57282 1.84708
2263.52439 1.84807
2261.47595 1.84745
2259.42751 1.84628
2257.37907 1.84629
2255.33063 1.84745
2253.28219 1.84828
2251.23376 1.84790
2249.18532 1.84668
2247.13688 1.84597
2245.08844 1.84612
2243.04000 1.84626
2240.99156 1.84668
2238.94313 1.84745
2236.89469 1.84793
2234.84625 1.84852
2232.79781 1.84954
2230.74937 1.85039
2228.70093 1.85029
2226.65250 1.84929
2224.60406 1.84914
2222.55562 1.85111
2220.50718 1.85259
2218.45874 1.85128
2216.41030 1.84890
2214.36186 1.84732
2212.31343 1.84640
2210.26499 1.84565
2208.21655 1.84591
2206.16811 1.84713
2204.11967 1.84685
2202.07123 1.84559
2200.02280 1.84577
2197.97436 1.84670
2195.92592 1.84661
2193.87748 1.84639
2191.82904 1.84776
2189.78060 1.84905
2187.73217 1.84944
2185.68373 1.85069
2183.63529 1.85119
2181.58685 1.84999
2179.53841 1.84969
2177.48997 1.85006
2175.44154 1.84993
2173.39310 1.85031
2171.34466 1.85094
2169.29622 1.85137
2167.24778 1.85264
2165.19934 1.85495
2163.15091 1.85743
2161.10247 1.86018
2159.05403 1.86259
2157.00559 1.86345
2154.95715 1.86449
2152.90871 1.86677
2150.86028 1.86748
2148.81184 1.86620
2146.76340 1.86494
2144.71496 1.86353
2142.66652 1.86216
2140.61808 1.86158
2138.56965 1.86140
2136.52121 1.86099
2134.47277 1.86015
2132.42433 1.85928
2130.37589 1.85814
2128.32745 1.85716
2126.27902 1.85737
2124.23058 1.85788
2122.18214 1.85788
2120.13370 1.85786
2118.08526 1.85823
2116.03682 1.85928
2113.98839 1.86026
2111.93995 1.86091
2109.89151 1.86273
2107.84307 1.86581
2105.79463 1.86844
2103.74619 1.87018
2101.69776 1.87169
2099.64932 1.87271
2097.60088 1.87294
2095.55244 1.87208
2093.50400 1.87064
2091.45556 1.87058
2089.40713 1.87236
2087.35869 1.87287
2085.31025 1.87075
2083.26181 1.86987
2081.21337 1.87154
2079.16493 1.87356
2077.11649 1.87542
2075.06806 1.87709
2073.01962 1.87856
2070.97118 1.88031
2068.92274 1.88215
2066.87430 1.88365
2064.82586 1.88496
2062.77743 1.88656
2060.72899 1.88802
2058.68055 1.88903
2056.63211 1.89103
2054.58367 1.89318
2052.53523 1.89389
2050.48680 1.89449
2048.43836 1.89479
2046.38992 1.89380
2044.34148 1.89244
2042.29304 1.89121
2040.24460 1.89000
2038.19617 1.88837
2036.14773 1.88600
2034.09929 1.88404
2032.05085 1.88289
2030.00241 1.88129
2027.95397 1.87840
2025.90554 1.87530
2023.85710 1.87363
2021.80866 1.87282
2019.76022 1.87154
2017.71178 1.87041
2015.66334 1.87014
2013.61491 1.86914
2011.56647 1.86732
2009.51803 1.86686
2007.46959 1.86747
2005.42115 1.86726
2003.37271 1.86624
2001.32428 1.86569
1999.27584 1.86555
1997.22740 1.86406
1995.17896 1.86133
1993.13052 1.85965
1991.08208 1.85990
1989.03365 1.86059
1986.98521 1.86051
1984.93677 1.85929
1982.88833 1.85754
1980.83989 1.85713
1978.79145 1.85728
1976.74302 1.85628
1974.69458 1.85554
1972.64614 1.85504
1970.59770 1.85376
1968.54926 1.85266
1966.50082 1.85247
1964.45239 1.85276
1962.40395 1.85259
1960.35551 1.85212
1958.30707 1.85247
1956.25863 1.85337
1954.21019 1.85331
1952.16176 1.85260
1950.11332 1.85273
1948.06488 1.85409
1946.01644 1.85589
1943.96800 1.85664
1941.91956 1.85720
1939.87112 1.85897
1937.82269 1.85991
1935.77425 1.85958
1933.72581 1.85999
1931.67737 1.86064
1929.62893 1.86086
1927.58049 1.86214
1925.53206 1.86351
1923.48362 1.86390
1921.43518 1.86426
1919.38674 1.86476
1917.33830 1.86598
1915.28986 1.86757
1913.24143 1.86934
1911.19299 1.87210
1909.14455 1.87499
1907.09611 1.87726
1905.04767 1.87845
1902.99923 1.87818
1900.95080 1.87799
1898.90236 1.87929
1896.85392 1.88120
1894.80548 1.88244
1892.75704 1.88244
1890.70860 1.88301
1888.66017 1.88686
1886.61173 1.89099
1884.56329 1.89189
1882.51485 1.89108
1880.46641 1.89092
1878.41797 1.89169
1876.36954 1.89256
1874.32110 1.89283
1872.27266 1.89227
1870.22422 1.89211
1868.17578 1.89343
1866.12734 1.89488
1864.07891 1.89615
1862.03047 1.89769
1859.98203 1.89953
1857.93359 1.90179
1855.88515 1.90304
1853.83671 1.90260
1851.78828 1.90246
1849.73984 1.90357
1847.69140 1.90503
1845.64296 1.90713
1843.59452 1.91110
1841.54608 1.91359
1839.49765 1.91379
1837.44921 1.91487
1835.40077 1.91730
1833.35233 1.91867
1831.30389 1.91851
1829.25545 1.91979
1827.20702 1.92268
1825.15858 1.92526
1823.11014 1.92776
1821.06170 1.92941
1819.01326 1.92945
1816.96482 1.92862
1814.91639 1.92833
1812.86795 1.92899
1810.81951 1.93051
1808.77107 1.93213
1806.72263 1.93327
1804.67419 1.93447
1802.62575 1.93661
1800.57732 1.94001
1798.52888 1.94297
1796.48044 1.94415
1794.43200 1.94467
1792.38356 1.94793
1790.33512 1.95407
1788.28669 1.95808
1786.23825 1.95951
1784.18981 1.96038
1782.14137 1.96200
1780.09293 1.96428
1778.04449 1.96699
1775.99606 1.96935
1773.94762 1.97081
1771.89918 1.97366
1769.85074 1.97841
1767.80230 1.98115
1765.75386 1.98119
1763.70543 1.98011
1761.65699 1.98058
1759.60855 1.98380
1757.56011 1.98842
1755.51167 1.99280
1753.46323 1.99474
1751.41480 1.99658
1749.36636 2.00302
1747.31792 2.01089
1745.26948 2.01436
1743.22104 2.01270
1741.17260 2.00873
1739.12417 2.00630
1737.07573 2.00527
1735.02729 2.00431
1732.97885 2.00321
1730.93041 1.99810
1728.88197 1.99031
1726.83354 1.98413
1724.78510 1.98090
1722.73666 1.98140
1720.68822 1.98355
1718.63978 1.98541
1716.59134 1.98960
1714.54291 1.99460
1712.49447 1.99793
1710.44603 2.00063
1708.39759 2.00329
1706.34915 2.00649
1704.30071 2.01009
1702.25228 2.01233
1700.20384 2.01282
1698.15540 2.01377
1696.10696 2.01617
1694.05852 2.01985
1692.01008 2.02326
1689.96165 2.02627
1687.91321 2.02884
1685.86477 2.03026
1683.81633 2.03390
1681.76789 2.03997
1679.71945 2.04161
1677.67102 2.03994
1675.62258 2.04049
1673.57414 2.04549
1671.52570 2.04986
1669.47726 2.05345
1667.42882 2.05760
1665.38038 2.05862
1663.33195 2.05738
1661.28351 2.05951
1659.23507 2.06472
1657.18663 2.06884
1655.13819 2.07195
1653.08975 2.07408
1651.04132 2.07199
1648.99288 2.07112
1646.94444 2.07481
1644.89600 2.08102
1642.84756 2.08501
1640.79912 2.08875
1638.75069 2.09248
1636.70225 2.09483
1634.65381 2.09920
1632.60537 2.10413
1630.55693 2.10575
1628.50849 2.10607
1626.46006 2.10901
1624.41162 2.11408
1622.36318 2.11932
1620.31474 2.12206
1618.26630 2.12334
1616.21786 2.12905
1614.16943 2.13710
1612.12099 2.14235
1610.07255 2.14769
1608.02411 2.15454
1605.97567 2.16033
1603.92723 2.16422
1601.87880 2.16741
1599.83036 2.17159
1597.78192 2.17633
1595.73348 2.18182
1593.68504 2.18935
1591.63660 2.19717
1589.58817 2.20274
1587.53973 2.20646
1585.49129 2.20952
1583.44285 2.21531
1581.39441 2.22497
1579.34597 2.23294
1577.29754 2.23986
1575.24910 2.25112
1573.20066 2.26179
1571.15222 2.26917
1569.10378 2.27688
1567.05534 2.28472
1565.00691 2.29309
1562.95847 2.29998
1560.91003 2.30185
1558.86159 2.30952
1556.81315 2.32527
1554.76471 2.33831
1552.71628 2.35508
1550.66784 2.37330
1548.61940 2.38373
1546.57096 2.38858
1544.52252 2.39798
1542.47408 2.42063
1540.42565 2.45579
1538.37721 2.47266
1536.32877 2.47538
1534.28033 2.48068
1532.23189 2.49218
1530.18345 2.49700
1528.13501 2.49780
1526.08658 2.49683
1524.03814 2.49958
1521.98970 2.50160
1519.94126 2.49113
1517.89282 2.46245
1515.84438 2.42007
1513.79595 2.37963
1511.74751 2.33612
1509.69907 2.28694
1507.65063 2.18885
1505.60219 2.05798
1503.55375 1.99040
1501.50532 1.93359
1499.45688 1.86258
1497.40844 1.77505
1495.36000 1.69530
1493.31156 1.64297
1491.26312 1.59531
1489.21469 1.53696
1487.16625 1.48915
1485.11781 1.45724
1483.06937 1.43099
1481.02093 1.40691
1478.97249 1.38738
1476.92406 1.37158
1474.87562 1.35705
1472.82718 1.34300
1470.77874 1.33238
1468.73030 1.32600
1466.68186 1.31947
1464.63343 1.31171
1462.58499 1.30568
1460.53655 1.30122
1458.48811 1.29533
1456.43967 1.28936
1454.39123 1.28722
1452.34280 1.28564
1450.29436 1.28371
1448.24592 1.28202
1446.19748 1.28157
1444.14904 1.28218
1442.10060 1.28360
1440.05217 1.28574
1438.00373 1.28928
1435.95529 1.29630
1433.90685 1.30406
1431.85841 1.31067
1429.80997 1.31831
1427.76154 1.32578
1425.71310 1.33111
1423.66466 1.33489
1421.61622 1.33629
1419.56778 1.33358
1417.51934 1.32749
1415.47091 1.32070
1413.42247 1.31197
1411.37403 1.30098
1409.32559 1.28921
1407.27715 1.27770
1405.22871 1.26589
1403.18028 1.25541
1401.13184 1.24733
1399.08340 1.24035
1397.03496 1.23551
1394.98652 1.23380
1392.93808 1.23470
1390.88965 1.23675
1388.84121 1.24008
1386.79277 1.24651
1384.74433 1.25567
1382.69589 1.26629
1380.64745 1.27945
1378.59901 1.29520
1376.55058 1.31238
1374.50214 1.33196
1372.45370 1.35191
1370.40526 1.36857
1368.35682 1.38427
1366.30838 1.39883
1364.25995 1.41163
1362.21151 1.42555
1360.16307 1.43909
1358.11463 1.45040
1356.06619 1.46098
1354.01775 1.47154
1351.96932 1.48204
1349.92088 1.49212
1347.87244 1.50111
1345.82400 1.50940
1343.77556 1.51703
1341.72712 1.52374
1339.67869 1.53096
1337.63025 1.53875
1335.58181 1.54539
1333.53337 1.55119
1331.48493 1.55693
1329.43649 1.56271
1327.38806 1.56816
1325.33962 1.57293
1323.29118 1.57727
1321.24274 1.58105
1319.19430 1.58420
1317.14586 1.58764
1315.09743 1.59172
1313.04899 1.59558
1311.00055 1.59893
1308.95211 1.60183
1306.90367 1.60459
1304.85523 1.60738
1302.80680 1.60993
1300.75836 1.61214
1298.70992 1.61430
1296.66148 1.61679
1294.61304 1.61953
1292.56460 1.62248
1290.51617 1.62525
1288.46773 1.62790
1286.41929 1.63094
1284.37085 1.63406
1282.32241 1.63685
1280.27397 1.63942
1278.22554 1.64194
1276.17710 1.64493
1274.12866 1.64855
1272.08022 1.65198
1270.03178 1.65509
1267.98334 1.65803
1265.93491 1.66045
1263.88647 1.66247
1261.83803 1.66516
1259.78959 1.66875
1257.74115 1.67206
1255.69271 1.67489
1253.64428 1.67784
1251.59584 1.68066
1249.54740 1.68315
1247.49896 1.68580
1245.45052 1.68834
1243.40208 1.69058
1241.35364 1.69298
1239.30521 1.69520
1237.25677 1.69701
1235.20833 1.69920
1233.15989 1.70139
1231.11145 1.70324
1229.06301 1.70553
1227.01458 1.70779
1224.96614 1.70950
1222.91770 1.71080
1220.86926 1.71215
1218.82082 1.71400
1216.77238 1.71594
1214.72395 1.71767
1212.67551 1.71925
1210.62707 1.72101
1208.57863 1.72323
1206.53019 1.72515
1204.48175 1.72650
1202.43332 1.72812
1200.38488 1.72969
1198.33644 1.73066
1196.28800 1.73196
1194.23956 1.73390
1192.19112 1.73553
1190.14269 1.73685
1188.09425 1.73832
1186.04581 1.73978
1183.99737 1.74142
1181.94893 1.74296
1179.90049 1.74406
1177.85206 1.74594
1175.80362 1.74830
1173.75518 1.74917
1171.70674 1.74932
1169.65830 1.75097
1167.60986 1.75329
1165.56143 1.75431
1163.51299 1.75463
1161.46455 1.75563
1159.41611 1.75735
1157.36767 1.75870
1155.31923 1.75924
1153.27080 1.75986
1151.22236 1.76058
1149.17392 1.76114
1147.12548 1.76234
1145.07704 1.76411
1143.02860 1.76519
1140.98017 1.76583
1138.93173 1.76725
1136.88329 1.76944
1134.83485 1.77119
1132.78641 1.77147
1130.73797 1.77062
1128.68954 1.77015
1126.64110 1.77130
1124.59266 1.77373
1122.54422 1.77551
1120.49578 1.77579
1118.44734 1.77601
1116.39891 1.77744
1114.35047 1.77973
1112.30203 1.78100
1110.25359 1.78082
1108.20515 1.78029
1106.15671 1.77968
1104.10827 1.77930
1102.05984 1.77921
1100.01140 1.77896
1097.96296 1.77865
1095.91452 1.77880
1093.86608 1.77923
1091.81764 1.77999
1089.76921 1.78119
1087.72077 1.78294
1085.67233 1.78490
1083.62389 1.78606
1081.57545 1.78698
1079.52701 1.78836
1077.47858 1.79041
1075.43014 1.79313
1073.38170 1.79581
1071.33326 1.79782
1069.28482 1.79946
1067.23638 1.80157
1065.18795 1.80478
1063.13951 1.80953
1061.09107 1.81779
1059.04263 1.83118
1056.99419 1.84516
1054.94575 1.81911
1052.89732 1.73811
1050.84888 1.68535
1048.80044 1.69858
1046.75200 1.73233
1044.70356 1.75149
1042.65512 1.76027
1040.60669 1.76394
1038.55825 1.76625
1036.50981 1.76916
1034.46137 1.77240
1032.41293 1.77486
1030.36449 1.77612
1028.31606 1.77648
1026.26762 1.77730
1024.21918 1.77922
1022.17074 1.78138
1020.12230 1.78310
1018.07386 1.78459
1016.02543 1.78615
1013.97699 1.78820
1011.92855 1.79018
1009.88011 1.79167
1007.83167 1.79253
1005.78323 1.79270
1003.73480 1.79434
1001.68636 1.79691
999.63792 1.79811
997.58948 1.79879
995.54104 1.80022
993.49260 1.80113
991.44417 1.80155
989.39573 1.80219
987.34729 1.80153
985.29885 1.80018
983.25041 1.80013
981.20197 1.80163
979.15354 1.80380
977.10510 1.80528
975.05666 1.80579
973.00822 1.80560
970.95978 1.80540
968.91134 1.80619
966.86290 1.80777
964.81447 1.81094
962.76603 1.81477
960.71759 1.81625
958.66915 1.81569
956.62071 1.81527
954.57227 1.81603
952.52384 1.81703
950.47540 1.81751
948.42696 1.81720
946.37852 1.81675
944.33008 1.81758
942.28164 1.81899
940.23321 1.82055
938.18477 1.82289
936.13633 1.82440
934.08789 1.82445
932.03945 1.82547
929.99101 1.82860
927.94258 1.83200
925.89414 1.83346
923.84570 1.83335
921.79726 1.83378
919.74882 1.83507
917.70038 1.83582
915.65195 1.83587
913.60351 1.83612
911.55507 1.83812
909.50663 1.84137
907.45819 1.84375
905.40975 1.84553
903.36132 1.84793
901.31288 1.85080
899.26444 1.85278
897.21600 1.85349
895.16756 1.85369
893.11912 1.85505
891.07069 1.85799
889.02225 1.86124
886.97381 1.86507
884.92537 1.86888
882.87693 1.87037
880.82849 1.87131
878.78006 1.87449
876.73162 1.87752
874.68318 1.87979
872.63474 1.88429
870.58630 1.89133
868.53786 1.89888
866.48943 1.90530
864.44099 1.91289
862.39255 1.92508
860.34411 1.93675
858.29567 1.94569
856.24723 1.95864
854.19880 1.97522
852.15036 1.99156
850.10192 1.99855
848.05348 1.95067
846.00504 1.79765
843.95660 1.60821
841.90817 1.48099
839.85973 1.44553
837.81129 1.48542
835.76285 1.56136
833.71441 1.63219
831.66597 1.68285
829.61753 1.71883
827.56910 1.74314
825.52066 1.75593
823.47222 1.76099
821.42378 1.76699
819.37534 1.77754
817.32690 1.78880
815.27847 1.79615
813.23003 1.79868
811.18159 1.80218
809.13315 1.80823
807.08471 1.81401
805.03627 1.82025
802.98784 1.82510
800.93940 1.82647
798.89096 1.82693
796.84252 1.82905
794.79408 1.83245
792.74564 1.83456
790.69721 1.83459
788.64877 1.83393
786.60033 1.83451
784.55189 1.83745
782.50345 1.84147
780.45501 1.84516
778.40658 1.84646
776.35814 1.84493
774.30970 1.84381
772.26126 1.84561
770.21282 1.84953
768.16438 1.85268
766.11595 1.85320
764.06751 1.85184
762.01907 1.85226
759.97063 1.85621
757.92219 1.86215
755.87375 1.86560
753.82532 1.86419
751.77688 1.86451
749.72844 1.86905
747.68000 1.87316
745.63156 1.87628
743.58312 1.87849
741.53469 1.87917
739.48625 1.88080
737.43781 1.88419
735.38937 1.88870
733.34093 1.89021
731.29249 1.88532
729.24406 1.88113
727.19562 1.88272
725.14718 1.88695
723.09874 1.88976
721.05030 1.89170
719.00186 1.89720
716.95343 1.90440
714.90499 1.90712
712.85655 1.90657
710.80811 1.91043
708.75967 1.91769
706.71123 1.92302
704.66280 1.92998
702.61436 1.93833
700.56592 1.94769
698.51748 1.96233
696.46904 1.97242
694.42060 1.97659
692.37216 1.99314
690.32373 2.02226
688.27529 2.06309
686.22685 2.10250
684.17841 2.01376
682.12997 1.77298
680.08153 1.55845
678.03310 1.45878
675.98466 1.47688
673.93622 1.56328
671.88778 1.64284
669.83934 1.69046
667.79090 1.72813
665.74247 1.75116
663.69403 1.76025
661.64559 1.76680
659.59715 1.77666
657.54871 1.79598
655.50027 1.81172
653.45184 1.81069
651.40340 1.81268
649.35496 1.82528
647.30652 1.83175
645.25808 1.82594
643.20964 1.81505
641.16121 1.81173
639.11277 1.82424
637.06433 1.83965
635.01589 1.83260
632.96745 1.80832
630.91901 1.79855
628.87058 1.80859
626.82214 1.82679
624.77370 1.84120
622.72526 1.83483
620.67682 1.81828
618.62838 1.81548
616.57995 1.82311
614.53151 1.82491
612.48307 1.82141
610.43463 1.81526
608.38619 1.81896
606.33775 1.84698
604.28932 1.87214
602.24088 1.85713
600.19244 1.81975
598.14400 1.80052
