3996.50324 2.11486
3994.45480 2.11490
3992.40636 2.11613
3990.35792 2.11570
3988.30948 2.11053
3986.26104 2.10484
3984.21261 2.10382
3982.16417 2.10261
3980.11573 2.09881
3978.06729 2.09824
3976.01885 2.10155
3973.97041 2.10490
3971.92198 2.10543
3969.87354 2.10230
3967.82510 2.09670
3965.77666 2.09250
3963.72822 2.09161
3961.67978 2.09219
3959.63135 2.09219
3957.58291 2.09185
3955.53447 2.09332
3953.48603 2.09490
3951.43759 2.09289
3949.38915 2.09179
3947.34072 2.09635
3945.29228 2.09765
3943.24384 2.09667
3941.19540 2.10041
3939.14696 2.10289
3937.09852 2.10171
3935.05009 2.09591
3933.00165 2.09279
3930.95321 2.10345
3928.90477 2.11193
3926.85633 2.10653
3924.80789 2.10336
3922.75946 2.10612
3920.71102 2.10302
3918.66258 2.10210
3916.61414 2.11096
3914.56570 2.11888
3912.51726 2.12067
3910.46883 2.12061
3908.42039 2.11602
3906.37195 2.10503
3904.32351 2.10213
3902.27507 2.11825
3900.22663 2.14273
3898.17820 2.16111
3896.12976 2.15804
3894.08132 2.14114
3892.03288 2.13778
3889.98444 2.14994
3887.93600 2.14584
3885.88756 2.13781
3883.83913 2.14364
3881.79069 2.14731
3879.74225 2.16060
3877.69381 2.17058
3875.64537 2.15927
3873.59693 2.15068
3871.54850 2.15645
3869.50006 2.17883
3867.45162 2.19205
3865.40318 2.18117
3863.35474 2.18074
3861.30630 2.18974
3859.25787 2.18387
3857.20943 2.16181
3855.16099 2.13895
3853.11255 2.17008
3851.06411 2.21898
3849.01567 2.21999
3846.96724 2.20586
3844.91880 2.18945
3842.87036 2.17775
3840.82192 2.17170
3838.77348 2.17672
3836.72504 2.19579
3834.67661 2.19998
3832.62817 2.19664
3830.57973 2.20389
3828.53129 2.20992
3826.48285 2.20919
3824.43441 2.20007
3822.38598 2.18630
3820.33754 2.19916
3818.28910 2.21626
3816.24066 2.22086
3814.19222 2.22963
3812.14378 2.22802
3810.09535 2.22070
3808.04691 2.21791
3805.99847 2.21967
3803.95003 2.21208
3801.90159 2.20901
3799.85315 2.22789
3797.80472 2.23586
3795.75628 2.23469
3793.70784 2.23183
3791.65940 2.22665
3789.61096 2.22641
3787.56252 2.22431
3785.51409 2.21672
3783.46565 2.21575
3781.41721 2.21890
3779.36877 2.22671
3777.32033 2.23884
3775.27189 2.24124
3773.22346 2.23542
3771.17502 2.22941
3769.12658 2.23264
3767.07814 2.24254
3765.02970 2.25029
3762.98126 2.24489
3760.93283 2.22528
3758.88439 2.21838
3756.83595 2.22895
3754.78751 2.22379
3752.73907 2.20018
3750.69063 2.19724
3748.64219 2.21794
3746.59376 2.21625
3744.54532 2.21960
3742.49688 2.23194
3740.44844 2.21438
3738.40000 2.18331
3736.35156 2.16873
3734.30313 2.18709
3732.25469 2.20409
3730.20625 2.19804
3728.15781 2.18246
3726.10937 2.17132
3724.06093 2.17012
3722.01250 2.17197
3719.96406 2.17214
3717.91562 2.16647
3715.86718 2.15284
3713.81874 2.13405
3711.77030 2.12984
3709.72187 2.15153
3707.67343 2.16098
3705.62499 2.15431
3703.57655 2.14793
3701.52811 2.15402
3699.47967 2.16327
3697.43124 2.16421
3695.38280 2.15823
3693.33436 2.14401
3691.28592 2.13399
3689.23748 2.15269
3687.18904 2.17708
3685.14061 2.17500
3683.09217 2.16045
3681.04373 2.14434
3678.99529 2.12600
3676.94685 2.11071
3674.89841 2.12786
3672.84998 2.14358
3670.80154 2.14127
3668.75310 2.15857
3666.70466 2.16559
3664.65622 2.15011
3662.60778 2.13301
3660.55935 2.12118
3658.51091 2.11359
3656.46247 2.12064
3654.41403 2.13189
3652.36559 2.11675
3650.31715 2.09743
3648.26872 2.12894
3646.22028 2.16095
3644.17184 2.15166
3642.12340 2.13072
3640.07496 2.11537
3638.02652 2.10641
3635.97809 2.10179
3633.92965 2.09949
3631.88121 2.09167
3629.83277 2.08936
3627.78433 2.12278
3625.73589 2.14042
3623.68746 2.12594
3621.63902 2.10891
3619.59058 2.11311
3617.54214 2.13319
3615.49370 2.13004
3613.44526 2.11876
3611.39682 2.11746
3609.34839 2.11545
3607.29995 2.12033
3605.25151 2.12577
3603.20307 2.11627
3601.15463 2.10590
3599.10619 2.10485
3597.05776 2.10561
3595.00932 2.11459
3592.96088 2.12711
3590.91244 2.11969
3588.86400 2.10495
3586.81556 2.11793
3584.76713 2.13937
3582.71869 2.14007
3580.67025 2.13541
3578.62181 2.13606
3576.57337 2.13750
3574.52493 2.13728
3572.47650 2.13414
3570.42806 2.12313
3568.37962 2.11551
3566.33118 2.13704
3564.28274 2.16185
3562.23430 2.16166
3560.18587 2.15516
3558.13743 2.15479
3556.08899 2.15638
3554.04055 2.15740
3551.99211 2.16185
3549.94367 2.16433
3547.89524 2.15950
3545.84680 2.15882
3543.79836 2.16574
3541.74992 2.16938
3539.70148 2.16828
3537.65304 2.16758
3535.60461 2.16987
3533.55617 2.17214
3531.50773 2.17173
3529.45929 2.16950
3527.41085 2.16958
3525.36241 2.17431
3523.31398 2.18172
3521.26554 2.18706
3519.21710 2.18605
3517.16866 2.18313
3515.12022 2.18349
3513.07178 2.18534
3511.02335 2.18655
3508.97491 2.18683
3506.92647 2.18599
3504.87803 2.18612
3502.82959 2.19202
3500.78115 2.19905
3498.73272 2.19780
3496.68428 2.19484
3494.63584 2.19804
3492.58740 2.20002
3490.53896 2.19702
3488.49052 2.19753
3486.44209 2.20593
3484.39365 2.21501
3482.34521 2.21832
3480.29677 2.21842
3478.24833 2.21918
3476.19989 2.22340
3474.15146 2.23215
3472.10302 2.24171
3470.05458 2.24732
3468.00614 2.24783
3465.95770 2.24935
3463.90926 2.25789
3461.86082 2.27051
3459.81239 2.28101
3457.76395 2.28731
3455.71551 2.29032
3453.66707 2.28951
3451.61863 2.28602
3449.57019 2.28624
3447.52176 2.29150
3445.47332 2.29418
3443.42488 2.29228
3441.37644 2.28948
3439.32800 2.28354
3437.27956 2.27418
3435.23113 2.26689
3433.18269 2.26079
3431.13425 2.25179
3429.08581 2.24701
3427.03737 2.25026
3424.98893 2.24935
3422.94050 2.24492
3420.89206 2.24678
3418.84362 2.24910
3416.79518 2.24566
3414.74674 2.23776
3412.69830 2.23009
3410.64987 2.22867
3408.60143 2.23270
3406.55299 2.23517
3404.50455 2.23352
3402.45611 2.23199
3400.40767 2.23012
3398.35924 2.22647
3396.31080 2.22582
3394.26236 2.22507
3392.21392 2.21977
3390.16548 2.21473
3388.11704 2.21035
3386.06861 2.20807
3384.02017 2.20969
3381.97173 2.20924
3379.92329 2.20655
3377.87485 2.20679
3375.82641 2.20789
3373.77798 2.20458
3371.72954 2.19726
3369.68110 2.19045
3367.63266 2.18672
3365.58422 2.18366
3363.53578 2.18061
3361.48735 2.18269
3359.43891 2.18917
3357.39047 2.19162
3355.34203 2.18908
3353.29359 2.18622
3351.24515 2.18423
3349.19672 2.18448
3347.14828 2.18581
3345.09984 2.18456
3343.05140 2.18032
3341.00296 2.17671
3338.95452 2.17694
3336.90609 2.17786
3334.85765 2.17536
3332.80921 2.17126
3330.76077 2.16945
3328.71233 2.16922
3326.66389 2.16683
3324.61545 2.16312
3322.56702 2.16081
3320.51858 2.16002
3318.47014 2.15917
3316.42170 2.15729
3314.37326 2.15621
3312.32482 2.15594
3310.27639 2.15447
3308.22795 2.15307
3306.17951 2.15188
3304.13107 2.15010
3302.08263 2.14793
3300.03419 2.14566
3297.98576 2.14711
3295.93732 2.15134
3293.88888 2.15286
3291.84044 2.14958
3289.79200 2.14530
3287.74356 2.14575
3285.69513 2.14635
3283.64669 2.14392
3281.59825 2.14211
3279.54981 2.14069
3277.50137 2.13944
3275.45293 2.14051
3273.40450 2.14454
3271.35606 2.14777
3269.30762 2.14772
3267.25918 2.14576
3265.21074 2.14279
3263.16230 2.13984
3261.11387 2.13798
3259.06543 2.13861
3257.01699 2.14280
3254.96855 2.14754
3252.92011 2.14744
3250.87167 2.14207
3248.82324 2.13832
3246.77480 2.14020
3244.72636 2.14366
3242.67792 2.14716
3240.62948 2.15111
3238.58104 2.15304
3236.53261 2.15356
3234.48417 2.15440
3232.43573 2.15477
3230.38729 2.15579
3228.33885 2.15784
3226.29041 2.15895
3224.24198 2.16111
3222.19354 2.16325
3220.14510 2.16391
3218.09666 2.16707
3216.04822 2.17085
3213.99978 2.17275
3211.95135 2.17414
3209.90291 2.17486
3207.85447 2.17618
3205.80603 2.17860
3203.75759 2.17981
3201.70915 2.18065
3199.66072 2.18146
3197.61228 2.18077
3195.56384 2.18145
3193.51540 2.18488
3191.46696 2.18961
3189.41852 2.19353
3187.37008 2.19419
3185.32165 2.19365
3183.27321 2.19355
3181.22477 2.19187
3179.17633 2.19187
3177.12789 2.19717
3175.07945 2.20135
3173.03102 2.20154
3170.98258 2.20099
3168.93414 2.20128
3166.88570 2.20366
3164.83726 2.20515
3162.78882 2.20597
3160.74039 2.20871
3158.69195 2.20957
3156.64351 2.20959
3154.59507 2.21585
3152.54663 2.22468
3150.49819 2.22614
3148.44976 2.22382
3146.40132 2.22405
3144.35288 2.22408
3142.30444 2.22356
3140.25600 2.22456
3138.20756 2.22593
3136.15913 2.22695
3134.11069 2.22789
3132.06225 2.22966
3130.01381 2.23371
3127.96537 2.23746
3125.91693 2.23879
3123.86850 2.23908
3121.82006 2.23759
3119.77162 2.23720
3117.72318 2.24306
3115.67474 2.25161
3113.62630 2.25735
3111.57787 2.26255
3109.52943 2.27051
3107.48099 2.27783
3105.43255 2.28116
3103.38411 2.28416
3101.33567 2.28983
3099.28724 2.29662
3097.23880 2.30213
3095.19036 2.30371
3093.14192 2.30395
3091.09348 2.30806
3089.04504 2.31171
3086.99661 2.31160
3084.94817 2.31238
3082.89973 2.31777
3080.85129 2.32328
3078.80285 2.31948
3076.75441 2.31165
3074.70598 2.30798
3072.65754 2.30716
3070.60910 2.30848
3068.56066 2.30894
3066.51222 2.30615
3064.46378 2.30264
3062.41535 2.30168
3060.36691 2.30280
3058.31847 2.30138
3056.27003 2.29846
3054.22159 2.29920
3052.17315 2.29986
3050.12471 2.29580
3048.07628 2.29137
3046.02784 2.29026
3043.97940 2.29132
3041.93096 2.29390
3039.88252 2.29761
3037.83408 2.30071
3035.78565 2.30145
3033.73721 2.30043
3031.68877 2.30263
3029.64033 2.30763
3027.59189 2.31038
3025.54345 2.31033
3023.49502 2.30809
3021.44658 2.30752
3019.39814 2.31231
3017.34970 2.31979
3015.30126 2.32576
3013.25282 2.33029
3011.20439 2.33497
3009.15595 2.34018
3007.10751 2.34561
3005.05907 2.35022
3003.01063 2.35483
3000.96219 2.35949
2998.91376 2.36359
2996.86532 2.36637
2994.81688 2.36525
2992.76844 2.36301
2990.72000 2.36294
2988.67156 2.36318
2986.62313 2.36704
2984.57469 2.37656
2982.52625 2.38321
2980.47781 2.38185
2978.42937 2.37982
2976.38093 2.38268
2974.33250 2.38655
2972.28406 2.39075
2970.23562 2.39596
2968.18718 2.39959
2966.13874 2.40344
2964.09030 2.40844
2962.04187 2.41103
2959.99343 2.40889
2957.94499 2.40403
2955.89655 2.40229
2953.84811 2.40557
2951.79967 2.40872
2949.75124 2.40951
2947.70280 2.41065
2945.65436 2.41323
2943.60592 2.41668
2941.55748 2.42089
2939.50904 2.42379
2937.46061 2.42121
2935.41217 2.41491
2933.36373 2.41330
2931.31529 2.41683
2929.26685 2.41635
2927.21841 2.41550
2925.16998 2.42558
2923.12154 2.43891
2921.07310 2.44215
2919.02466 2.43975
2916.97622 2.43670
2914.92778 2.43124
2912.87934 2.42608
2910.83091 2.42524
2908.78247 2.42882
2906.73403 2.43117
2904.68559 2.42977
2902.63715 2.42725
2900.58871 2.42456
2898.54028 2.42644
2896.49184 2.43315
2894.44340 2.43561
2892.39496 2.43308
2890.34652 2.43214
2888.29808 2.43413
2886.24965 2.43670
2884.20121 2.43996
2882.15277 2.44285
2880.10433 2.44165
2878.05589 2.44075
2876.00745 2.44492
2873.95902 2.45049
2871.91058 2.45391
2869.86214 2.45686
2867.81370 2.45959
2865.76526 2.45691
2863.71682 2.45109
2861.66839 2.45026
2859.61995 2.45322
2857.57151 2.45319
2855.52307 2.45213
2853.47463 2.45577
2851.42619 2.46462
2849.37776 2.47601
2847.32932 2.48497
2845.28088 2.48884
2843.23244 2.48821
2841.18400 2.48638
2839.13556 2.48639
2837.08713 2.48842
2835.03869 2.49079
2832.99025 2.49052
2830.94181 2.49003
2828.89337 2.49449
2826.84493 2.50138
2824.79650 2.50404
2822.74806 2.50174
2820.69962 2.49953
2818.65118 2.50154
2816.60274 2.50509
2814.55430 2.50813
2812.50587 2.51065
2810.45743 2.50945
2808.40899 2.50974
2806.36055 2.51801
2804.31211 2.52353
2802.26367 2.51688
2800.21524 2.51127
2798.16680 2.51629
2796.11836 2.52173
2794.06992 2.52368
2792.02148 2.52873
2789.97304 2.53304
2787.92461 2.53176
2785.87617 2.52894
2783.82773 2.52908
2781.77929 2.53284
2779.73085 2.53643
2777.68241 2.53687
2775.63397 2.53246
2773.58554 2.52525
2771.53710 2.52222
2769.48866 2.52432
2767.44022 2.52705
2765.39178 2.52668
2763.34334 2.52328
2761.29491 2.52310
2759.24647 2.52701
2757.19803 2.52939
2755.14959 2.52984
2753.10115 2.53012
2751.05271 2.53069
2749.00428 2.53334
2746.95584 2.53950
2744.90740 2.54516
2742.85896 2.54480
2740.81052 2.54074
2738.76208 2.54009
2736.71365 2.54668
2734.66521 2.55242
2732.61677 2.54704
2730.56833 2.53803
2728.51989 2.53690
2726.47145 2.54072
2724.42302 2.54222
2722.37458 2.54444
2720.32614 2.54983
2718.27770 2.55059
2716.22926 2.54642
2714.18082 2.54337
2712.13239 2.54048
2710.08395 2.53821
2708.03551 2.53772
2705.98707 2.53809
2703.93863 2.54026
2701.89019 2.54270
2699.84176 2.54392
2697.79332 2.54171
2695.74488 2.53382
2693.69644 2.53025
2691.64800 2.53600
2689.59956 2.53866
2687.55113 2.53162
2685.50269 2.52684
2683.45425 2.53442
2681.40581 2.53999
2679.35737 2.53320
2677.30893 2.52678
2675.26050 2.52374
2673.21206 2.52189
2671.16362 2.52378
2669.11518 2.52667
2667.06674 2.52622
2665.01830 2.52130
2662.96987 2.51489
2660.92143 2.51067
2658.87299 2.51059
2656.82455 2.51238
2654.77611 2.51268
2652.72767 2.51137
2650.67924 2.50612
2648.63080 2.49798
2646.58236 2.49549
2644.53392 2.49873
2642.48548 2.49862
2640.43704 2.49437
2638.38860 2.49020
2636.34017 2.48494
2634.29173 2.47709
2632.24329 2.47331
2630.19485 2.47726
2628.14641 2.48040
2626.09797 2.47997
2624.04954 2.48118
2622.00110 2.48561
2619.95266 2.49225
2617.90422 2.49569
2615.85578 2.49309
2613.80734 2.49018
2611.75891 2.48743
2609.71047 2.48206
2607.66203 2.47863
2605.61359 2.47910
2603.56515 2.48038
2601.51671 2.48111
2599.46828 2.48263
2597.41984 2.48485
2595.37140 2.48382
2593.32296 2.48410
2591.27452 2.49226
2589.22608 2.49748
2587.17765 2.49290
2585.12921 2.48832
2583.08077 2.48899
2581.03233 2.49135
2578.98389 2.48909
2576.93545 2.48350
2574.88702 2.48337
2572.83858 2.48963
2570.79014 2.49730
2568.74170 2.50216
2566.69326 2.49864
2564.64482 2.49006
2562.59639 2.48510
2560.54795 2.48392
2558.49951 2.48465
2556.45107 2.48626
2554.40263 2.48835
2552.35419 2.49440
2550.30576 2.50195
2548.25732 2.50159
2546.20888 2.49621
2544.16044 2.49678
2542.11200 2.50511
2540.06356 2.51437
2538.01513 2.51803
2535.96669 2.51743
2533.91825 2.51922
2531.86981 2.52356
2529.82137 2.52118
2527.77293 2.51729
2525.72450 2.52444
2523.67606 2.53246
2521.62762 2.52876
2519.57918 2.52237
2517.53074 2.52143
2515.48230 2.52148
2513.43387 2.52043
2511.38543 2.51892
2509.33699 2.51815
2507.28855 2.51807
2505.24011 2.51882
2503.19167 2.52378
2501.14324 2.52745
2499.09480 2.52437
2497.04636 2.52245
2494.99792 2.52923
2492.94948 2.53888
2490.90104 2.54067
2488.85260 2.53551
2486.80417 2.52984
2484.75573 2.52678
2482.70729 2.53053
2480.65885 2.54038
2478.61041 2.54505
2476.56197 2.54177
2474.51354 2.53993
2472.46510 2.54061
2470.41666 2.54314
2468.36822 2.54913
2466.31978 2.55429
2464.27134 2.55687
2462.22291 2.55701
2460.17447 2.55448
2458.12603 2.55276
2456.07759 2.55330
2454.02915 2.55353
2451.98071 2.55457
2449.93228 2.55842
2447.88384 2.55989
2445.83540 2.55858
2443.78696 2.55957
2441.73852 2.56070
2439.69008 2.56242
2437.64165 2.56822
2435.59321 2.57319
2433.54477 2.57682
2431.49633 2.58406
2429.44789 2.59203
2427.39945 2.59703
2425.35102 2.59847
2423.30258 2.59910
2421.25414 2.60231
2419.20570 2.60922
2417.15726 2.62321
2415.10882 2.63729
2413.06039 2.63552
2411.01195 2.62174
2408.96351 2.61110
2406.91507 2.60816
2404.86663 2.60747
2402.81819 2.60186
2400.76976 2.59348
2398.72132 2.58711
2396.67288 2.57940
2394.62444 2.56965
2392.57600 2.56411
2390.52756 2.56434
2388.47913 2.56542
2386.43069 2.56317
2384.38225 2.55726
2382.33381 2.54763
2380.28537 2.53469
2378.23693 2.52527
2376.18850 2.52373
2374.14006 2.52506
2372.09162 2.52747
2370.04318 2.52334
2367.99474 2.50180
2365.94630 2.47982
2363.89787 2.47339
2361.84943 2.49197
2359.80099 2.52229
2357.75255 2.53307
2355.70411 2.54678
2353.65567 2.56308
2351.60723 2.55440
2349.55880 2.52765
2347.51036 2.49842
2345.46192 2.47484
2343.41348 2.46987
2341.36504 2.48544
2339.31660 2.50231
2337.26817 2.51177
2335.21973 2.51736
2333.17129 2.52332
2331.12285 2.51930
2329.07441 2.49817
2327.02597 2.48190
2324.97754 2.47629
2322.92910 2.47407
2320.88066 2.47656
2318.83222 2.47720
2316.78378 2.47473
2314.73534 2.47622
2312.68691 2.47602
2310.63847 2.46962
2308.59003 2.46303
2306.54159 2.45649
2304.49315 2.45074
2302.44471 2.45076
2300.39628 2.45230
2298.34784 2.45082
2296.29940 2.44962
2294.25096 2.44891
2292.20252 2.44604
2290.15408 2.44231
2288.10565 2.44168
2286.05721 2.44252
2284.00877 2.44103
2281.96033 2.43974
2279.91189 2.44031
2277.86345 2.43919
2275.81502 2.43337
2273.76658 2.42328
2271.71814 2.41394
2269.66970 2.41218
2267.62126 2.41756
2265.57282 2.42406
2263.52439 2.42729
2261.47595 2.42426
2259.42751 2.41939
2257.37907 2.41919
2255.33063 2.42040
2253.28219 2.41958
2251.23376 2.41830
2249.18532 2.41709
2247.13688 2.41679
2245.08844 2.41778
2243.04000 2.41729
2240.99156 2.41505
2238.94313 2.41384
2236.89469 2.41484
2234.84625 2.41869
2232.79781 2.42278
2230.74937 2.42408
2228.70093 2.42371
2226.65250 2.42212
2224.60406 2.42245
2222.55562 2.42763
2220.50718 2.42797
2218.45874 2.41886
2216.41030 2.41084
2214.36186 2.40888
2212.31343 2.40943
2210.26499 2.40713
2208.21655 2.40251
2206.16811 2.39874
2204.11967 2.39543
2202.07123 2.39433
2200.02280 2.39649
2197.97436 2.39756
2195.92592 2.39402
2193.87748 2.38946
2191.82904 2.38847
2189.78060 2.39073
2187.73217 2.39391
2185.68373 2.39813
2183.63529 2.40090
2181.58685 2.40014
2179.53841 2.39935
2177.48997 2.39959
2175.44154 2.40314
2173.39310 2.40926
2171.34466 2.41212
2169.29622 2.41449
2167.24778 2.42045
2165.19934 2.42652
2163.15091 2.43073
2161.10247 2.43472
2159.05403 2.44074
2157.00559 2.44815
2154.95715 2.45079
2152.90871 2.44869
2150.86028 2.44772
2148.81184 2.44834
2146.76340 2.44946
2144.71496 2.45031
2142.66652 2.44675
2140.61808 2.43926
2138.56965 2.43376
2136.52121 2.43071
2134.47277 2.42741
2132.42433 2.42428
2130.37589 2.42412
2128.32745 2.42606
2126.27902 2.42613
2124.23058 2.42491
2122.18214 2.42444
2120.13370 2.42507
2118.08526 2.42688
2116.03682 2.42732
2113.98839 2.42668
2111.93995 2.42910
2109.89151 2.43700
2107.84307 2.45052
2105.79463 2.46363
2103.74619 2.47515
2101.69776 2.49164
2099.64932 2.50992
2097.60088 2.52085
2095.55244 2.51803
2093.50400 2.50196
2091.45556 2.48653
2089.40713 2.48122
2087.35869 2.47799
2085.31025 2.47204
2083.26181 2.46850
2081.21337 2.46970
2079.16493 2.47515
2077.11649 2.47991
2075.06806 2.47954
2073.01962 2.48099
2070.97118 2.49158
2068.92274 2.50433
2066.87430 2.51189
2064.82586 2.51874
2062.77743 2.52547
2060.72899 2.53048
2058.68055 2.53692
2056.63211 2.54021
2054.58367 2.53763
2052.53523 2.53503
2050.48680 2.53122
2048.43836 2.52594
2046.38992 2.52413
2044.34148 2.52261
2042.29304 2.51786
2040.24460 2.51029
2038.19617 2.49903
2036.14773 2.48673
2034.09929 2.47824
2032.05085 2.47331
2030.00241 2.46784
2027.95397 2.46177
2025.90554 2.45698
2023.85710 2.45327
2021.80866 2.45031
2019.76022 2.44708
2017.71178 2.44107
2015.66334 2.43301
2013.61491 2.42979
2011.56647 2.43146
2009.51803 2.42871
2007.46959 2.42114
2005.42115 2.41673
2003.37271 2.41446
2001.32428 2.41050
1999.27584 2.40738
1997.22740 2.40630
1995.17896 2.40499
1993.13052 2.40311
1991.08208 2.40222
1989.03365 2.40099
1986.98521 2.39723
1984.93677 2.39140
1982.88833 2.38635
1980.83989 2.38389
1978.79145 2.38361
1976.74302 2.38379
1974.69458 2.38316
1972.64614 2.38202
1970.59770 2.37753
1968.54926 2.37108
1966.50082 2.36622
1964.45239 2.35954
1962.40395 2.35410
1960.35551 2.35444
1958.30707 2.35455
1956.25863 2.35130
1954.21019 2.35036
1952.16176 2.35434
1950.11332 2.35876
1948.06488 2.36022
1946.01644 2.36100
1943.96800 2.36594
1941.91956 2.37614
1939.87112 2.38094
1937.82269 2.37869
1935.77425 2.38023
1933.72581 2.38567
1931.67737 2.38899
1929.62893 2.39074
1927.58049 2.39231
1925.53206 2.39426
1923.48362 2.40042
1921.43518 2.40535
1919.38674 2.40513
1917.33830 2.41152
1915.28986 2.42074
1913.24143 2.42329
1911.19299 2.42584
1909.14455 2.43026
1907.09611 2.43323
1905.04767 2.43827
1902.99923 2.44795
1900.95080 2.46027
1898.90236 2.46857
1896.85392 2.46935
1894.80548 2.46999
1892.75704 2.47401
1890.70860 2.47919
1888.66017 2.48583
1886.61173 2.48822
1884.56329 2.48509
1882.51485 2.48328
1880.46641 2.48190
1878.41797 2.47865
1876.36954 2.47852
1874.32110 2.48083
1872.27266 2.47923
1870.22422 2.47918
1868.17578 2.49068
1866.12734 2.50024
1864.07891 2.49714
1862.03047 2.49104
1859.98203 2.48909
1857.93359 2.49079
1855.88515 2.49590
1853.83671 2.50683
1851.78828 2.52130
1849.73984 2.53117
1847.69140 2.53267
1845.64296 2.53253
1843.59452 2.54018
1841.54608 2.54653
1839.49765 2.54584
1837.44921 2.54508
1835.40077 2.54430
1833.35233 2.54320
1831.30389 2.54450
1829.25545 2.55029
1827.20702 2.55451
1825.15858 2.55433
1823.11014 2.55657
1821.06170 2.56316
1819.01326 2.57240
1816.96482 2.57675
1814.91639 2.57232
1812.86795 2.56980
1810.81951 2.57911
1808.77107 2.59071
1806.72263 2.59465
1804.67419 2.59946
1802.62575 2.60945
1800.57732 2.61929
1798.52888 2.62464
1796.48044 2.63050
1794.43200 2.63881
1792.38356 2.65372
1790.33512 2.67360
1788.28669 2.68153
1786.23825 2.68125
1784.18981 2.67991
1782.14137 2.67847
1780.09293 2.68236
1778.04449 2.69052
1775.99606 2.69244
1773.94762 2.68571
1771.89918 2.68034
1769.85074 2.68410
1767.80230 2.68755
1765.75386 2.68196
1763.70543 2.67108
1761.65699 2.67494
1759.60855 2.69340
1757.56011 2.70489
1755.51167 2.71636
1753.46323 2.72862
1751.41480 2.73434
1749.36636 2.74956
1747.31792 2.78113
1745.26948 2.79959
1743.22104 2.79590
1741.17260 2.78773
1739.12417 2.78445
1737.07573 2.78443
1735.02729 2.79170
1732.97885 2.80696
1730.93041 2.80883
1728.88197 2.79412
1726.83354 2.77056
1724.78510 2.75171
1722.73666 2.74444
1720.68822 2.73869
1718.63978 2.72889
1716.59134 2.72401
1714.54291 2.73147
1712.49447 2.74160
1710.44603 2.74374
1708.39759 2.73922
1706.34915 2.74016
1704.30071 2.74504
1702.25228 2.73932
1700.20384 2.73229
1698.15540 2.74464
1696.10696 2.76620
1694.05852 2.77248
1692.01008 2.76419
1689.96165 2.76058
1687.91321 2.77298
1685.86477 2.79331
1683.81633 2.79444
1681.76789 2.77930
1679.71945 2.77357
1677.67102 2.77451
1675.62258 2.78194
1673.57414 2.78938
1671.52570 2.78713
1669.47726 2.78315
1667.42882 2.78836
1665.38038 2.79048
1663.33195 2.78934
1661.28351 2.79751
1659.23507 2.81009
1657.18663 2.81271
1655.13819 2.79708
1653.08975 2.78444
1651.04132 2.80695
1648.99288 2.82049
1646.94444 2.82490
1644.89600 2.82893
1642.84756 2.82766
1640.79912 2.82160
1638.75069 2.81535
1636.70225 2.80941
1634.65381 2.81460
1632.60537 2.83078
1630.55693 2.83869
1628.50849 2.83989
1626.46006 2.85014
1624.41162 2.86469
1622.36318 2.86526
1620.31474 2.86020
1618.26630 2.86159
1616.21786 2.86953
1614.16943 2.87482
1612.12099 2.87960
1610.07255 2.89624
1608.02411 2.91616
1605.97567 2.92204
1603.92723 2.92043
1601.87880 2.92244
1599.83036 2.93519
1597.78192 2.95046
1595.73348 2.95494
1593.68504 2.95372
1591.63660 2.95259
1589.58817 2.94737
1587.53973 2.94581
1585.49129 2.95894
1583.44285 2.98171
1581.39441 3.00243
1579.34597 3.01379
1577.29754 3.00939
1575.24910 2.99665
1573.20066 2.99409
1571.15222 2.99436
1569.10378 3.00966
1567.05534 3.03395
1565.00691 3.03669
1562.95847 3.02072
1560.91003 2.99551
1558.86159 2.99927
1556.81315 3.06937
1554.76471 3.10541
1552.71628 3.09072
1550.66784 3.05764
1548.61940 3.04451
1546.57096 3.05058
1544.52252 3.06227
1542.47408 3.07653
1540.42565 3.06967
1538.37721 3.05853
1536.32877 3.06200
1534.28033 3.06499
1532.23189 3.07826
1530.18345 3.07496
1528.13501 3.04657
1526.08658 3.04607
1524.03814 3.08755
1521.98970 3.10348
1519.94126 3.09434
1517.89282 3.10771
1515.84438 3.09594
1513.79595 3.05490
1511.74751 3.02552
1509.69907 3.01094
1507.65063 2.98195
1505.60219 2.93489
1503.55375 2.90488
1501.50532 2.86749
1499.45688 2.81587
1497.40844 2.76174
1495.36000 2.71868
1493.31156 2.68617
1491.26312 2.64972
1489.21469 2.59913
1487.16625 2.55293
1485.11781 2.52012
1483.06937 2.49073
1481.02093 2.46078
1478.97249 2.43358
1476.92406 2.41005
1474.87562 2.39008
1472.82718 2.37195
1470.77874 2.35740
1468.73030 2.34667
1466.68186 2.33469
1464.63343 2.32046
1462.58499 2.30807
1460.53655 2.30002
1458.48811 2.29329
1456.43967 2.28195
1454.39123 2.27119
1452.34280 2.26322
1450.29436 2.25528
1448.24592 2.24822
1446.19748 2.24400
1444.14904 2.24109
1442.10060 2.23850
1440.05217 2.23584
1438.00373 2.23442
1435.95529 2.23972
1433.90685 2.24893
1431.85841 2.25675
1429.80997 2.26330
1427.76154 2.26876
1425.71310 2.27471
1423.66466 2.27915
1421.61622 2.27965
1419.56778 2.27663
1417.51934 2.26746
1415.47091 2.25620
1413.42247 2.24623
1411.37403 2.23420
1409.32559 2.21726
1407.27715 2.19831
1405.22871 2.18171
1403.18028 2.16934
1401.13184 2.15620
1399.08340 2.14080
1397.03496 2.12930
1394.98652 2.12049
1392.93808 2.11264
1390.88965 2.10788
1388.84121 2.10540
1386.79277 2.10675
1384.74433 2.11328
1382.69589 2.12153
1380.64745 2.12989
1378.59901 2.13908
1376.55058 2.15088
1374.50214 2.16923
1372.45370 2.19237
1370.40526 2.21064
1368.35682 2.22364
1366.30838 2.23465
1364.25995 2.24524
1362.21151 2.25897
1360.16307 2.27441
1358.11463 2.28738
1356.06619 2.29881
1354.01775 2.30862
1351.96932 2.31544
1349.92088 2.32115
1347.87244 2.32876
1345.82400 2.33900
1343.77556 2.34665
1341.72712 2.34900
1339.67869 2.35425
1337.63025 2.36609
1335.58181 2.37572
1333.53337 2.37979
1331.48493 2.38421
1329.43649 2.39241
1327.38806 2.39904
1325.33962 2.40242
1323.29118 2.40609
1321.24274 2.41059
1319.19430 2.41461
1317.14586 2.41646
1315.09743 2.41794
1313.04899 2.42323
1311.00055 2.43133
1308.95211 2.43572
1306.90367 2.43550
1304.85523 2.43640
1302.80680 2.43929
1300.75836 2.43936
1298.70992 2.43436
1296.66148 2.42989
1294.61304 2.43037
1292.56460 2.43294
1290.51617 2.43361
1288.46773 2.43128
1286.41929 2.43063
1284.37085 2.43520
1282.32241 2.43893
1280.27397 2.43669
1278.22554 2.43283
1276.17710 2.43120
1274.12866 2.43050
1272.08022 2.42999
1270.03178 2.43203
1267.98334 2.43710
1265.93491 2.44044
1263.88647 2.44247
1261.83803 2.44548
1259.78959 2.44659
1257.74115 2.44651
1255.69271 2.44521
1253.64428 2.44173
1251.59584 2.43997
1249.54740 2.44176
1247.49896 2.44389
1245.45052 2.44538
1243.40208 2.44930
1241.35364 2.45378
1239.30521 2.45516
1237.25677 2.45751
1235.20833 2.46463
1233.15989 2.47339
1231.11145 2.48088
1229.06301 2.48692
1227.01458 2.49337
1224.96614 2.50141
1222.91770 2.50922
1220.86926 2.51424
1218.82082 2.51474
1216.77238 2.51454
1214.72395 2.51854
1212.67551 2.52408
1210.62707 2.52602
1208.57863 2.52561
1206.53019 2.52613
1204.48175 2.52427
1202.43332 2.51811
1200.38488 2.51316
1198.33644 2.51234
1196.28800 2.51239
1194.23956 2.50900
1192.19112 2.50248
1190.14269 2.49764
1188.09425 2.49308
1186.04581 2.48650
1183.99737 2.48424
1181.94893 2.48774
1179.90049 2.48901
1177.85206 2.48365
1175.80362 2.47735
1173.75518 2.47851
1171.70674 2.48635
1169.65830 2.49127
1167.60986 2.49142
1165.56143 2.49297
1163.51299 2.49435
1161.46455 2.49379
1159.41611 2.49545
1157.36767 2.50044
1155.31923 2.50245
1153.27080 2.49619
1151.22236 2.49220
1149.17392 2.49708
1147.12548 2.50243
1145.07704 2.50458
1143.02860 2.50469
1140.98017 2.50645
1138.93173 2.51371
1136.88329 2.51981
1134.83485 2.51819
1132.78641 2.51515
1130.73797 2.51685
1128.68954 2.51966
1126.64110 2.52047
1124.59266 2.52502
1122.54422 2.53445
1120.49578 2.54080
1118.44734 2.54441
1116.39891 2.54820
1114.35047 2.55105
1112.30203 2.55472
1110.25359 2.55573
1108.20515 2.55122
1106.15671 2.54610
1104.10827 2.54258
1102.05984 2.54350
1100.01140 2.55124
1097.96296 2.55848
1095.91452 2.55636
1093.86608 2.54652
1091.81764 2.53575
1089.76921 2.52846
1087.72077 2.52447
1085.67233 2.52111
1083.62389 2.52048
1081.57545 2.52085
1079.52701 2.52042
1077.47858 2.52507
1075.43014 2.53114
1073.38170 2.53030
1071.33326 2.52736
1069.28482 2.52683
1067.23638 2.52471
1065.18795 2.52541
1063.13951 2.53455
1061.09107 2.54948
1059.04263 2.56831
1056.99419 2.59378
1054.94575 2.58098
1052.89732 2.48934
1050.84888 2.41122
1048.80044 2.40119
1046.75200 2.42514
1044.70356 2.44937
1042.65512 2.46428
1040.60669 2.46535
1038.55825 2.45987
1036.50981 2.46336
1034.46137 2.47504
1032.41293 2.48342
1030.36449 2.48589
1028.31606 2.48138
1026.26762 2.47760
1024.21918 2.48208
1022.17074 2.48942
1020.12230 2.49498
1018.07386 2.50223
1016.02543 2.51359
1013.97699 2.51968
1011.92855 2.51668
1009.88011 2.51345
1007.83167 2.50858
1005.78323 2.50716
1003.73480 2.52256
1001.68636 2.54149
999.63792 2.54647
997.58948 2.54586
995.54104 2.55033
993.49260 2.55678
991.44417 2.56034
989.39573 2.56495
987.34729 2.56976
985.29885 2.56769
983.25041 2.56074
981.20197 2.55406
979.15354 2.54794
977.10510 2.54588
975.05666 2.55055
973.00822 2.55739
970.95978 2.55929
968.91134 2.55321
966.86290 2.54493
964.81447 2.54194
962.76603 2.54358
960.71759 2.54219
958.66915 2.53507
956.62071 2.52757
954.57227 2.52616
952.52384 2.52886
950.47540 2.52974
948.42696 2.52975
946.37852 2.52840
944.33008 2.52429
942.28164 2.51904
940.23321 2.51757
938.18477 2.52154
936.13633 2.52222
934.08789 2.51971
932.03945 2.51959
929.99101 2.51785
927.94258 2.51785
925.89414 2.52026
923.84570 2.51380
921.79726 2.50020
919.74882 2.48809
917.70038 2.48547
915.65195 2.49455
913.60351 2.50360
911.55507 2.50660
909.50663 2.50889
907.45819 2.51644
905.40975 2.52724
903.36132 2.52915
901.31288 2.52314
899.26444 2.52335
897.21600 2.52474
895.16756 2.51581
893.11912 2.51009
891.07069 2.52088
889.02225 2.53244
886.97381 2.53084
884.92537 2.52832
882.87693 2.52599
880.82849 2.51978
878.78006 2.52698
876.73162 2.55366
874.68318 2.57302
872.63474 2.56631
870.58630 2.55319
868.53786 2.55071
866.48943 2.55972
864.44099 2.57369
862.39255 2.57990
860.34411 2.58856
858.29567 2.61430
856.24723 2.64079
854.19880 2.65718
852.15036 2.67405
850.10192 2.69375
848.05348 2.69122
846.00504 2.61009
843.95660 2.45317
841.90817 2.30575
839.85973 2.22435
837.81129 2.22008
835.76285 2.27777
833.71441 2.35572
831.66597 2.41269
829.61753 2.44663
827.56910 2.46969
825.52066 2.49024
823.47222 2.50834
821.42378 2.51611
819.37534 2.51900
817.32690 2.52636
815.27847 2.53527
813.23003 2.53678
811.18159 2.53352
809.13315 2.53624
807.08471 2.53946
805.03627 2.53861
802.98784 2.53934
800.93940 2.54101
798.89096 2.54561
796.84252 2.55396
794.79408 2.56214
792.74564 2.56185
790.69721 2.55625
788.64877 2.56080
786.60033 2.56874
784.55189 2.57188
782.50345 2.56729
780.45501 2.55371
778.40658 2.55284
776.35814 2.56588
774.30970 2.57290
772.26126 2.58079
770.21282 2.58596
768.16438 2.57880
766.11595 2.58466
764.06751 2.60105
762.01907 2.59707
759.97063 2.57305
757.92219 2.56001
755.87375 2.57682
753.82532 2.59765
751.77688 2.60121
749.72844 2.59942
747.68000 2.59459
745.63156 2.58630
743.58312 2.58503
741.53469 2.59442
739.48625 2.61145
737.43781 2.62873
735.38937 2.64105
733.34093 2.65161
731.29249 2.65051
729.24406 2.64607
727.19562 2.66445
725.14718 2.70648
723.09874 2.74708
721.05030 2.75837
719.00186 2.74241
716.95343 2.72465
714.90499 2.73339
712.85655 2.76343
710.80811 2.76746
708.75967 2.74969
706.71123 2.75588
704.66280 2.79376
702.61436 2.83875
700.56592 2.82647
698.51748 2.77758
696.46904 2.79122
694.42060 2.86197
692.37216 2.91737
690.32373 2.98002
688.27529 3.11364
686.22685 3.20286
684.17841 3.08603
682.12997 2.77318
680.08153 2.43524
678.03310 2.23744
675.98466 2.20371
673.93622 2.29411
671.88778 2.42078
669.83934 2.47877
667.79090 2.45949
665.74247 2.45827
663.69403 2.46981
661.64559 2.49588
659.59715 2.51068
657.54871 2.47620
655.50027 2.45090
653.45184 2.49039
651.40340 2.58304
649.35496 2.66897
647.30652 2.69761
645.25808 2.67149
643.20964 2.64590
641.16121 2.61469
639.11277 2.61564
637.06433 2.69609
635.01589 2.73790
632.96745 2.71511
630.91901 2.66283
628.87058 2.52468
626.82214 2.42257
624.77370 2.43303
622.72526 2.45090
620.67682 2.45528
618.62838 2.55241
616.57995 2.73002
614.53151 2.82078
612.48307 2.70249
610.43463 2.66031
608.38619 2.75110
606.33775 2.64092
604.28932 2.46972
602.24088 2.49107
600.19244 2.77998
598.14400 3.96684
