3996.50324 1.86007
3994.45480 1.85906
3992.40636 1.85989
3990.35792 1.86147
3988.30948 1.86149
3986.26104 1.85966
3984.21261 1.85788
3982.16417 1.85694
3980.11573 1.85722
3978.06729 1.85846
3976.01885 1.85971
3973.97041 1.86066
3971.92198 1.85934
3969.87354 1.85679
3967.82510 1.85693
3965.77666 1.85908
3963.72822 1.86013
3961.67978 1.85964
3959.63135 1.85946
3957.58291 1.86000
3955.53447 1.85952
3953.48603 1.85720
3951.43759 1.85474
3949.38915 1.85481
3947.34072 1.85673
3945.29228 1.85632
3943.24384 1.85604
3941.19540 1.85913
3939.14696 1.86057
3937.09852 1.85931
3935.05009 1.85766
3933.00165 1.85716
3930.95321 1.85989
3928.90477 1.86232
3926.85633 1.86153
3924.80789 1.86081
3922.75946 1.86167
3920.71102 1.86189
3918.66258 1.86199
3916.61414 1.86385
3914.56570 1.86607
3912.51726 1.86782
3910.46883 1.86969
3908.42039 1.86826
3906.37195 1.86157
3904.32351 1.85649
3902.27507 1.86206
3900.22663 1.87287
3898.17820 1.87814
3896.12976 1.87660
3894.08132 1.87344
3892.03288 1.87307
3889.98444 1.87356
3887.93600 1.87162
3885.88756 1.87200
3883.83913 1.87588
3881.79069 1.87835
3879.74225 1.88062
3877.69381 1.88070
3875.64537 1.87706
3873.59693 1.87360
3871.54850 1.87561
3869.50006 1.88382
3867.45162 1.88646
3865.40318 1.88226
3863.35474 1.88402
3861.30630 1.88996
3859.25787 1.89116
3857.20943 1.88947
3855.16099 1.88612
3853.11255 1.88489
3851.06411 1.88892
3849.01567 1.89025
3846.96724 1.88896
3844.91880 1.88727
3842.87036 1.88673
3840.82192 1.88782
3838.77348 1.89055
3836.72504 1.89291
3834.67661 1.89355
3832.62817 1.89335
3830.57973 1.89347
3828.53129 1.89452
3826.48285 1.89475
3824.43441 1.89199
3822.38598 1.88951
3820.33754 1.89357
3818.28910 1.89557
3816.24066 1.89275
3814.19222 1.89203
3812.14378 1.89115
3810.09535 1.88797
3808.04691 1.88683
3805.99847 1.89023
3803.95003 1.88819
3801.90159 1.88476
3799.85315 1.89228
3797.80472 1.89777
3795.75628 1.89758
3793.70784 1.89812
3791.65940 1.89941
3789.61096 1.90002
3787.56252 1.90043
3785.51409 1.90092
3783.46565 1.90099
3781.41721 1.90115
3779.36877 1.90168
3777.32033 1.90199
3775.27189 1.90100
3773.22346 1.89806
3771.17502 1.89711
3769.12658 1.90129
3767.07814 1.90338
3765.02970 1.90296
3762.98126 1.90391
3760.93283 1.90444
3758.88439 1.90411
3756.83595 1.90134
3754.78751 1.89555
3752.73907 1.89022
3750.69063 1.89066
3748.64219 1.89338
3746.59376 1.89339
3744.54532 1.89533
3742.49688 1.89673
3740.44844 1.89334
3738.40000 1.88591
3736.35156 1.87842
3734.30313 1.88070
3732.25469 1.88669
3730.20625 1.88561
3728.15781 1.88047
3726.10937 1.87796
3724.06093 1.88047
3722.01250 1.88332
3719.96406 1.88490
3717.91562 1.88541
3715.86718 1.88288
3713.81874 1.87781
3711.77030 1.87663
3709.72187 1.88246
3707.67343 1.88526
3705.62499 1.88371
3703.57655 1.88322
3701.52811 1.88930
3699.47967 1.89630
3697.43124 1.89698
3695.38280 1.89512
3693.33436 1.89240
3691.28592 1.88955
3689.23748 1.89324
3687.18904 1.89682
3685.14061 1.89331
3683.09217 1.88857
3681.04373 1.88505
3678.99529 1.88121
3676.94685 1.87693
3674.89841 1.88405
3672.84998 1.89602
3670.80154 1.90082
3668.75310 1.90337
3666.70466 1.90243
3664.65622 1.89863
3662.60778 1.89587
3660.55935 1.89636
3658.51091 1.89791
3656.46247 1.89909
3654.41403 1.89908
3652.36559 1.89507
3650.31715 1.89163
3648.26872 1.89858
3646.22028 1.90315
3644.17184 1.89849
3642.12340 1.89309
3640.07496 1.89221
3638.02652 1.89105
3635.97809 1.88604
3633.92965 1.88129
3631.88121 1.87770
3629.83277 1.87692
3627.78433 1.88716
3625.73589 1.89544
3623.68746 1.89650
3621.63902 1.89564
3619.59058 1.89713
3617.54214 1.90156
3615.49370 1.90085
3613.44526 1.89482
3611.39682 1.88702
3609.34839 1.88092
3607.29995 1.88059
3605.25151 1.88229
3603.20307 1.88225
3601.15463 1.88149
3599.10619 1.88092
3597.05776 1.88147
3595.00932 1.88295
3592.96088 1.88424
3590.91244 1.88339
3588.86400 1.88167
3586.81556 1.88493
3584.76713 1.88832
3582.71869 1.88730
3580.67025 1.88715
3578.62181 1.88900
3576.57337 1.89042
3574.52493 1.89159
3572.47650 1.89231
3570.42806 1.89179
3568.37962 1.89287
3566.33118 1.89836
3564.28274 1.90194
3562.23430 1.90204
3560.18587 1.90122
3558.13743 1.89899
3556.08899 1.89681
3554.04055 1.89751
3551.99211 1.89940
3549.94367 1.89796
3547.89524 1.89566
3545.84680 1.89711
3543.79836 1.90020
3541.74992 1.90185
3539.70148 1.90172
3537.65304 1.90211
3535.60461 1.90588
3533.55617 1.91003
3531.50773 1.91142
3529.45929 1.91017
3527.41085 1.90806
3525.36241 1.90894
3523.31398 1.91310
3521.26554 1.91617
3519.21710 1.91574
3517.16866 1.91426
3515.12022 1.91303
3513.07178 1.91153
3511.02335 1.91155
3508.97491 1.91259
3506.92647 1.91353
3504.87803 1.91504
3502.82959 1.91516
3500.78115 1.91450
3498.73272 1.91497
3496.68428 1.91489
3494.63584 1.91393
3492.58740 1.91364
3490.53896 1.91374
3488.49052 1.91391
3486.44209 1.91526
3484.39365 1.91730
3482.34521 1.91803
3480.29677 1.91872
3478.24833 1.92085
3476.19989 1.92144
3474.15146 1.92061
3472.10302 1.92214
3470.05458 1.92501
3468.00614 1.92655
3465.95770 1.92743
3463.90926 1.92815
3461.86082 1.92844
3459.81239 1.93010
3457.76395 1.93447
3455.71551 1.93800
3453.66707 1.93756
3451.61863 1.93656
3449.57019 1.93572
3447.52176 1.93264
3445.47332 1.93069
3443.42488 1.93094
3441.37644 1.93097
3439.32800 1.93186
3437.27956 1.93309
3435.23113 1.93173
3433.18269 1.92847
3431.13425 1.92686
3429.08581 1.92777
3427.03737 1.92872
3424.98893 1.92811
3422.94050 1.92811
3420.89206 1.92963
3418.84362 1.92983
3416.79518 1.92862
3414.74674 1.92750
3412.69830 1.92683
3410.64987 1.92741
3408.60143 1.92887
3406.55299 1.92979
3404.50455 1.92877
3402.45611 1.92639
3400.40767 1.92566
3398.35924 1.92634
3396.31080 1.92575
3394.26236 1.92450
3392.21392 1.92483
3390.16548 1.92630
3388.11704 1.92559
3386.06861 1.92270
3384.02017 1.92239
3381.97173 1.92484
3379.92329 1.92564
3377.87485 1.92428
3375.82641 1.92261
3373.77798 1.92160
3371.72954 1.92220
3369.68110 1.92388
3367.63266 1.92360
3365.58422 1.92090
3363.53578 1.91869
3361.48735 1.91693
3359.43891 1.91482
3357.39047 1.91412
3355.34203 1.91485
3353.29359 1.91493
3351.24515 1.91425
3349.19672 1.91466
3347.14828 1.91557
3345.09984 1.91458
3343.05140 1.91319
3341.00296 1.91439
3338.95452 1.91687
3336.90609 1.91793
3334.85765 1.91689
3332.80921 1.91475
3330.76077 1.91295
3328.71233 1.91139
3326.66389 1.91022
3324.61545 1.91080
3322.56702 1.91214
3320.51858 1.91324
3318.47014 1.91601
3316.42170 1.91836
3314.37326 1.91641
3312.32482 1.91376
3310.27639 1.91425
3308.22795 1.91479
3306.17951 1.91375
3304.13107 1.91423
3302.08263 1.91582
3300.03419 1.91546
3297.98576 1.91415
3295.93732 1.91409
3293.88888 1.91486
3291.84044 1.91530
3289.79200 1.91532
3287.74356 1.91484
3285.69513 1.91332
3283.64669 1.91125
3281.59825 1.90995
3279.54981 1.90932
3277.50137 1.90912
3275.45293 1.91097
3273.40450 1.91328
3271.35606 1.91242
3269.30762 1.91004
3267.25918 1.90998
3265.21074 1.91233
3263.16230 1.91430
3261.11387 1.91380
3259.06543 1.91197
3257.01699 1.91080
3254.96855 1.91029
3252.92011 1.91050
3250.87167 1.91120
3248.82324 1.91123
3246.77480 1.91017
3244.72636 1.90829
3242.67792 1.90730
3240.62948 1.90842
3238.58104 1.91023
3236.53261 1.91105
3234.48417 1.91111
3232.43573 1.91019
3230.38729 1.90808
3228.33885 1.90751
3226.29041 1.90939
3224.24198 1.91094
3222.19354 1.91167
3220.14510 1.91331
3218.09666 1.91476
3216.04822 1.91476
3213.99978 1.91491
3211.95135 1.91547
3209.90291 1.91521
3207.85447 1.91425
3205.80603 1.91359
3203.75759 1.91346
3201.70915 1.91336
3199.66072 1.91384
3197.61228 1.91455
3195.56384 1.91429
3193.51540 1.91424
3191.46696 1.91507
3189.41852 1.91522
3187.37008 1.91496
3185.32165 1.91636
3183.27321 1.91877
3181.22477 1.91929
3179.17633 1.91817
3177.12789 1.91729
3175.07945 1.91703
3173.03102 1.91781
3170.98258 1.91941
3168.93414 1.92046
3166.88570 1.92003
3164.83726 1.91869
3162.78882 1.91772
3160.74039 1.91745
3158.69195 1.91764
3156.64351 1.91786
3154.59507 1.91837
3152.54663 1.92017
3150.49819 1.92272
3148.44976 1.92342
3146.40132 1.92188
3144.35288 1.92113
3142.30444 1.92147
3140.25600 1.92155
3138.20756 1.92271
3136.15913 1.92504
3134.11069 1.92666
3132.06225 1.92690
3130.01381 1.92581
3127.96537 1.92508
3125.91693 1.92537
3123.86850 1.92543
3121.82006 1.92675
3119.77162 1.92955
3117.72318 1.93089
3115.67474 1.93065
3113.62630 1.93081
3111.57787 1.93197
3109.52943 1.93400
3107.48099 1.93564
3105.43255 1.93589
3103.38411 1.93556
3101.33567 1.93586
3099.28724 1.93685
3097.23880 1.93782
3095.19036 1.93943
3093.14192 1.94202
3091.09348 1.94384
3089.04504 1.94318
3086.99661 1.94129
3084.94817 1.94042
3082.89973 1.94108
3080.85129 1.94230
3078.80285 1.94265
3076.75441 1.94198
3074.70598 1.94146
3072.65754 1.94237
3070.60910 1.94358
3068.56066 1.94397
3066.51222 1.94457
3064.46378 1.94466
3062.41535 1.94414
3060.36691 1.94414
3058.31847 1.94364
3056.27003 1.94274
3054.22159 1.94318
3052.17315 1.94381
3050.12471 1.94252
3048.07628 1.94083
3046.02784 1.94088
3043.97940 1.94187
3041.93096 1.94267
3039.88252 1.94221
3037.83408 1.94012
3035.78565 1.93884
3033.73721 1.93967
3031.68877 1.94033
3029.64033 1.93955
3027.59189 1.93965
3025.54345 1.94183
3023.49502 1.94427
3021.44658 1.94564
3019.39814 1.94604
3017.34970 1.94615
3015.30126 1.94657
3013.25282 1.94705
3011.20439 1.94692
3009.15595 1.94637
3007.10751 1.94646
3005.05907 1.94748
3003.01063 1.94831
3000.96219 1.94809
2998.91376 1.94777
2996.86532 1.94868
2994.81688 1.94992
2992.76844 1.95095
2990.72000 1.95278
2988.67156 1.95420
2986.62313 1.95439
2984.57469 1.95409
2982.52625 1.95371
2980.47781 1.95490
2978.42937 1.95762
2976.38093 1.95956
2974.33250 1.96029
2972.28406 1.96062
2970.23562 1.96087
2968.18718 1.96105
2966.13874 1.96146
2964.09030 1.96179
2962.04187 1.96150
2959.99343 1.96099
2957.94499 1.95977
2955.89655 1.95895
2953.84811 1.96021
2951.79967 1.96175
2949.75124 1.96164
2947.70280 1.96043
2945.65436 1.96029
2943.60592 1.96155
2941.55748 1.96255
2939.50904 1.96248
2937.46061 1.96109
2935.41217 1.96057
2933.36373 1.96229
2931.31529 1.96294
2929.26685 1.96277
2927.21841 1.96515
2925.16998 1.96757
2923.12154 1.96721
2921.07310 1.96619
2919.02466 1.96484
2916.97622 1.96167
2914.92778 1.95799
2912.87934 1.95612
2910.83091 1.95640
2908.78247 1.95833
2906.73403 1.96115
2904.68559 1.96300
2902.63715 1.96264
2900.58871 1.96117
2898.54028 1.96082
2896.49184 1.96193
2894.44340 1.96313
2892.39496 1.96414
2890.34652 1.96463
2888.29808 1.96417
2886.24965 1.96354
2884.20121 1.96372
2882.15277 1.96532
2880.10433 1.96664
2878.05589 1.96603
2876.00745 1.96559
2873.95902 1.96660
2871.91058 1.96866
2869.86214 1.97064
2867.81370 1.97032
2865.76526 1.96880
2863.71682 1.96975
2861.66839 1.97324
2859.61995 1.97540
2857.57151 1.97451
2855.52307 1.97271
2853.47463 1.97210
2851.42619 1.97249
2849.37776 1.97203
2847.32932 1.97044
2845.28088 1.96984
2843.23244 1.97120
2841.18400 1.97342
2839.13556 1.97594
2837.08713 1.97855
2835.03869 1.97960
2832.99025 1.97853
2830.94181 1.97693
2828.89337 1.97618
2826.84493 1.97733
2824.79650 1.97940
2822.74806 1.97977
2820.69962 1.97931
2818.65118 1.97925
2816.60274 1.97902
2814.55430 1.97889
2812.50587 1.97827
2810.45743 1.97745
2808.40899 1.97794
2806.36055 1.97915
2804.31211 1.97960
2802.26367 1.97920
2800.21524 1.97908
2798.16680 1.98052
2796.11836 1.98295
2794.06992 1.98427
2792.02148 1.98436
2789.97304 1.98388
2787.92461 1.98241
2785.87617 1.98074
2783.82773 1.98038
2781.77929 1.98080
2779.73085 1.98061
2777.68241 1.98065
2775.63397 1.98136
2773.58554 1.98161
2771.53710 1.98180
2769.48866 1.98150
2767.44022 1.98050
2765.39178 1.98084
2763.34334 1.98203
2761.29491 1.98268
2759.24647 1.98312
2757.19803 1.98332
2755.14959 1.98369
2753.10115 1.98376
2751.05271 1.98304
2749.00428 1.98364
2746.95584 1.98562
2744.90740 1.98669
2742.85896 1.98725
2740.81052 1.98753
2738.76208 1.98596
2736.71365 1.98363
2734.66521 1.98249
2732.61677 1.98218
2730.56833 1.98159
2728.51989 1.98049
2726.47145 1.98016
2724.42302 1.98125
2722.37458 1.98194
2720.32614 1.98153
2718.27770 1.98083
2716.22926 1.97996
2714.18082 1.98011
2712.13239 1.98077
2710.08395 1.97953
2708.03551 1.97766
2705.98707 1.97747
2703.93863 1.97781
2701.89019 1.97777
2699.84176 1.97843
2697.79332 1.97898
2695.74488 1.97811
2693.69644 1.97714
2691.64800 1.97603
2689.59956 1.97386
2687.55113 1.97195
2685.50269 1.97157
2683.45425 1.97249
2681.40581 1.97286
2679.35737 1.97265
2677.30893 1.97404
2675.26050 1.97637
2673.21206 1.97736
2671.16362 1.97679
2669.11518 1.97493
2667.06674 1.97148
2665.01830 1.96868
2662.96987 1.96904
2660.92143 1.97159
2658.87299 1.97276
2656.82455 1.97173
2654.77611 1.97122
2652.72767 1.97156
2650.67924 1.97250
2648.63080 1.97409
2646.58236 1.97413
2644.53392 1.97228
2642.48548 1.97169
2640.43704 1.97294
2638.38860 1.97310
2636.34017 1.97211
2634.29173 1.97144
2632.24329 1.97025
2630.19485 1.96821
2628.14641 1.96715
2626.09797 1.96735
2624.04954 1.96718
2622.00110 1.96688
2619.95266 1.96792
2617.90422 1.96988
2615.85578 1.97046
2613.80734 1.96890
2611.75891 1.96630
2609.71047 1.96514
2607.66203 1.96642
2605.61359 1.96720
2603.56515 1.96725
2601.51671 1.96879
2599.46828 1.97053
2597.41984 1.97071
2595.37140 1.97055
2593.32296 1.97085
2591.27452 1.97059
2589.22608 1.96990
2587.17765 1.97016
2585.12921 1.97121
2583.08077 1.97151
2581.03233 1.97137
2578.98389 1.97143
2576.93545 1.97127
2574.88702 1.97113
2572.83858 1.97217
2570.79014 1.97405
2568.74170 1.97544
2566.69326 1.97541
2564.64482 1.97352
2562.59639 1.97208
2560.54795 1.97272
2558.49951 1.97404
2556.45107 1.97449
2554.40263 1.97431
2552.35419 1.97550
2550.30576 1.97761
2548.25732 1.97813
2546.20888 1.97790
2544.16044 1.97859
2542.11200 1.97967
2540.06356 1.98107
2538.01513 1.98308
2535.96669 1.98521
2533.91825 1.98664
2531.86981 1.98724
2529.82137 1.98777
2527.77293 1.98808
2525.72450 1.98801
2523.67606 1.98791
2521.62762 1.98748
2519.57918 1.98659
2517.53074 1.98599
2515.48230 1.98602
2513.43387 1.98646
2511.38543 1.98685
2509.33699 1.98763
2507.28855 1.98981
2505.24011 1.99188
2503.19167 1.99181
2501.14324 1.99090
2499.09480 1.99134
2497.04636 1.99231
2494.99792 1.99196
2492.94948 1.99058
2490.90104 1.99017
2488.85260 1.99189
2486.80417 1.99335
2484.75573 1.99286
2482.70729 1.99235
2480.65885 1.99233
2478.61041 1.99332
2476.56197 1.99595
2474.51354 1.99751
2472.46510 1.99710
2470.41666 1.99635
2468.36822 1.99674
2466.31978 1.99865
2464.27134 2.00028
2462.22291 2.00075
2460.17447 2.00055
2458.12603 1.99990
2456.07759 1.99929
2454.02915 1.99902
2451.98071 1.99918
2449.93228 2.00032
2447.88384 2.00133
2445.83540 2.00089
2443.78696 2.00176
2441.73852 2.00485
2439.69008 2.00611
2437.64165 2.00544
2435.59321 2.00598
2433.54477 2.00786
2431.49633 2.01040
2429.44789 2.01275
2427.39945 2.01426
2425.35102 2.01547
2423.30258 2.01645
2421.25414 2.01792
2419.20570 2.01985
2417.15726 2.02175
2415.10882 2.02399
2413.06039 2.02533
2411.01195 2.02389
2408.96351 2.01925
2406.91507 2.01459
2404.86663 2.01264
2402.81819 2.01120
2400.76976 2.00939
2398.72132 2.00771
2396.67288 2.00461
2394.62444 2.00195
2392.57600 2.00177
2390.52756 2.00127
2388.47913 1.99938
2386.43069 1.99789
2384.38225 1.99713
2382.33381 1.99663
2380.28537 1.99772
2378.23693 1.99950
2376.18850 1.99746
2374.14006 1.99300
2372.09162 1.99140
2370.04318 1.99351
2367.99474 1.99693
2365.94630 1.99816
2363.89787 1.99653
2361.84943 1.99775
2359.80099 2.00629
2357.75255 2.00891
2355.70411 1.99854
2353.65567 1.99263
2351.60723 1.99453
2349.55880 1.99466
2347.51036 1.99328
2345.46192 1.99403
2343.41348 1.99484
2341.36504 1.99467
2339.31660 1.99442
2337.26817 1.99119
2335.21973 1.99149
2333.17129 1.99699
2331.12285 1.99940
2329.07441 1.99903
2327.02597 1.99833
2324.97754 1.99688
2322.92910 1.99518
2320.88066 1.99417
2318.83222 1.99357
2316.78378 1.99253
2314.73534 1.99273
2312.68691 1.99470
2310.63847 1.99559
2308.59003 1.99408
2306.54159 1.99196
2304.49315 1.98939
2302.44471 1.98707
2300.39628 1.98743
2298.34784 1.98878
2296.29940 1.98819
2294.25096 1.98636
2292.20252 1.98504
2290.15408 1.98540
2288.10565 1.98685
2286.05721 1.98681
2284.00877 1.98540
2281.96033 1.98520
2279.91189 1.98626
2277.86345 1.98650
2275.81502 1.98522
2273.76658 1.98473
2271.71814 1.98641
2269.66970 1.98758
2267.62126 1.98657
2265.57282 1.98531
2263.52439 1.98573
2261.47595 1.98619
2259.42751 1.98445
2257.37907 1.98283
2255.33063 1.98378
2253.28219 1.98637
2251.23376 1.98776
2249.18532 1.98787
2247.13688 1.98955
2245.08844 1.99087
2243.04000 1.98961
2240.99156 1.98858
2238.94313 1.98888
2236.89469 1.98905
2234.84625 1.98928
2232.79781 1.99051
2230.74937 1.99223
2228.70093 1.99244
2226.65250 1.99074
2224.60406 1.99017
2222.55562 1.99031
2220.50718 1.98856
2218.45874 1.98649
2216.41030 1.98555
2214.36186 1.98565
2212.31343 1.98685
2210.26499 1.98796
2208.21655 1.98713
2206.16811 1.98521
2204.11967 1.98472
2202.07123 1.98506
2200.02280 1.98485
2197.97436 1.98553
2195.92592 1.98687
2193.87748 1.98720
2191.82904 1.98698
2189.78060 1.98715
2187.73217 1.98832
2185.68373 1.98978
2183.63529 1.99088
2181.58685 1.99186
2179.53841 1.99157
2177.48997 1.98971
2175.44154 1.98860
2173.39310 1.98998
2171.34466 1.99206
2169.29622 1.99234
2167.24778 1.99242
2165.19934 1.99435
2163.15091 1.99698
2161.10247 1.99856
2159.05403 1.99942
2157.00559 2.00114
2154.95715 2.00258
2152.90871 2.00259
2150.86028 2.00301
2148.81184 2.00351
2146.76340 2.00314
2144.71496 2.00298
2142.66652 2.00297
2140.61808 2.00221
2138.56965 2.00074
2136.52121 1.99930
2134.47277 1.99766
2132.42433 1.99628
2130.37589 1.99684
2128.32745 1.99770
2126.27902 1.99720
2124.23058 1.99791
2122.18214 2.00024
2120.13370 2.00093
2118.08526 1.99970
2116.03682 1.99964
2113.98839 2.00176
2111.93995 2.00345
2109.89151 2.00368
2107.84307 2.00555
2105.79463 2.00941
2103.74619 2.01249
2101.69776 2.01441
2099.64932 2.01550
2097.60088 2.01652
2095.55244 2.01777
2093.50400 2.01723
2091.45556 2.01540
2089.40713 2.01425
2087.35869 2.01290
2085.31025 2.01193
2083.26181 2.01230
2081.21337 2.01255
2079.16493 2.01313
2077.11649 2.01510
2075.06806 2.01723
2073.01962 2.01934
2070.97118 2.02136
2068.92274 2.02208
2066.87430 2.02295
2064.82586 2.02488
2062.77743 2.02605
2060.72899 2.02638
2058.68055 2.02621
2056.63211 2.02610
2054.58367 2.02723
2052.53523 2.02971
2050.48680 2.03262
2048.43836 2.03428
2046.38992 2.03406
2044.34148 2.03287
2042.29304 2.03102
2040.24460 2.02875
2038.19617 2.02731
2036.14773 2.02654
2034.09929 2.02601
2032.05085 2.02605
2030.00241 2.02586
2027.95397 2.02553
2025.90554 2.02461
2023.85710 2.02300
2021.80866 2.02210
2019.76022 2.02108
2017.71178 2.01950
2015.66334 2.01867
2013.61491 2.01852
2011.56647 2.01827
2009.51803 2.01807
2007.46959 2.01761
2005.42115 2.01730
2003.37271 2.01887
2001.32428 2.02098
1999.27584 2.02188
1997.22740 2.02199
1995.17896 2.02042
1993.13052 2.01672
1991.08208 2.01364
1989.03365 2.01355
1986.98521 2.01575
1984.93677 2.01791
1982.88833 2.01866
1980.83989 2.01889
1978.79145 2.01887
1976.74302 2.01747
1974.69458 2.01535
1972.64614 2.01466
1970.59770 2.01488
1968.54926 2.01395
1966.50082 2.01227
1964.45239 2.01164
1962.40395 2.01193
1960.35551 2.01271
1958.30707 2.01392
1956.25863 2.01471
1954.21019 2.01494
1952.16176 2.01499
1950.11332 2.01497
1948.06488 2.01557
1946.01644 2.01693
1943.96800 2.01819
1941.91956 2.01991
1939.87112 2.02189
1937.82269 2.02239
1935.77425 2.02338
1933.72581 2.02633
1931.67737 2.02779
1929.62893 2.02727
1927.58049 2.02779
1925.53206 2.02907
1923.48362 2.03082
1921.43518 2.03337
1919.38674 2.03593
1917.33830 2.03886
1915.28986 2.04014
1913.24143 2.03912
1911.19299 2.03880
1909.14455 2.04022
1907.09611 2.04254
1905.04767 2.04587
1902.99923 2.04995
1900.95080 2.05306
1898.90236 2.05422
1896.85392 2.05436
1894.80548 2.05465
1892.75704 2.05468
1890.70860 2.05521
1888.66017 2.05874
1886.61173 2.06282
1884.56329 2.06349
1882.51485 2.06230
1880.46641 2.06309
1878.41797 2.06580
1876.36954 2.06650
1874.32110 2.06469
1872.27266 2.06266
1870.22422 2.06129
1868.17578 2.06425
1866.12734 2.07051
1864.07891 2.07413
1862.03047 2.07639
1859.98203 2.07890
1857.93359 2.08055
1855.88515 2.08166
1853.83671 2.08341
1851.78828 2.08458
1849.73984 2.08353
1847.69140 2.08203
1845.64296 2.08127
1843.59452 2.08386
1841.54608 2.09152
1839.49765 2.09642
1837.44921 2.09496
1835.40077 2.09308
1833.35233 2.09433
1831.30389 2.09588
1829.25545 2.09728
1827.20702 2.09920
1825.15858 2.10194
1823.11014 2.10553
1821.06170 2.10808
1819.01326 2.10982
1816.96482 2.11150
1814.91639 2.11329
1812.86795 2.11521
1810.81951 2.11728
1808.77107 2.12032
1806.72263 2.12303
1804.67419 2.12376
1802.62575 2.12449
1800.57732 2.12683
1798.52888 2.12873
1796.48044 2.12988
1794.43200 2.13040
1792.38356 2.13196
1790.33512 2.13699
1788.28669 2.14170
1786.23825 2.14505
1784.18981 2.14677
1782.14137 2.14708
1780.09293 2.14913
1778.04449 2.15213
1775.99606 2.15378
1773.94762 2.15495
1771.89918 2.15383
1769.85074 2.15154
1767.80230 2.15489
1765.75386 2.16137
1763.70543 2.16620
1761.65699 2.16985
1759.60855 2.17210
1757.56011 2.17425
1755.51167 2.17775
1753.46323 2.17942
1751.41480 2.17987
1749.36636 2.18644
1747.31792 2.19826
1745.26948 2.20681
1743.22104 2.20984
1741.17260 2.20770
1739.12417 2.20497
1737.07573 2.20529
1735.02729 2.20607
1732.97885 2.20674
1730.93041 2.20573
1728.88197 2.19915
1726.83354 2.18750
1724.78510 2.17548
1722.73666 2.17019
1720.68822 2.17095
1718.63978 2.16945
1716.59134 2.16827
1714.54291 2.17588
1712.49447 2.18220
1710.44603 2.18333
1708.39759 2.18312
1706.34915 2.18520
1704.30071 2.18958
1702.25228 2.19222
1700.20384 2.19227
1698.15540 2.19376
1696.10696 2.19893
1694.05852 2.20519
1692.01008 2.20891
1689.96165 2.21114
1687.91321 2.21110
1685.86477 2.20937
1683.81633 2.21341
1681.76789 2.21954
1679.71945 2.22188
1677.67102 2.22508
1675.62258 2.23121
1673.57414 2.23474
1671.52570 2.23322
1669.47726 2.23468
1667.42882 2.23930
1665.38038 2.24114
1663.33195 2.24248
1661.28351 2.24551
1659.23507 2.24924
1657.18663 2.25282
1655.13819 2.25598
1653.08975 2.25826
1651.04132 2.25907
1648.99288 2.25896
1646.94444 2.25926
1644.89600 2.26402
1642.84756 2.26905
1640.79912 2.27249
1638.75069 2.27551
1636.70225 2.27953
1634.65381 2.28525
1632.60537 2.29053
1630.55693 2.29686
1628.50849 2.30425
1626.46006 2.30929
1624.41162 2.31032
1622.36318 2.30911
1620.31474 2.30707
1618.26630 2.30735
1616.21786 2.31534
1614.16943 2.32347
1612.12099 2.32676
1610.07255 2.32987
1608.02411 2.33376
1605.97567 2.33710
1603.92723 2.33926
1601.87880 2.34179
1599.83036 2.34811
1597.78192 2.35597
1595.73348 2.36244
1593.68504 2.36816
1591.63660 2.37306
1589.58817 2.37689
1587.53973 2.38232
1585.49129 2.38954
1583.44285 2.39398
1581.39441 2.39697
1579.34597 2.40150
1577.29754 2.40829
1575.24910 2.41629
1573.20066 2.42140
1571.15222 2.42609
1569.10378 2.43171
1567.05534 2.43319
1565.00691 2.43508
1562.95847 2.44000
1560.91003 2.44670
1558.86159 2.46114
1556.81315 2.46774
1554.76471 2.47317
1552.71628 2.48242
1550.66784 2.48825
1548.61940 2.49091
1546.57096 2.49605
1544.52252 2.49952
1542.47408 2.49270
1540.42565 2.49557
1538.37721 2.51453
1536.32877 2.51863
1534.28033 2.51535
1532.23189 2.51704
1530.18345 2.52139
1528.13501 2.52514
1526.08658 2.52666
1524.03814 2.52802
1521.98970 2.51865
1519.94126 2.49347
1517.89282 2.47140
1515.84438 2.44460
1513.79595 2.41129
1511.74751 2.37583
1509.69907 2.33838
1507.65063 2.27209
1505.60219 2.18488
1503.55375 2.13684
1501.50532 2.09457
1499.45688 2.04110
1497.40844 1.97549
1495.36000 1.91682
1493.31156 1.87782
1491.26312 1.83944
1489.21469 1.78950
1487.16625 1.74810
1485.11781 1.72052
1483.06937 1.69700
1481.02093 1.67426
1478.97249 1.65539
1476.92406 1.64008
1474.87562 1.62577
1472.82718 1.61095
1470.77874 1.59827
1468.73030 1.59007
1466.68186 1.58181
1464.63343 1.57109
1462.58499 1.56176
1460.53655 1.55499
1458.48811 1.54632
1456.43967 1.53566
1454.39123 1.53090
1452.34280 1.52799
1450.29436 1.52412
1448.24592 1.51995
1446.19748 1.51761
1444.14904 1.51763
1442.10060 1.51890
1440.05217 1.52078
1438.00373 1.52432
1435.95529 1.53121
1433.90685 1.53842
1431.85841 1.54494
1429.80997 1.55309
1427.76154 1.56077
1425.71310 1.56522
1423.66466 1.56739
1421.61622 1.56749
1419.56778 1.56446
1417.51934 1.55865
1415.47091 1.55152
1413.42247 1.54161
1411.37403 1.52882
1409.32559 1.51516
1407.27715 1.50193
1405.22871 1.48798
1403.18028 1.47512
1401.13184 1.46514
1399.08340 1.45612
1397.03496 1.44804
1394.98652 1.44196
1392.93808 1.43897
1390.88965 1.43829
1388.84121 1.43894
1386.79277 1.44247
1384.74433 1.44945
1382.69589 1.45864
1380.64745 1.47094
1378.59901 1.48621
1376.55058 1.50298
1374.50214 1.52252
1372.45370 1.54320
1370.40526 1.56105
1368.35682 1.57788
1366.30838 1.59313
1364.25995 1.60618
1362.21151 1.62019
1360.16307 1.63354
1358.11463 1.64370
1356.06619 1.65288
1354.01775 1.66337
1351.96932 1.67429
1349.92088 1.68370
1347.87244 1.69144
1345.82400 1.69916
1343.77556 1.70736
1341.72712 1.71542
1339.67869 1.72365
1337.63025 1.73182
1335.58181 1.73873
1333.53337 1.74475
1331.48493 1.75130
1329.43649 1.75852
1327.38806 1.76479
1325.33962 1.76970
1323.29118 1.77434
1321.24274 1.77899
1319.19430 1.78326
1317.14586 1.78641
1315.09743 1.78902
1313.04899 1.79219
1311.00055 1.79541
1308.95211 1.79744
1306.90367 1.79814
1304.85523 1.79822
1302.80680 1.79799
1300.75836 1.79817
1298.70992 1.79943
1296.66148 1.80067
1294.61304 1.80069
1292.56460 1.80028
1290.51617 1.80014
1288.46773 1.79996
1286.41929 1.79966
1284.37085 1.79979
1282.32241 1.80081
1280.27397 1.80209
1278.22554 1.80290
1276.17710 1.80366
1274.12866 1.80456
1272.08022 1.80555
1270.03178 1.80711
1267.98334 1.80889
1265.93491 1.81041
1263.88647 1.81183
1261.83803 1.81415
1259.78959 1.81744
1257.74115 1.82049
1255.69271 1.82320
1253.64428 1.82602
1251.59584 1.82918
1249.54740 1.83208
1247.49896 1.83350
1245.45052 1.83423
1243.40208 1.83513
1241.35364 1.83577
1239.30521 1.83711
1237.25677 1.83952
1235.20833 1.84220
1233.15989 1.84514
1231.11145 1.84757
1229.06301 1.84899
1227.01458 1.85032
1224.96614 1.85195
1222.91770 1.85363
1220.86926 1.85506
1218.82082 1.85620
1216.77238 1.85769
1214.72395 1.85932
1212.67551 1.85986
1210.62707 1.85972
1208.57863 1.86033
1206.53019 1.86141
1204.48175 1.86177
1202.43332 1.86181
1200.38488 1.86281
1198.33644 1.86410
1196.28800 1.86499
1194.23956 1.86650
1192.19112 1.86863
1190.14269 1.87031
1188.09425 1.87147
1186.04581 1.87283
1183.99737 1.87462
1181.94893 1.87617
1179.90049 1.87634
1177.85206 1.87591
1175.80362 1.87609
1173.75518 1.87593
1171.70674 1.87574
1169.65830 1.87636
1167.60986 1.87680
1165.56143 1.87707
1163.51299 1.87854
1161.46455 1.87996
1159.41611 1.87939
1157.36767 1.87804
1155.31923 1.87746
1153.27080 1.87769
1151.22236 1.87829
1149.17392 1.87820
1147.12548 1.87727
1145.07704 1.87720
1143.02860 1.87811
1140.98017 1.87829
1138.93173 1.87741
1136.88329 1.87624
1134.83485 1.87566
1132.78641 1.87638
1130.73797 1.87682
1128.68954 1.87564
1126.64110 1.87415
1124.59266 1.87352
1122.54422 1.87410
1120.49578 1.87549
1118.44734 1.87687
1116.39891 1.87812
1114.35047 1.87919
1112.30203 1.87938
1110.25359 1.87889
1108.20515 1.87796
1106.15671 1.87664
1104.10827 1.87549
1102.05984 1.87374
1100.01140 1.87094
1097.96296 1.86810
1095.91452 1.86613
1093.86608 1.86528
1091.81764 1.86538
1089.76921 1.86561
1087.72077 1.86569
1085.67233 1.86611
1083.62389 1.86706
1081.57545 1.86814
1079.52701 1.86921
1077.47858 1.87092
1075.43014 1.87319
1073.38170 1.87600
1071.33326 1.87856
1069.28482 1.88067
1067.23638 1.88402
1065.18795 1.88815
1063.13951 1.89252
1061.09107 1.89967
1059.04263 1.91304
1056.99419 1.93085
1054.94575 1.92786
1052.89732 1.88442
1050.84888 1.84258
1048.80044 1.83612
1046.75200 1.84660
1044.70356 1.85301
1042.65512 1.85428
1040.60669 1.85352
1038.55825 1.85404
1036.50981 1.85592
1034.46137 1.85712
1032.41293 1.85856
1030.36449 1.86100
1028.31606 1.86350
1026.26762 1.86601
1024.21918 1.86881
1022.17074 1.87208
1020.12230 1.87527
1018.07386 1.87860
1016.02543 1.88221
1013.97699 1.88535
1011.92855 1.88789
1009.88011 1.88974
1007.83167 1.89113
1005.78323 1.89390
1003.73480 1.89933
1001.68636 1.90653
999.63792 1.91421
997.58948 1.92091
995.54104 1.92639
993.49260 1.93178
991.44417 1.93759
989.39573 1.94234
987.34729 1.94521
985.29885 1.94789
983.25041 1.95085
981.20197 1.95364
979.15354 1.95653
977.10510 1.95866
975.05666 1.95968
973.00822 1.96169
970.95978 1.96534
968.91134 1.96940
966.86290 1.97357
964.81447 1.97771
962.76603 1.98153
960.71759 1.98496
958.66915 1.98683
956.62071 1.98703
954.57227 1.98736
952.52384 1.98817
950.47540 1.98998
948.42696 1.99442
946.37852 1.99891
944.33008 1.99871
942.28164 1.99728
940.23321 1.99900
938.18477 2.00119
936.13633 2.00275
934.08789 2.00462
932.03945 2.00674
929.99101 2.00890
927.94258 2.01068
925.89414 2.01278
923.84570 2.01556
921.79726 2.01754
919.74882 2.01709
917.70038 2.01479
915.65195 2.01443
913.60351 2.01733
911.55507 2.02046
909.50663 2.02217
907.45819 2.02335
905.40975 2.02532
903.36132 2.02786
901.31288 2.02863
899.26444 2.02812
897.21600 2.03030
895.16756 2.03384
893.11912 2.03561
891.07069 2.03772
889.02225 2.04159
886.97381 2.04376
884.92537 2.04259
882.87693 2.04229
880.82849 2.04560
878.78006 2.05033
876.73162 2.05471
874.68318 2.05847
872.63474 2.06045
870.58630 2.06350
868.53786 2.06956
866.48943 2.07593
864.44099 2.08198
862.39255 2.08883
860.34411 2.09906
858.29567 2.11138
856.24723 2.12309
854.19880 2.13738
852.15036 2.15376
850.10192 2.15460
848.05348 2.10081
846.00504 1.96895
843.95660 1.81466
841.90817 1.70952
839.85973 1.67613
837.81129 1.70367
835.76285 1.76563
833.71441 1.82950
831.66597 1.87741
829.61753 1.91112
827.56910 1.93407
825.52066 1.94618
823.47222 1.94901
821.42378 1.94916
819.37534 1.95142
817.32690 1.95495
815.27847 1.95797
813.23003 1.95854
811.18159 1.96003
809.13315 1.96418
807.08471 1.96551
805.03627 1.96652
802.98784 1.97119
800.93940 1.97499
798.89096 1.97666
796.84252 1.97964
794.79408 1.98558
792.74564 1.99245
790.69721 1.99726
788.64877 2.00152
786.60033 2.00625
784.55189 2.00985
782.50345 2.01467
780.45501 2.02042
778.40658 2.02163
776.35814 2.01797
774.30970 2.01342
772.26126 2.01141
770.21282 2.01310
768.16438 2.01661
766.11595 2.01933
764.06751 2.02073
762.01907 2.02439
759.97063 2.03230
757.92219 2.03792
755.87375 2.03442
753.82532 2.02907
751.77688 2.03104
749.72844 2.03622
747.68000 2.03860
745.63156 2.04169
743.58312 2.04973
741.53469 2.05238
739.48625 2.04601
737.43781 2.04583
735.38937 2.05163
733.34093 2.05005
731.29249 2.04256
729.24406 2.03922
727.19562 2.04245
725.14718 2.05003
723.09874 2.05989
721.05030 2.06696
719.00186 2.06813
716.95343 2.06906
714.90499 2.07253
712.85655 2.07693
710.80811 2.08401
708.75967 2.09118
706.71123 2.09877
704.66280 2.11295
702.61436 2.12842
700.56592 2.13533
698.51748 2.13214
696.46904 2.13046
694.42060 2.15069
692.37216 2.18734
690.32373 2.20934
688.27529 2.22759
686.22685 2.26021
684.17841 2.22911
682.12997 2.04116
680.08153 1.80283
678.03310 1.65482
675.98466 1.63150
673.93622 1.68999
671.88778 1.75282
669.83934 1.79484
667.79090 1.85108
665.74247 1.89655
663.69403 1.91168
661.64559 1.91726
659.59715 1.92811
657.54871 1.94447
655.50027 1.94895
653.45184 1.94818
651.40340 1.95619
649.35496 1.96669
647.30652 1.97505
645.25808 1.97986
643.20964 1.98694
641.16121 1.99985
639.11277 1.99807
637.06433 1.97550
635.01589 1.95791
632.96745 1.95884
630.91901 1.96537
628.87058 1.95804
626.82214 1.94761
624.77370 1.96601
622.72526 1.98222
620.67682 1.95485
618.62838 1.94375
616.57995 1.97497
614.53151 2.03259
612.48307 2.09976
610.43463 2.09847
608.38619 2.03476
606.33775 2.00550
604.28932 2.05529
602.24088 2.12654
600.19244 2.12449
598.14400 2.09817
