3996.50324 2.28376
3994.45480 2.28680
3992.40636 2.29418
3990.35792 2.29341
3988.30948 2.28401
3986.26104 2.27737
3984.21261 2.27524
3982.16417 2.27674
3980.11573 2.28328
3978.06729 2.28741
3976.01885 2.28561
3973.97041 2.28442
3971.92198 2.28290
3969.87354 2.27509
3967.82510 2.26427
3965.77666 2.25738
3963.72822 2.25682
3961.67978 2.26096
3959.63135 2.26862
3957.58291 2.27629
3955.53447 2.27686
3953.48603 2.27513
3951.43759 2.27606
3949.38915 2.27612
3947.34072 2.27726
3945.29228 2.27705
3943.24384 2.27530
3941.19540 2.27712
3939.14696 2.27694
3937.09852 2.27232
3935.05009 2.26817
3933.00165 2.27024
3930.95321 2.27760
3928.90477 2.28001
3926.85633 2.27892
3924.80789 2.28262
3922.75946 2.28973
3920.71102 2.28905
3918.66258 2.28221
3916.61414 2.28519
3914.56570 2.29417
3912.51726 2.29748
3910.46883 2.29871
3908.42039 2.29652
3906.37195 2.28919
3904.32351 2.28636
3902.27507 2.29501
3900.22663 2.31019
3898.17820 2.32376
3896.12976 2.32575
3894.08132 2.31649
3892.03288 2.31398
3889.98444 2.32950
3887.93600 2.34019
3885.88756 2.34104
3883.83913 2.33777
3881.79069 2.32921
3879.74225 2.32513
3877.69381 2.32645
3875.64537 2.32902
3873.59693 2.33720
3871.54850 2.34351
3869.50006 2.34783
3867.45162 2.34866
3865.40318 2.34282
3863.35474 2.34214
3861.30630 2.34711
3859.25787 2.34996
3857.20943 2.34638
3855.16099 2.33492
3853.11255 2.33108
3851.06411 2.33983
3849.01567 2.34526
3846.96724 2.34930
3844.91880 2.34922
3842.87036 2.34577
3840.82192 2.34302
3838.77348 2.33844
3836.72504 2.34350
3834.67661 2.36095
3832.62817 2.37353
3830.57973 2.37435
3828.53129 2.37128
3826.48285 2.36820
3824.43441 2.36149
3822.38598 2.35873
3820.33754 2.37490
3818.28910 2.38722
3816.24066 2.39073
3814.19222 2.39970
3812.14378 2.39678
3810.09535 2.37892
3808.04691 2.36708
3805.99847 2.37462
3803.95003 2.37993
3801.90159 2.37977
3799.85315 2.38406
3797.80472 2.38596
3795.75628 2.39261
3793.70784 2.39959
3791.65940 2.39693
3789.61096 2.39377
3787.56252 2.39612
3785.51409 2.39867
3783.46565 2.39987
3781.41721 2.39771
3779.36877 2.39483
3777.32033 2.39614
3775.27189 2.39441
3773.22346 2.39127
3771.17502 2.39233
3769.12658 2.39758
3767.07814 2.40295
3765.02970 2.39991
3762.98126 2.38825
3760.93283 2.38016
3758.88439 2.38785
3756.83595 2.40052
3754.78751 2.39576
3752.73907 2.37630
3750.69063 2.36864
3748.64219 2.37807
3746.59376 2.37205
3744.54532 2.36502
3742.49688 2.36921
3740.44844 2.36104
3738.40000 2.34818
3736.35156 2.34939
3734.30313 2.36015
3732.25469 2.35800
3730.20625 2.34790
3728.15781 2.33819
3726.10937 2.33348
3724.06093 2.33375
3722.01250 2.33425
3719.96406 2.33767
3717.91562 2.34290
3715.86718 2.34331
3713.81874 2.33662
3711.77030 2.33255
3709.72187 2.34719
3707.67343 2.36098
3705.62499 2.35750
3703.57655 2.34973
3701.52811 2.35638
3699.47967 2.36569
3697.43124 2.36327
3695.38280 2.36131
3693.33436 2.36824
3691.28592 2.38096
3689.23748 2.39023
3687.18904 2.38309
3685.14061 2.37131
3683.09217 2.36935
3681.04373 2.37705
3678.99529 2.38500
3676.94685 2.39131
3674.89841 2.40326
3672.84998 2.39956
3670.80154 2.38453
3668.75310 2.38816
3666.70466 2.39836
3664.65622 2.39628
3662.60778 2.38876
3660.55935 2.38324
3658.51091 2.37900
3656.46247 2.37776
3654.41403 2.38014
3652.36559 2.37819
3650.31715 2.37549
3648.26872 2.38183
3646.22028 2.38285
3644.17184 2.37234
3642.12340 2.36008
3640.07496 2.35403
3638.02652 2.34950
3635.97809 2.34263
3633.92965 2.34149
3631.88121 2.34257
3629.83277 2.33971
3627.78433 2.35238
3625.73589 2.36813
3623.68746 2.36790
3621.63902 2.36189
3619.59058 2.36586
3617.54214 2.37656
3615.49370 2.36996
3613.44526 2.34865
3611.39682 2.33572
3609.34839 2.34022
3607.29995 2.35060
3605.25151 2.34988
3603.20307 2.33792
3601.15463 2.33038
3599.10619 2.33703
3597.05776 2.34774
3595.00932 2.35190
3592.96088 2.34866
3590.91244 2.34239
3588.86400 2.34451
3586.81556 2.36783
3584.76713 2.38270
3582.71869 2.37503
3580.67025 2.36570
3578.62181 2.36260
3576.57337 2.36275
3574.52493 2.36087
3572.47650 2.35298
3570.42806 2.34486
3568.37962 2.34771
3566.33118 2.36843
3564.28274 2.38565
3562.23430 2.38430
3560.18587 2.37543
3558.13743 2.36934
3556.08899 2.36792
3554.04055 2.37137
3551.99211 2.37725
3549.94367 2.37830
3547.89524 2.37507
3545.84680 2.38118
3543.79836 2.39422
3541.74992 2.39670
3539.70148 2.39199
3537.65304 2.38740
3535.60461 2.38401
3533.55617 2.38241
3531.50773 2.38048
3529.45929 2.37669
3527.41085 2.37630
3525.36241 2.38407
3523.31398 2.40068
3521.26554 2.41477
3519.21710 2.41413
3517.16866 2.40911
3515.12022 2.40930
3513.07178 2.41388
3511.02335 2.41721
3508.97491 2.41413
3506.92647 2.41039
3504.87803 2.40980
3502.82959 2.40824
3500.78115 2.40931
3498.73272 2.41483
3496.68428 2.41257
3494.63584 2.40363
3492.58740 2.40209
3490.53896 2.40913
3488.49052 2.41234
3486.44209 2.40757
3484.39365 2.40930
3482.34521 2.42042
3480.29677 2.42889
3478.24833 2.43092
3476.19989 2.43189
3474.15146 2.43508
3472.10302 2.43843
3470.05458 2.43882
3468.00614 2.43669
3465.95770 2.43433
3463.90926 2.43515
3461.86082 2.43934
3459.81239 2.44196
3457.76395 2.44554
3455.71551 2.45444
3453.66707 2.45876
3451.61863 2.45440
3449.57019 2.45114
3447.52176 2.45068
3445.47332 2.45494
3443.42488 2.46473
3441.37644 2.47083
3439.32800 2.46901
3437.27956 2.46140
3435.23113 2.45309
3433.18269 2.44871
3431.13425 2.44588
3429.08581 2.44172
3427.03737 2.43802
3424.98893 2.43684
3422.94050 2.43745
3420.89206 2.43683
3418.84362 2.43530
3416.79518 2.43676
3414.74674 2.43807
3412.69830 2.43488
3410.64987 2.43408
3408.60143 2.43791
3406.55299 2.43797
3404.50455 2.43573
3402.45611 2.44170
3400.40767 2.45483
3398.35924 2.46149
3396.31080 2.45584
3394.26236 2.44501
3392.21392 2.43791
3390.16548 2.43412
3388.11704 2.42560
3386.06861 2.41408
3384.02017 2.41168
3381.97173 2.42132
3379.92329 2.43031
3377.87485 2.43143
3375.82641 2.42953
3373.77798 2.42809
3371.72954 2.42669
3369.68110 2.42454
3367.63266 2.42544
3365.58422 2.43395
3363.53578 2.44203
3361.48735 2.44025
3359.43891 2.43357
3357.39047 2.42869
3355.34203 2.42719
3353.29359 2.42666
3351.24515 2.42887
3349.19672 2.43525
3347.14828 2.43542
3345.09984 2.42512
3343.05140 2.41393
3341.00296 2.41203
3338.95452 2.41725
3336.90609 2.41670
3334.85765 2.40979
3332.80921 2.40582
3330.76077 2.40712
3328.71233 2.41056
3326.66389 2.41067
3324.61545 2.40908
3322.56702 2.41047
3320.51858 2.41055
3318.47014 2.40490
3316.42170 2.40120
3314.37326 2.40797
3312.32482 2.41660
3310.27639 2.41447
3308.22795 2.40534
3306.17951 2.40198
3304.13107 2.40646
3302.08263 2.40978
3300.03419 2.40851
3297.98576 2.40622
3295.93732 2.40732
3293.88888 2.41309
3291.84044 2.41644
3289.79200 2.41101
3287.74356 2.40418
3285.69513 2.40543
3283.64669 2.41303
3281.59825 2.42108
3279.54981 2.42548
3277.50137 2.42258
3275.45293 2.41428
3273.40450 2.40834
3271.35606 2.40862
3269.30762 2.41031
3267.25918 2.40676
3265.21074 2.40223
3263.16230 2.40501
3261.11387 2.41104
3259.06543 2.41289
3257.01699 2.41204
3254.96855 2.41315
3252.92011 2.41425
3250.87167 2.41132
3248.82324 2.40966
3246.77480 2.41057
3244.72636 2.40876
3242.67792 2.40740
3240.62948 2.41171
3238.58104 2.41875
3236.53261 2.41953
3234.48417 2.41435
3232.43573 2.41139
3230.38729 2.41041
3228.33885 2.40931
3226.29041 2.41300
3224.24198 2.42251
3222.19354 2.42913
3220.14510 2.42984
3218.09666 2.42535
3216.04822 2.41725
3213.99978 2.41671
3211.95135 2.42197
3209.90291 2.42044
3207.85447 2.41752
3205.80603 2.42505
3203.75759 2.43804
3201.70915 2.44211
3199.66072 2.43763
3197.61228 2.43238
3195.56384 2.42804
3193.51540 2.42809
3191.46696 2.43140
3189.41852 2.43141
3187.37008 2.42914
3185.32165 2.42842
3183.27321 2.43144
3181.22477 2.43436
3179.17633 2.42896
3177.12789 2.42071
3175.07945 2.42064
3173.03102 2.42658
3170.98258 2.43005
3168.93414 2.42987
3166.88570 2.43188
3164.83726 2.44039
3162.78882 2.45008
3160.74039 2.45052
3158.69195 2.44204
3156.64351 2.43600
3154.59507 2.43953
3152.54663 2.44351
3150.49819 2.43980
3148.44976 2.43877
3146.40132 2.44503
3144.35288 2.44598
3142.30444 2.43901
3140.25600 2.43343
3138.20756 2.42982
3136.15913 2.42868
3134.11069 2.43245
3132.06225 2.43885
3130.01381 2.44852
3127.96537 2.45973
3125.91693 2.46373
3123.86850 2.46118
3121.82006 2.45977
3119.77162 2.45938
3117.72318 2.45763
3115.67474 2.45549
3113.62630 2.45633
3111.57787 2.46055
3109.52943 2.46373
3107.48099 2.46484
3105.43255 2.46617
3103.38411 2.46699
3101.33567 2.47045
3099.28724 2.48016
3097.23880 2.48740
3095.19036 2.48875
3093.14192 2.49378
3091.09348 2.50163
3089.04504 2.50249
3086.99661 2.49920
3084.94817 2.49740
3082.89973 2.49010
3080.85129 2.47778
3078.80285 2.47204
3076.75441 2.47712
3074.70598 2.48368
3072.65754 2.48106
3070.60910 2.47703
3068.56066 2.48165
3066.51222 2.48755
3064.46378 2.48682
3062.41535 2.48393
3060.36691 2.48276
3058.31847 2.48151
3056.27003 2.47686
3054.22159 2.47165
3052.17315 2.47364
3050.12471 2.47896
3048.07628 2.47937
3046.02784 2.47546
3043.97940 2.47367
3041.93096 2.47679
3039.88252 2.47956
3037.83408 2.47884
3035.78565 2.47608
3033.73721 2.47434
3031.68877 2.47553
3029.64033 2.47831
3027.59189 2.48075
3025.54345 2.48055
3023.49502 2.47766
3021.44658 2.47725
3019.39814 2.48061
3017.34970 2.48370
3015.30126 2.48562
3013.25282 2.48479
3011.20439 2.48322
3009.15595 2.48365
3007.10751 2.48431
3005.05907 2.48700
3003.01063 2.48856
3000.96219 2.48591
2998.91376 2.48546
2996.86532 2.48735
2994.81688 2.48786
2992.76844 2.48951
2990.72000 2.49229
2988.67156 2.49437
2986.62313 2.49684
2984.57469 2.49776
2982.52625 2.49365
2980.47781 2.48984
2978.42937 2.49226
2976.38093 2.49435
2974.33250 2.49404
2972.28406 2.49743
2970.23562 2.49950
2968.18718 2.49710
2966.13874 2.49854
2964.09030 2.50647
2962.04187 2.51373
2959.99343 2.51364
2957.94499 2.51123
2955.89655 2.51379
2953.84811 2.51507
2951.79967 2.50973
2949.75124 2.50612
2947.70280 2.50986
2945.65436 2.51323
2943.60592 2.51206
2941.55748 2.51129
2939.50904 2.51115
2937.46061 2.51107
2935.41217 2.51321
2933.36373 2.51851
2931.31529 2.52407
2929.26685 2.52661
2927.21841 2.52606
2925.16998 2.52204
2923.12154 2.52143
2921.07310 2.52905
2919.02466 2.53553
2916.97622 2.53146
2914.92778 2.52388
2912.87934 2.52445
2910.83091 2.52796
2908.78247 2.53023
2906.73403 2.53358
2904.68559 2.53546
2902.63715 2.53626
2900.58871 2.53517
2898.54028 2.53153
2896.49184 2.52740
2894.44340 2.52598
2892.39496 2.52885
2890.34652 2.53084
2888.29808 2.52802
2886.24965 2.52090
2884.20121 2.51417
2882.15277 2.51523
2880.10433 2.52144
2878.05589 2.52399
2876.00745 2.52558
2873.95902 2.53105
2871.91058 2.53794
2869.86214 2.54268
2867.81370 2.54269
2865.76526 2.54197
2863.71682 2.54400
2861.66839 2.54497
2859.61995 2.54223
2857.57151 2.54110
2855.52307 2.54679
2853.47463 2.54946
2851.42619 2.54292
2849.37776 2.53603
2847.32932 2.53580
2845.28088 2.54215
2843.23244 2.54647
2841.18400 2.54453
2839.13556 2.54187
2837.08713 2.54042
2835.03869 2.53931
2832.99025 2.53773
2830.94181 2.53513
2828.89337 2.53808
2826.84493 2.54881
2824.79650 2.55902
2822.74806 2.56309
2820.69962 2.55919
2818.65118 2.55208
2816.60274 2.54691
2814.55430 2.54666
2812.50587 2.55356
2810.45743 2.56086
2808.40899 2.56231
2806.36055 2.56099
2804.31211 2.56324
2802.26367 2.56495
2800.21524 2.55985
2798.16680 2.55546
2796.11836 2.55754
2794.06992 2.55990
2792.02148 2.55561
2789.97304 2.54635
2787.92461 2.54153
2785.87617 2.54876
2783.82773 2.55736
2781.77929 2.55524
2779.73085 2.54994
2777.68241 2.54904
2775.63397 2.55285
2773.58554 2.55526
2771.53710 2.55029
2769.48866 2.54682
2767.44022 2.55350
2765.39178 2.55981
2763.34334 2.55967
2761.29491 2.56065
2759.24647 2.55569
2757.19803 2.54359
2755.14959 2.53876
2753.10115 2.54007
2751.05271 2.54180
2749.00428 2.54704
2746.95584 2.55348
2744.90740 2.55417
2742.85896 2.55086
2740.81052 2.55308
2738.76208 2.56294
2736.71365 2.56894
2734.66521 2.56449
2732.61677 2.55858
2730.56833 2.55924
2728.51989 2.56452
2726.47145 2.56864
2724.42302 2.56799
2722.37458 2.56350
2720.32614 2.55856
2718.27770 2.55367
2716.22926 2.54850
2714.18082 2.54451
2712.13239 2.54572
2710.08395 2.55219
2708.03551 2.55379
2705.98707 2.54886
2703.93863 2.54516
2701.89019 2.54355
2699.84176 2.54381
2697.79332 2.54574
2695.74488 2.54863
2693.69644 2.55402
2691.64800 2.55722
2689.59956 2.55559
2687.55113 2.55148
2685.50269 2.54578
2683.45425 2.54555
2681.40581 2.54954
2679.35737 2.55092
2677.30893 2.55241
2675.26050 2.55332
2673.21206 2.55047
2671.16362 2.54583
2669.11518 2.54485
2667.06674 2.55011
2665.01830 2.55485
2662.96987 2.55200
2660.92143 2.54527
2658.87299 2.53948
2656.82455 2.53525
2654.77611 2.53593
2652.72767 2.54521
2650.67924 2.55624
2648.63080 2.55759
2646.58236 2.55217
2644.53392 2.54633
2642.48548 2.53940
2640.43704 2.53377
2638.38860 2.53365
2636.34017 2.53431
2634.29173 2.53344
2632.24329 2.53880
2630.19485 2.54681
2628.14641 2.54786
2626.09797 2.54370
2624.04954 2.54025
2622.00110 2.53977
2619.95266 2.54138
2617.90422 2.54366
2615.85578 2.54544
2613.80734 2.54851
2611.75891 2.55246
2609.71047 2.55264
2607.66203 2.55093
2605.61359 2.54903
2603.56515 2.54306
2601.51671 2.53768
2599.46828 2.53896
2597.41984 2.54562
2595.37140 2.55538
2593.32296 2.56001
2591.27452 2.55174
2589.22608 2.54303
2587.17765 2.54623
2585.12921 2.54979
2583.08077 2.54499
2581.03233 2.54027
2578.98389 2.54184
2576.93545 2.54951
2574.88702 2.55517
2572.83858 2.55167
2570.79014 2.54723
2568.74170 2.55004
2566.69326 2.55584
2564.64482 2.55798
2562.59639 2.55670
2560.54795 2.55656
2558.49951 2.55855
2556.45107 2.56270
2554.40263 2.56368
2552.35419 2.55958
2550.30576 2.56178
2548.25732 2.56773
2546.20888 2.56911
2544.16044 2.56553
2542.11200 2.55605
2540.06356 2.55021
2538.01513 2.55484
2535.96669 2.56402
2533.91825 2.57117
2531.86981 2.57142
2529.82137 2.56830
2527.77293 2.56723
2525.72450 2.56500
2523.67606 2.56426
2521.62762 2.56740
2519.57918 2.56866
2517.53074 2.56751
2515.48230 2.56840
2513.43387 2.57499
2511.38543 2.58500
2509.33699 2.58975
2507.28855 2.58661
2505.24011 2.58212
2503.19167 2.57893
2501.14324 2.57778
2499.09480 2.58132
2497.04636 2.58652
2494.99792 2.58866
2492.94948 2.59033
2490.90104 2.59351
2488.85260 2.58901
2486.80417 2.57885
2484.75573 2.57730
2482.70729 2.58216
2480.65885 2.58761
2478.61041 2.59614
2476.56197 2.59905
2474.51354 2.59204
2472.46510 2.58976
2470.41666 2.59343
2468.36822 2.59536
2466.31978 2.59878
2464.27134 2.60442
2462.22291 2.60601
2460.17447 2.59986
2458.12603 2.59463
2456.07759 2.59561
2454.02915 2.59384
2451.98071 2.59054
2449.93228 2.59423
2447.88384 2.59853
2445.83540 2.59629
2443.78696 2.59803
2441.73852 2.60664
2439.69008 2.60950
2437.64165 2.60794
2435.59321 2.60639
2433.54477 2.60318
2431.49633 2.60284
2429.44789 2.60730
2427.39945 2.61691
2425.35102 2.62591
2423.30258 2.62468
2421.25414 2.62145
2419.20570 2.62542
2417.15726 2.62982
2415.10882 2.62751
2413.06039 2.62079
2411.01195 2.61638
2408.96351 2.61542
2406.91507 2.61370
2404.86663 2.60848
2402.81819 2.60492
2400.76976 2.60579
2398.72132 2.60236
2396.67288 2.59717
2394.62444 2.59900
2392.57600 2.60074
2390.52756 2.59731
2388.47913 2.59719
2386.43069 2.60105
2384.38225 2.60314
2382.33381 2.60318
2380.28537 2.59828
2378.23693 2.59181
2376.18850 2.58907
2374.14006 2.58431
2372.09162 2.58274
2370.04318 2.59547
2367.99474 2.61818
2365.94630 2.62673
2363.89787 2.59913
2361.84943 2.55977
2359.80099 2.54803
2357.75255 2.56344
2355.70411 2.57794
2353.65567 2.59590
2351.60723 2.60807
2349.55880 2.60017
2347.51036 2.58899
2345.46192 2.58394
2343.41348 2.58942
2341.36504 2.60800
2339.31660 2.62257
2337.26817 2.61800
2335.21973 2.60098
2333.17129 2.58701
2331.12285 2.57086
2329.07441 2.55798
2327.02597 2.57050
2324.97754 2.59613
2322.92910 2.60603
2320.88066 2.59725
2318.83222 2.59226
2316.78378 2.60054
2314.73534 2.60685
2312.68691 2.59560
2310.63847 2.57741
2308.59003 2.57468
2306.54159 2.58105
2304.49315 2.58148
2302.44471 2.58317
2300.39628 2.58834
2298.34784 2.58740
2296.29940 2.57745
2294.25096 2.56656
2292.20252 2.56544
2290.15408 2.56954
2288.10565 2.56641
2286.05721 2.56302
2284.00877 2.56733
2281.96033 2.56620
2279.91189 2.55902
2277.86345 2.55897
2275.81502 2.56259
2273.76658 2.55941
2271.71814 2.54970
2269.66970 2.54471
2267.62126 2.54844
2265.57282 2.55471
2263.52439 2.56133
2261.47595 2.56568
2259.42751 2.56525
2257.37907 2.56170
2255.33063 2.55692
2253.28219 2.55588
2251.23376 2.56131
2249.18532 2.56416
2247.13688 2.55945
2245.08844 2.55683
2243.04000 2.55936
2240.99156 2.56276
2238.94313 2.56337
2236.89469 2.55877
2234.84625 2.55632
2232.79781 2.56014
2230.74937 2.56208
2228.70093 2.55837
2226.65250 2.55339
2224.60406 2.55036
2222.55562 2.55327
2220.50718 2.56113
2218.45874 2.56595
2216.41030 2.57162
2214.36186 2.58146
2212.31343 2.58299
2210.26499 2.57257
2208.21655 2.56194
2206.16811 2.56000
2204.11967 2.56309
2202.07123 2.56268
2200.02280 2.55923
2197.97436 2.55667
2195.92592 2.55517
2193.87748 2.55483
2191.82904 2.55556
2189.78060 2.55477
2187.73217 2.55461
2185.68373 2.55872
2183.63529 2.56130
2181.58685 2.55938
2179.53841 2.55720
2177.48997 2.55874
2175.44154 2.56565
2173.39310 2.57235
2171.34466 2.57483
2169.29622 2.57413
2167.24778 2.57117
2165.19934 2.57240
2163.15091 2.58202
2161.10247 2.59585
2159.05403 2.60602
2157.00559 2.60630
2154.95715 2.60041
2152.90871 2.59557
2150.86028 2.59391
2148.81184 2.59231
2146.76340 2.58881
2144.71496 2.58273
2142.66652 2.57429
2140.61808 2.57293
2138.56965 2.57963
2136.52121 2.57954
2134.47277 2.57281
2132.42433 2.57552
2130.37589 2.58563
2128.32745 2.58750
2126.27902 2.58219
2124.23058 2.58216
2122.18214 2.59052
2120.13370 2.59524
2118.08526 2.58833
2116.03682 2.58002
2113.98839 2.57897
2111.93995 2.58373
2109.89151 2.58778
2107.84307 2.58503
2105.79463 2.57970
2103.74619 2.57901
2101.69776 2.58236
2099.64932 2.59048
2097.60088 2.60458
2095.55244 2.61414
2093.50400 2.61158
2091.45556 2.60428
2089.40713 2.59945
2087.35869 2.60020
2085.31025 2.60541
2083.26181 2.60810
2081.21337 2.60750
2079.16493 2.60903
2077.11649 2.61528
2075.06806 2.62403
2073.01962 2.62583
2070.97118 2.61955
2068.92274 2.61447
2066.87430 2.61409
2064.82586 2.61546
2062.77743 2.61649
2060.72899 2.62339
2058.68055 2.63405
2056.63211 2.63900
2054.58367 2.64054
2052.53523 2.64158
2050.48680 2.64184
2048.43836 2.64257
2046.38992 2.64422
2044.34148 2.64403
2042.29304 2.63816
2040.24460 2.63135
2038.19617 2.63130
2036.14773 2.63291
2034.09929 2.62743
2032.05085 2.61889
2030.00241 2.61163
2027.95397 2.60852
2025.90554 2.61308
2023.85710 2.61559
2021.80866 2.61186
2019.76022 2.60839
2017.71178 2.60492
2015.66334 2.60102
2013.61491 2.59384
2011.56647 2.58224
2009.51803 2.57354
2007.46959 2.57321
2005.42115 2.57916
2003.37271 2.58654
2001.32428 2.58961
1999.27584 2.58396
1997.22740 2.57791
1995.17896 2.58033
1993.13052 2.58296
1991.08208 2.57570
1989.03365 2.56478
1986.98521 2.55828
1984.93677 2.55885
1982.88833 2.56717
1980.83989 2.57529
1978.79145 2.57120
1976.74302 2.55892
1974.69458 2.55478
1972.64614 2.55900
1970.59770 2.55871
1968.54926 2.55402
1966.50082 2.55001
1964.45239 2.54457
1962.40395 2.53748
1960.35551 2.53057
1958.30707 2.52821
1956.25863 2.53102
1954.21019 2.53483
1952.16176 2.53986
1950.11332 2.54394
1948.06488 2.54275
1946.01644 2.53951
1943.96800 2.54325
1941.91956 2.55391
1939.87112 2.56010
1937.82269 2.56018
1935.77425 2.55542
1933.72581 2.54977
1931.67737 2.55464
1929.62893 2.56469
1927.58049 2.56440
1925.53206 2.56079
1923.48362 2.56680
1921.43518 2.57389
1919.38674 2.57528
1917.33830 2.58371
1915.28986 2.59839
1913.24143 2.60533
1911.19299 2.60449
1909.14455 2.60359
1907.09611 2.60538
1905.04767 2.60868
1902.99923 2.61356
1900.95080 2.61831
1898.90236 2.62086
1896.85392 2.62498
1894.80548 2.63339
1892.75704 2.63497
1890.70860 2.62591
1888.66017 2.62032
1886.61173 2.62657
1884.56329 2.63836
1882.51485 2.64502
1880.46641 2.64484
1878.41797 2.64069
1876.36954 2.63376
1874.32110 2.62874
1872.27266 2.62617
1870.22422 2.62603
1868.17578 2.63083
1866.12734 2.63524
1864.07891 2.63599
1862.03047 2.63876
1859.98203 2.64545
1857.93359 2.65222
1855.88515 2.65609
1853.83671 2.65556
1851.78828 2.65411
1849.73984 2.65704
1847.69140 2.66196
1845.64296 2.66718
1843.59452 2.67734
1841.54608 2.68401
1839.49765 2.68171
1837.44921 2.67589
1835.40077 2.67081
1833.35233 2.66469
1831.30389 2.65907
1829.25545 2.66536
1827.20702 2.67778
1825.15858 2.68752
1823.11014 2.69571
1821.06170 2.70082
1819.01326 2.70301
1816.96482 2.70197
1814.91639 2.70130
1812.86795 2.70166
1810.81951 2.70575
1808.77107 2.71299
1806.72263 2.71570
1804.67419 2.71321
1802.62575 2.71264
1800.57732 2.72184
1798.52888 2.73227
1796.48044 2.73760
1794.43200 2.73496
1792.38356 2.72468
1790.33512 2.72878
1788.28669 2.74668
1786.23825 2.76528
1784.18981 2.77696
1782.14137 2.77621
1780.09293 2.76614
1778.04449 2.75633
1775.99606 2.74787
1773.94762 2.73801
1771.89918 2.74185
1769.85074 2.76124
1767.80230 2.77611
1765.75386 2.77970
1763.70543 2.77180
1761.65699 2.76573
1759.60855 2.77552
1757.56011 2.78884
1755.51167 2.79128
1753.46323 2.79020
1751.41480 2.79334
1749.36636 2.79969
1747.31792 2.81309
1745.26948 2.82548
1743.22104 2.82865
1741.17260 2.82078
1739.12417 2.80032
1737.07573 2.77894
1735.02729 2.76753
1732.97885 2.77847
1730.93041 2.79357
1728.88197 2.79874
1726.83354 2.80293
1724.78510 2.80516
1722.73666 2.79909
1720.68822 2.79043
1718.63978 2.78781
1716.59134 2.79290
1714.54291 2.80840
1712.49447 2.82478
1710.44603 2.82841
1708.39759 2.81498
1706.34915 2.79424
1704.30071 2.78612
1702.25228 2.79007
1700.20384 2.80492
1698.15540 2.82496
1696.10696 2.82056
1694.05852 2.80995
1692.01008 2.81377
1689.96165 2.82468
1687.91321 2.82938
1685.86477 2.82127
1683.81633 2.82320
1681.76789 2.84341
1679.71945 2.85144
1677.67102 2.84968
1675.62258 2.84647
1673.57414 2.84457
1671.52570 2.84164
1669.47726 2.84927
1667.42882 2.86503
1665.38038 2.87005
1663.33195 2.86604
1661.28351 2.86164
1659.23507 2.86647
1657.18663 2.87275
1655.13819 2.86700
1653.08975 2.85021
1651.04132 2.86190
1648.99288 2.88513
1646.94444 2.91401
1644.89600 2.93659
1642.84756 2.93731
1640.79912 2.93706
1638.75069 2.94935
1636.70225 2.95103
1634.65381 2.92644
1632.60537 2.92790
1630.55693 2.94781
1628.50849 2.96294
1626.46006 2.96156
1624.41162 2.95739
1622.36318 2.96092
1620.31474 2.95993
1618.26630 2.96033
1616.21786 2.97286
1614.16943 2.97724
1612.12099 2.97136
1610.07255 2.97275
1608.02411 2.98835
1605.97567 3.00595
1603.92723 3.01030
1601.87880 3.00441
1599.83036 2.99504
1597.78192 2.98835
1595.73348 2.99588
1593.68504 3.01034
1591.63660 3.01479
1589.58817 3.01354
1587.53973 3.02039
1585.49129 3.02524
1583.44285 3.02135
1581.39441 3.02778
1579.34597 3.05112
1577.29754 3.08994
1575.24910 3.10544
1573.20066 3.08064
1571.15222 3.05855
1569.10378 3.06068
1567.05534 3.08687
1565.00691 3.11434
1562.95847 3.14578
1560.91003 3.18065
1558.86159 3.19342
1556.81315 3.16605
1554.76471 3.14214
1552.71628 3.13381
1550.66784 3.15022
1548.61940 3.17695
1546.57096 3.19339
1544.52252 3.19006
1542.47408 3.18493
1540.42565 3.22225
1538.37721 3.25545
1536.32877 3.25450
1534.28033 3.24817
1532.23189 3.24180
1530.18345 3.24045
1528.13501 3.24125
1526.08658 3.22164
1524.03814 3.18863
1521.98970 3.18135
1519.94126 3.21500
1517.89282 3.21625
1515.84438 3.16568
1513.79595 3.13537
1511.74751 3.12064
1509.69907 3.10342
1507.65063 3.06282
1505.60219 2.95612
1503.55375 2.89896
1501.50532 2.87079
1499.45688 2.82395
1497.40844 2.75251
1495.36000 2.68874
1493.31156 2.64578
1491.26312 2.60708
1489.21469 2.55286
1487.16625 2.49951
1485.11781 2.46426
1483.06937 2.43726
1481.02093 2.41294
1478.97249 2.39271
1476.92406 2.37468
1474.87562 2.35754
1472.82718 2.34105
1470.77874 2.32840
1468.73030 2.31994
1466.68186 2.30938
1464.63343 2.29820
1462.58499 2.29134
1460.53655 2.28466
1458.48811 2.27487
1456.43967 2.26511
1454.39123 2.25818
1452.34280 2.25206
1450.29436 2.24741
1448.24592 2.24451
1446.19748 2.24237
1444.14904 2.23869
1442.10060 2.23432
1440.05217 2.23118
1438.00373 2.23048
1435.95529 2.23590
1433.90685 2.24279
1431.85841 2.24619
1429.80997 2.24978
1427.76154 2.25439
1425.71310 2.25796
1423.66466 2.26005
1421.61622 2.25852
1419.56778 2.25413
1417.51934 2.25171
1415.47091 2.24710
1413.42247 2.23593
1411.37403 2.22313
1409.32559 2.21269
1407.27715 2.20094
1405.22871 2.18523
1403.18028 2.17020
1401.13184 2.15811
1399.08340 2.14698
1397.03496 2.13749
1394.98652 2.13007
1392.93808 2.12469
1390.88965 2.12196
1388.84121 2.12290
1386.79277 2.12819
1384.74433 2.13456
1382.69589 2.14060
1380.64745 2.14940
1378.59901 2.16075
1376.55058 2.17332
1374.50214 2.19086
1372.45370 2.21149
1370.40526 2.22899
1368.35682 2.24503
1366.30838 2.25879
1364.25995 2.26843
1362.21151 2.27828
1360.16307 2.29096
1358.11463 2.30179
1356.06619 2.31027
1354.01775 2.31808
1351.96932 2.32371
1349.92088 2.32990
1347.87244 2.33878
1345.82400 2.34789
1343.77556 2.35582
1341.72712 2.36219
1339.67869 2.36988
1337.63025 2.37897
1335.58181 2.38431
1333.53337 2.38826
1331.48493 2.39353
1329.43649 2.39835
1327.38806 2.40362
1325.33962 2.41070
1323.29118 2.41670
1321.24274 2.41926
1319.19430 2.42085
1317.14586 2.42528
1315.09743 2.43068
1313.04899 2.43362
1311.00055 2.43705
1308.95211 2.44247
1306.90367 2.44651
1304.85523 2.44854
1302.80680 2.44946
1300.75836 2.44930
1298.70992 2.45063
1296.66148 2.45308
1294.61304 2.45242
1292.56460 2.45287
1290.51617 2.45698
1288.46773 2.45727
1286.41929 2.45444
1284.37085 2.45627
1282.32241 2.46216
1280.27397 2.46818
1278.22554 2.47146
1276.17710 2.47167
1274.12866 2.47412
1272.08022 2.47947
1270.03178 2.48030
1267.98334 2.47631
1265.93491 2.47672
1263.88647 2.48360
1261.83803 2.49145
1259.78959 2.49751
1257.74115 2.50063
1255.69271 2.50176
1253.64428 2.50176
1251.59584 2.49968
1249.54740 2.50012
1247.49896 2.50590
1245.45052 2.50915
1243.40208 2.50797
1241.35364 2.51216
1239.30521 2.52202
1237.25677 2.52794
1235.20833 2.52869
1233.15989 2.52830
1231.11145 2.52766
1229.06301 2.52820
1227.01458 2.53235
1224.96614 2.54072
1222.91770 2.54904
1220.86926 2.55205
1218.82082 2.55305
1216.77238 2.55663
1214.72395 2.55808
1212.67551 2.55489
1210.62707 2.55009
1208.57863 2.54744
1206.53019 2.55146
1204.48175 2.55836
1202.43332 2.56415
1200.38488 2.57021
1198.33644 2.57241
1196.28800 2.56933
1194.23956 2.56402
1192.19112 2.55793
1190.14269 2.55257
1188.09425 2.55115
1186.04581 2.55855
1183.99737 2.57083
1181.94893 2.57847
1179.90049 2.58102
1177.85206 2.58052
1175.80362 2.57820
1173.75518 2.58004
1171.70674 2.58276
1169.65830 2.57881
1167.60986 2.57720
1165.56143 2.58505
1163.51299 2.59722
1161.46455 2.60414
1159.41611 2.59953
1157.36767 2.59293
1155.31923 2.59260
1153.27080 2.59495
1151.22236 2.59716
1149.17392 2.59521
1147.12548 2.59038
1145.07704 2.58921
1143.02860 2.58938
1140.98017 2.59180
1138.93173 2.59818
1136.88329 2.59922
1134.83485 2.59619
1132.78641 2.59707
1130.73797 2.59895
1128.68954 2.60033
1126.64110 2.60334
1124.59266 2.60883
1122.54422 2.61375
1120.49578 2.61375
1118.44734 2.61051
1116.39891 2.61161
1114.35047 2.62251
1112.30203 2.63141
1110.25359 2.62728
1108.20515 2.62011
1106.15671 2.61912
1104.10827 2.61928
1102.05984 2.61769
1100.01140 2.61903
1097.96296 2.61930
1095.91452 2.61776
1093.86608 2.62224
1091.81764 2.63185
1089.76921 2.63711
1087.72077 2.63307
1085.67233 2.63109
1083.62389 2.64242
1081.57545 2.65547
1079.52701 2.65586
1077.47858 2.65069
1075.43014 2.65294
1073.38170 2.66217
1071.33326 2.66666
1069.28482 2.66712
1067.23638 2.67199
1065.18795 2.68009
1063.13951 2.68843
1061.09107 2.69619
1059.04263 2.70452
1056.99419 2.70959
1054.94575 2.68138
1052.89732 2.61334
1050.84888 2.56816
1048.80044 2.57741
1046.75200 2.60703
1044.70356 2.62375
1042.65512 2.63045
1040.60669 2.63398
1038.55825 2.63622
1036.50981 2.64207
1034.46137 2.64911
1032.41293 2.65504
1030.36449 2.66108
1028.31606 2.66241
1026.26762 2.65789
1024.21918 2.64606
1022.17074 2.63370
1020.12230 2.63514
1018.07386 2.64578
1016.02543 2.65241
1013.97699 2.65447
1011.92855 2.65944
1009.88011 2.66986
1007.83167 2.67601
1005.78323 2.67168
1003.73480 2.66779
1001.68636 2.67455
999.63792 2.69132
997.58948 2.70958
995.54104 2.72024
993.49260 2.72308
991.44417 2.72048
989.39573 2.71836
987.34729 2.71811
985.29885 2.71261
983.25041 2.70767
981.20197 2.71197
979.15354 2.72147
977.10510 2.73469
975.05666 2.74990
973.00822 2.75816
970.95978 2.75969
968.91134 2.75446
966.86290 2.74601
964.81447 2.74631
962.76603 2.74666
960.71759 2.73721
958.66915 2.73067
956.62071 2.73284
954.57227 2.73913
952.52384 2.74928
950.47540 2.75804
948.42696 2.76505
946.37852 2.77457
944.33008 2.77322
942.28164 2.75754
940.23321 2.74456
938.18477 2.73820
936.13633 2.73705
934.08789 2.74332
932.03945 2.74485
929.99101 2.73732
927.94258 2.73748
925.89414 2.74810
923.84570 2.76131
921.79726 2.77607
919.74882 2.78744
917.70038 2.79041
915.65195 2.78642
913.60351 2.77727
911.55507 2.76725
909.50663 2.76346
907.45819 2.76876
905.40975 2.77882
903.36132 2.78756
901.31288 2.79415
899.26444 2.80342
897.21600 2.80671
895.16756 2.78810
893.11912 2.76746
891.07069 2.77260
889.02225 2.79295
886.97381 2.80660
884.92537 2.81564
882.87693 2.82535
880.82849 2.83469
878.78006 2.84557
876.73162 2.85468
874.68318 2.85805
872.63474 2.85725
870.58630 2.85398
868.53786 2.85856
866.48943 2.87692
864.44099 2.89269
862.39255 2.88774
860.34411 2.87362
858.29567 2.87839
856.24723 2.90396
854.19880 2.92058
852.15036 2.89756
850.10192 2.85732
848.05348 2.80056
846.00504 2.66888
843.95660 2.51218
841.90817 2.41082
839.85973 2.37697
837.81129 2.39828
835.76285 2.45834
833.71441 2.53606
831.66597 2.61271
829.61753 2.67186
827.56910 2.70251
825.52066 2.70166
823.47222 2.68486
821.42378 2.67758
819.37534 2.67168
817.32690 2.65955
815.27847 2.67858
813.23003 2.73235
811.18159 2.76475
809.13315 2.77340
807.08471 2.78923
805.03627 2.79525
802.98784 2.78615
800.93940 2.79214
798.89096 2.82099
796.84252 2.84232
794.79408 2.83163
792.74564 2.79241
790.69721 2.75497
788.64877 2.74818
786.60033 2.77344
784.55189 2.80648
782.50345 2.80084
780.45501 2.75626
778.40658 2.72850
776.35814 2.74306
774.30970 2.79226
772.26126 2.84338
770.21282 2.85173
768.16438 2.82050
766.11595 2.78518
764.06751 2.76308
762.01907 2.73493
759.97063 2.71076
757.92219 2.72788
755.87375 2.78041
753.82532 2.84328
751.77688 2.86777
749.72844 2.84845
747.68000 2.86135
745.63156 2.89537
743.58312 2.88617
741.53469 2.85373
739.48625 2.83910
737.43781 2.84642
735.38937 2.83514
733.34093 2.78574
731.29249 2.75664
729.24406 2.79006
727.19562 2.88545
725.14718 2.98228
723.09874 2.95523
721.05030 2.85710
719.00186 2.81213
716.95343 2.82321
714.90499 2.84427
712.85655 2.82893
710.80811 2.80055
708.75967 2.79935
706.71123 2.82506
704.66280 2.92195
702.61436 3.03454
700.56592 2.98206
698.51748 2.92819
696.46904 2.97714
694.42060 2.98212
692.37216 2.89430
690.32373 2.85831
688.27529 2.92667
686.22685 3.00992
684.17841 2.99767
682.12997 2.86267
680.08153 2.63366
678.03310 2.46649
675.98466 2.43122
673.93622 2.50093
671.88778 2.61022
669.83934 2.70448
667.79090 2.71736
665.74247 2.67306
663.69403 2.66528
661.64559 2.66366
659.59715 2.61788
657.54871 2.55386
655.50027 2.53203
653.45184 2.57383
651.40340 2.66571
649.35496 2.78546
647.30652 2.87778
645.25808 2.79383
643.20964 2.63880
641.16121 2.64294
639.11277 2.86509
637.06433 3.08150
635.01589 2.98965
632.96745 2.89474
630.91901 2.84629
628.87058 2.77663
626.82214 2.75095
624.77370 2.86547
622.72526 3.05015
620.67682 3.10310
618.62838 2.97505
616.57995 2.77971
614.53151 2.72003
612.48307 2.74237
610.43463 2.63007
608.38619 2.50871
606.33775 2.53015
604.28932 2.54085
602.24088 2.44678
600.19244 2.39818
598.14400 2.37413
