3996.50324 1.42744
3994.45480 1.42708
3992.40636 1.42642
3990.35792 1.42549
3988.30948 1.42490
3986.26104 1.42464
3984.21261 1.42452
3982.16417 1.42474
3980.11573 1.42518
3978.06729 1.42497
3976.01885 1.42409
3973.97041 1.42413
3971.92198 1.42532
3969.87354 1.42601
3967.82510 1.42570
3965.77666 1.42507
3963.72822 1.42426
3961.67978 1.42326
3959.63135 1.42273
3957.58291 1.42346
3955.53447 1.42481
3953.48603 1.42522
3951.43759 1.42422
3949.38915 1.42280
3947.34072 1.42300
3945.29228 1.42427
3943.24384 1.42446
3941.19540 1.42426
3939.14696 1.42482
3937.09852 1.42532
3935.05009 1.42471
3933.00165 1.42360
3930.95321 1.42386
3928.90477 1.42483
3926.85633 1.42450
3924.80789 1.42382
3922.75946 1.42441
3920.71102 1.42529
3918.66258 1.42582
3916.61414 1.42659
3914.56570 1.42768
3912.51726 1.42844
3910.46883 1.42910
3908.42039 1.42954
3906.37195 1.42841
3904.32351 1.42631
3902.27507 1.42511
3900.22663 1.42539
3898.17820 1.42807
3896.12976 1.43061
3894.08132 1.43047
3892.03288 1.42919
3889.98444 1.42983
3887.93600 1.43061
3885.88756 1.43018
3883.83913 1.43044
3881.79069 1.43076
3879.74225 1.43063
3877.69381 1.43081
3875.64537 1.43033
3873.59693 1.42979
3871.54850 1.42996
3869.50006 1.43100
3867.45162 1.43204
3865.40318 1.43113
3863.35474 1.43061
3861.30630 1.43232
3859.25787 1.43248
3857.20943 1.42975
3855.16099 1.42503
3853.11255 1.42361
3851.06411 1.42991
3849.01567 1.43454
3846.96724 1.43604
3844.91880 1.43568
3842.87036 1.43471
3840.82192 1.43392
3838.77348 1.43363
3836.72504 1.43454
3834.67661 1.43498
3832.62817 1.43418
3830.57973 1.43329
3828.53129 1.43318
3826.48285 1.43406
3824.43441 1.43511
3822.38598 1.43471
3820.33754 1.43384
3818.28910 1.43375
3816.24066 1.43347
3814.19222 1.43418
3812.14378 1.43511
3810.09535 1.43558
3808.04691 1.43549
3805.99847 1.43518
3803.95003 1.43472
3801.90159 1.43378
3799.85315 1.43408
3797.80472 1.43450
3795.75628 1.43517
3793.70784 1.43640
3791.65940 1.43686
3789.61096 1.43699
3787.56252 1.43693
3785.51409 1.43671
3783.46565 1.43672
3781.41721 1.43614
3779.36877 1.43550
3777.32033 1.43637
3775.27189 1.43788
3773.22346 1.43892
3771.17502 1.43875
3769.12658 1.43778
3767.07814 1.43664
3765.02970 1.43574
3762.98126 1.43585
3760.93283 1.43537
3758.88439 1.43506
3756.83595 1.43653
3754.78751 1.43635
3752.73907 1.43310
3750.69063 1.43030
3748.64219 1.43181
3746.59376 1.43302
3744.54532 1.43210
3742.49688 1.43223
3740.44844 1.43292
3738.40000 1.43203
3736.35156 1.42992
3734.30313 1.43002
3732.25469 1.43282
3730.20625 1.43458
3728.15781 1.43453
3726.10937 1.43360
3724.06093 1.43307
3722.01250 1.43303
3719.96406 1.43331
3717.91562 1.43388
3715.86718 1.43386
3713.81874 1.43231
3711.77030 1.43017
3709.72187 1.43138
3707.67343 1.43447
3705.62499 1.43661
3703.57655 1.43742
3701.52811 1.43779
3699.47967 1.43899
3697.43124 1.44050
3695.38280 1.44194
3693.33436 1.44267
3691.28592 1.44182
3689.23748 1.44040
3687.18904 1.44036
3685.14061 1.44046
3683.09217 1.44031
3681.04373 1.44014
3678.99529 1.43973
3676.94685 1.43922
3674.89841 1.43904
3672.84998 1.43889
3670.80154 1.43820
3668.75310 1.43922
3666.70466 1.44087
3664.65622 1.44109
3662.60778 1.44097
3660.55935 1.44068
3658.51091 1.43922
3656.46247 1.43760
3654.41403 1.43843
3652.36559 1.43894
3650.31715 1.43568
3648.26872 1.43344
3646.22028 1.43559
3644.17184 1.43690
3642.12340 1.43691
3640.07496 1.43669
3638.02652 1.43630
3635.97809 1.43539
3633.92965 1.43463
3631.88121 1.43402
3629.83277 1.43289
3627.78433 1.43421
3625.73589 1.43687
3623.68746 1.43729
3621.63902 1.43642
3619.59058 1.43626
3617.54214 1.43772
3615.49370 1.43830
3613.44526 1.43710
3611.39682 1.43603
3609.34839 1.43531
3607.29995 1.43496
3605.25151 1.43562
3603.20307 1.43525
3601.15463 1.43359
3599.10619 1.43360
3597.05776 1.43454
3595.00932 1.43438
3592.96088 1.43472
3590.91244 1.43515
3588.86400 1.43367
3586.81556 1.43259
3584.76713 1.43417
3582.71869 1.43562
3580.67025 1.43640
3578.62181 1.43662
3576.57337 1.43623
3574.52493 1.43603
3572.47650 1.43631
3570.42806 1.43625
3568.37962 1.43443
3566.33118 1.43257
3564.28274 1.43394
3562.23430 1.43561
3560.18587 1.43614
3558.13743 1.43657
3556.08899 1.43710
3554.04055 1.43780
3551.99211 1.43835
3549.94367 1.43769
3547.89524 1.43615
3545.84680 1.43566
3543.79836 1.43679
3541.74992 1.43791
3539.70148 1.43857
3537.65304 1.43874
3535.60461 1.43839
3533.55617 1.43802
3531.50773 1.43798
3529.45929 1.43784
3527.41085 1.43761
3525.36241 1.43805
3523.31398 1.43856
3521.26554 1.43879
3519.21710 1.43922
3517.16866 1.43980
3515.12022 1.44050
3513.07178 1.44055
3511.02335 1.43964
3508.97491 1.43914
3506.92647 1.43958
3504.87803 1.43997
3502.82959 1.43993
3500.78115 1.43986
3498.73272 1.43950
3496.68428 1.43897
3494.63584 1.43899
3492.58740 1.43944
3490.53896 1.44016
3488.49052 1.44063
3486.44209 1.44060
3484.39365 1.44055
3482.34521 1.44062
3480.29677 1.44131
3478.24833 1.44206
3476.19989 1.44182
3474.15146 1.44179
3472.10302 1.44310
3470.05458 1.44427
3468.00614 1.44445
3465.95770 1.44435
3463.90926 1.44409
3461.86082 1.44359
3459.81239 1.44324
3457.76395 1.44340
3455.71551 1.44378
3453.66707 1.44394
3451.61863 1.44381
3449.57019 1.44370
3447.52176 1.44390
3445.47332 1.44429
3443.42488 1.44426
3441.37644 1.44361
3439.32800 1.44339
3437.27956 1.44382
3435.23113 1.44416
3433.18269 1.44420
3431.13425 1.44385
3429.08581 1.44315
3427.03737 1.44241
3424.98893 1.44172
3422.94050 1.44141
3420.89206 1.44185
3418.84362 1.44262
3416.79518 1.44316
3414.74674 1.44331
3412.69830 1.44316
3410.64987 1.44252
3408.60143 1.44165
3406.55299 1.44163
3404.50455 1.44251
3402.45611 1.44310
3400.40767 1.44275
3398.35924 1.44231
3396.31080 1.44243
3394.26236 1.44279
3392.21392 1.44342
3390.16548 1.44391
3388.11704 1.44339
3386.06861 1.44251
3384.02017 1.44249
3381.97173 1.44311
3379.92329 1.44349
3377.87485 1.44329
3375.82641 1.44250
3373.77798 1.44186
3371.72954 1.44216
3369.68110 1.44243
3367.63266 1.44138
3365.58422 1.44002
3363.53578 1.44009
3361.48735 1.44087
3359.43891 1.44115
3357.39047 1.44139
3355.34203 1.44172
3353.29359 1.44196
3351.24515 1.44216
3349.19672 1.44205
3347.14828 1.44186
3345.09984 1.44182
3343.05140 1.44161
3341.00296 1.44136
3338.95452 1.44124
3336.90609 1.44141
3334.85765 1.44170
3332.80921 1.44143
3330.76077 1.44127
3328.71233 1.44174
3326.66389 1.44166
3324.61545 1.44125
3322.56702 1.44156
3320.51858 1.44169
3318.47014 1.44117
3316.42170 1.44124
3314.37326 1.44227
3312.32482 1.44310
3310.27639 1.44319
3308.22795 1.44327
3306.17951 1.44328
3304.13107 1.44290
3302.08263 1.44242
3300.03419 1.44230
3297.98576 1.44270
3295.93732 1.44264
3293.88888 1.44180
3291.84044 1.44126
3289.79200 1.44146
3287.74356 1.44144
3285.69513 1.44115
3283.64669 1.44158
3281.59825 1.44244
3279.54981 1.44264
3277.50137 1.44200
3275.45293 1.44150
3273.40450 1.44155
3271.35606 1.44165
3269.30762 1.44198
3267.25918 1.44237
3265.21074 1.44181
3263.16230 1.44094
3261.11387 1.44114
3259.06543 1.44190
3257.01699 1.44228
3254.96855 1.44249
3252.92011 1.44270
3250.87167 1.44242
3248.82324 1.44202
3246.77480 1.44251
3244.72636 1.44329
3242.67792 1.44330
3240.62948 1.44275
3238.58104 1.44229
3236.53261 1.44233
3234.48417 1.44248
3232.43573 1.44241
3230.38729 1.44249
3228.33885 1.44290
3226.29041 1.44358
3224.24198 1.44418
3222.19354 1.44400
3220.14510 1.44300
3218.09666 1.44200
3216.04822 1.44175
3213.99978 1.44206
3211.95135 1.44211
3209.90291 1.44197
3207.85447 1.44209
3205.80603 1.44220
3203.75759 1.44256
3201.70915 1.44365
3199.66072 1.44449
3197.61228 1.44411
3195.56384 1.44336
3193.51540 1.44323
3191.46696 1.44331
3189.41852 1.44319
3187.37008 1.44320
3185.32165 1.44397
3183.27321 1.44508
3181.22477 1.44532
3179.17633 1.44478
3177.12789 1.44431
3175.07945 1.44403
3173.03102 1.44363
3170.98258 1.44320
3168.93414 1.44327
3166.88570 1.44390
3164.83726 1.44443
3162.78882 1.44433
3160.74039 1.44372
3158.69195 1.44332
3156.64351 1.44356
3154.59507 1.44418
3152.54663 1.44451
3150.49819 1.44404
3148.44976 1.44384
3146.40132 1.44439
3144.35288 1.44456
3142.30444 1.44447
3140.25600 1.44476
3138.20756 1.44476
3136.15913 1.44416
3134.11069 1.44387
3132.06225 1.44420
3130.01381 1.44462
3127.96537 1.44492
3125.91693 1.44497
3123.86850 1.44509
3121.82006 1.44561
3119.77162 1.44580
3117.72318 1.44551
3115.67474 1.44569
3113.62630 1.44623
3111.57787 1.44635
3109.52943 1.44633
3107.48099 1.44681
3105.43255 1.44718
3103.38411 1.44683
3101.33567 1.44632
3099.28724 1.44616
3097.23880 1.44639
3095.19036 1.44700
3093.14192 1.44752
3091.09348 1.44744
3089.04504 1.44718
3086.99661 1.44734
3084.94817 1.44745
3082.89973 1.44720
3080.85129 1.44731
3078.80285 1.44791
3076.75441 1.44830
3074.70598 1.44850
3072.65754 1.44876
3070.60910 1.44855
3068.56066 1.44740
3066.51222 1.44639
3064.46378 1.44643
3062.41535 1.44682
3060.36691 1.44711
3058.31847 1.44710
3056.27003 1.44704
3054.22159 1.44727
3052.17315 1.44736
3050.12471 1.44742
3048.07628 1.44756
3046.02784 1.44749
3043.97940 1.44713
3041.93096 1.44668
3039.88252 1.44635
3037.83408 1.44625
3035.78565 1.44644
3033.73721 1.44673
3031.68877 1.44692
3029.64033 1.44697
3027.59189 1.44692
3025.54345 1.44715
3023.49502 1.44777
3021.44658 1.44831
3019.39814 1.44837
3017.34970 1.44803
3015.30126 1.44782
3013.25282 1.44806
3011.20439 1.44804
3009.15595 1.44802
3007.10751 1.44876
3005.05907 1.44945
3003.01063 1.44924
3000.96219 1.44874
2998.91376 1.44894
2996.86532 1.44969
2994.81688 1.45015
2992.76844 1.45036
2990.72000 1.45066
2988.67156 1.45105
2986.62313 1.45130
2984.57469 1.45101
2982.52625 1.45085
2980.47781 1.45160
2978.42937 1.45210
2976.38093 1.45179
2974.33250 1.45173
2972.28406 1.45217
2970.23562 1.45242
2968.18718 1.45201
2966.13874 1.45160
2964.09030 1.45183
2962.04187 1.45215
2959.99343 1.45239
2957.94499 1.45289
2955.89655 1.45332
2953.84811 1.45338
2951.79967 1.45343
2949.75124 1.45345
2947.70280 1.45319
2945.65436 1.45260
2943.60592 1.45202
2941.55748 1.45247
2939.50904 1.45382
2937.46061 1.45476
2935.41217 1.45440
2933.36373 1.45334
2931.31529 1.45322
2929.26685 1.45413
2927.21841 1.45443
2925.16998 1.45366
2923.12154 1.45273
2921.07310 1.45233
2919.02466 1.45274
2916.97622 1.45370
2914.92778 1.45444
2912.87934 1.45438
2910.83091 1.45455
2908.78247 1.45558
2906.73403 1.45623
2904.68559 1.45610
2902.63715 1.45608
2900.58871 1.45603
2898.54028 1.45536
2896.49184 1.45502
2894.44340 1.45573
2892.39496 1.45682
2890.34652 1.45738
2888.29808 1.45694
2886.24965 1.45646
2884.20121 1.45725
2882.15277 1.45871
2880.10433 1.45944
2878.05589 1.45944
2876.00745 1.45895
2873.95902 1.45837
2871.91058 1.45854
2869.86214 1.45882
2867.81370 1.45828
2865.76526 1.45776
2863.71682 1.45792
2861.66839 1.45833
2859.61995 1.45858
2857.57151 1.45842
2855.52307 1.45824
2853.47463 1.45841
2851.42619 1.45854
2849.37776 1.45857
2847.32932 1.45905
2845.28088 1.45977
2843.23244 1.46033
2841.18400 1.46060
2839.13556 1.46011
2837.08713 1.45938
2835.03869 1.45950
2832.99025 1.46003
2830.94181 1.46050
2828.89337 1.46088
2826.84493 1.46051
2824.79650 1.45975
2822.74806 1.45981
2820.69962 1.46035
2818.65118 1.46071
2816.60274 1.46120
2814.55430 1.46169
2812.50587 1.46174
2810.45743 1.46160
2808.40899 1.46167
2806.36055 1.46208
2804.31211 1.46224
2802.26367 1.46160
2800.21524 1.46089
2798.16680 1.46084
2796.11836 1.46117
2794.06992 1.46147
2792.02148 1.46145
2789.97304 1.46113
2787.92461 1.46098
2785.87617 1.46110
2783.82773 1.46136
2781.77929 1.46160
2779.73085 1.46157
2777.68241 1.46134
2775.63397 1.46110
2773.58554 1.46105
2771.53710 1.46115
2769.48866 1.46110
2767.44022 1.46085
2765.39178 1.46049
2763.34334 1.46052
2761.29491 1.46134
2759.24647 1.46203
2757.19803 1.46211
2755.14959 1.46203
2753.10115 1.46157
2751.05271 1.46086
2749.00428 1.46042
2746.95584 1.46015
2744.90740 1.46028
2742.85896 1.46093
2740.81052 1.46119
2738.76208 1.46100
2736.71365 1.46117
2734.66521 1.46139
2732.61677 1.46140
2730.56833 1.46128
2728.51989 1.46066
2726.47145 1.46027
2724.42302 1.46084
2722.37458 1.46108
2720.32614 1.46033
2718.27770 1.45971
2716.22926 1.45964
2714.18082 1.45991
2712.13239 1.46065
2710.08395 1.46153
2708.03551 1.46192
2705.98707 1.46181
2703.93863 1.46142
2701.89019 1.46085
2699.84176 1.46045
2697.79332 1.46084
2695.74488 1.46149
2693.69644 1.46144
2691.64800 1.46115
2689.59956 1.46137
2687.55113 1.46181
2685.50269 1.46209
2683.45425 1.46253
2681.40581 1.46299
2679.35737 1.46269
2677.30893 1.46189
2675.26050 1.46156
2673.21206 1.46174
2671.16362 1.46215
2669.11518 1.46249
2667.06674 1.46224
2665.01830 1.46188
2662.96987 1.46192
2660.92143 1.46213
2658.87299 1.46244
2656.82455 1.46254
2654.77611 1.46232
2652.72767 1.46241
2650.67924 1.46282
2648.63080 1.46268
2646.58236 1.46214
2644.53392 1.46220
2642.48548 1.46278
2640.43704 1.46316
2638.38860 1.46314
2636.34017 1.46304
2634.29173 1.46270
2632.24329 1.46224
2630.19485 1.46235
2628.14641 1.46266
2626.09797 1.46281
2624.04954 1.46309
2622.00110 1.46321
2619.95266 1.46310
2617.90422 1.46318
2615.85578 1.46349
2613.80734 1.46361
2611.75891 1.46339
2609.71047 1.46336
2607.66203 1.46351
2605.61359 1.46330
2603.56515 1.46288
2601.51671 1.46260
2599.46828 1.46282
2597.41984 1.46359
2595.37140 1.46417
2593.32296 1.46419
2591.27452 1.46402
2589.22608 1.46390
2587.17765 1.46399
2585.12921 1.46404
2583.08077 1.46376
2581.03233 1.46361
2578.98389 1.46408
2576.93545 1.46457
2574.88702 1.46441
2572.83858 1.46428
2570.79014 1.46471
2568.74170 1.46534
2566.69326 1.46598
2564.64482 1.46646
2562.59639 1.46660
2560.54795 1.46662
2558.49951 1.46664
2556.45107 1.46682
2554.40263 1.46741
2552.35419 1.46785
2550.30576 1.46756
2548.25732 1.46721
2546.20888 1.46738
2544.16044 1.46754
2542.11200 1.46749
2540.06356 1.46776
2538.01513 1.46825
2535.96669 1.46812
2533.91825 1.46764
2531.86981 1.46769
2529.82137 1.46803
2527.77293 1.46790
2525.72450 1.46767
2523.67606 1.46778
2521.62762 1.46764
2519.57918 1.46737
2517.53074 1.46751
2515.48230 1.46776
2513.43387 1.46818
2511.38543 1.46897
2509.33699 1.46960
2507.28855 1.46972
2505.24011 1.46941
2503.19167 1.46909
2501.14324 1.46938
2499.09480 1.47013
2497.04636 1.47037
2494.99792 1.46991
2492.94948 1.46961
2490.90104 1.46973
2488.85260 1.46969
2486.80417 1.46929
2484.75573 1.46921
2482.70729 1.46951
2480.65885 1.46978
2478.61041 1.46990
2476.56197 1.46980
2474.51354 1.46974
2472.46510 1.47009
2470.41666 1.47061
2468.36822 1.47103
2466.31978 1.47131
2464.27134 1.47124
2462.22291 1.47123
2460.17447 1.47139
2458.12603 1.47137
2456.07759 1.47115
2454.02915 1.47075
2451.98071 1.47088
2449.93228 1.47164
2447.88384 1.47200
2445.83540 1.47167
2443.78696 1.47144
2441.73852 1.47214
2439.69008 1.47323
2437.64165 1.47372
2435.59321 1.47360
2433.54477 1.47338
2431.49633 1.47345
2429.44789 1.47387
2427.39945 1.47455
2425.35102 1.47514
2423.30258 1.47521
2421.25414 1.47463
2419.20570 1.47388
2417.15726 1.47327
2415.10882 1.47244
2413.06039 1.47116
2411.01195 1.46939
2408.96351 1.46759
2406.91507 1.46663
2404.86663 1.46647
2402.81819 1.46642
2400.76976 1.46649
2398.72132 1.46686
2396.67288 1.46685
2394.62444 1.46636
2392.57600 1.46608
2390.52756 1.46614
2388.47913 1.46654
2386.43069 1.46730
2384.38225 1.46777
2382.33381 1.46780
2380.28537 1.46813
2378.23693 1.46910
2376.18850 1.47078
2374.14006 1.47268
2372.09162 1.47364
2370.04318 1.47408
2367.99474 1.47573
2365.94630 1.47903
2363.89787 1.48143
2361.84943 1.47912
2359.80099 1.47545
2357.75255 1.47434
2355.70411 1.47325
2353.65567 1.47367
2351.60723 1.47536
2349.55880 1.47536
2347.51036 1.47404
2345.46192 1.47275
2343.41348 1.47287
2341.36504 1.47438
2339.31660 1.47518
2337.26817 1.47502
2335.21973 1.47554
2333.17129 1.47765
2331.12285 1.47971
2329.07441 1.47896
2327.02597 1.47664
2324.97754 1.47519
2322.92910 1.47433
2320.88066 1.47373
2318.83222 1.47403
2316.78378 1.47452
2314.73534 1.47409
2312.68691 1.47343
2310.63847 1.47344
2308.59003 1.47363
2306.54159 1.47327
2304.49315 1.47248
2302.44471 1.47202
2300.39628 1.47198
2298.34784 1.47166
2296.29940 1.47096
2294.25096 1.47044
2292.20252 1.47042
2290.15408 1.47091
2288.10565 1.47174
2286.05721 1.47209
2284.00877 1.47164
2281.96033 1.47122
2279.91189 1.47101
2277.86345 1.47082
2275.81502 1.47093
2273.76658 1.47119
2271.71814 1.47100
2269.66970 1.47060
2267.62126 1.47063
2265.57282 1.47084
2263.52439 1.47103
2261.47595 1.47149
2259.42751 1.47200
2257.37907 1.47229
2255.33063 1.47241
2253.28219 1.47247
2251.23376 1.47264
2249.18532 1.47294
2247.13688 1.47280
2245.08844 1.47189
2243.04000 1.47154
2240.99156 1.47220
2238.94313 1.47247
2236.89469 1.47239
2234.84625 1.47296
2232.79781 1.47359
2230.74937 1.47351
2228.70093 1.47328
2226.65250 1.47353
2224.60406 1.47400
2222.55562 1.47441
2220.50718 1.47456
2218.45874 1.47427
2216.41030 1.47385
2214.36186 1.47367
2212.31343 1.47397
2210.26499 1.47455
2208.21655 1.47440
2206.16811 1.47344
2204.11967 1.47288
2202.07123 1.47295
2200.02280 1.47320
2197.97436 1.47366
2195.92592 1.47449
2193.87748 1.47532
2191.82904 1.47550
2189.78060 1.47520
2187.73217 1.47503
2185.68373 1.47522
2183.63529 1.47563
2181.58685 1.47580
2179.53841 1.47578
2177.48997 1.47582
2175.44154 1.47586
2173.39310 1.47618
2171.34466 1.47673
2169.29622 1.47706
2167.24778 1.47702
2165.19934 1.47710
2163.15091 1.47797
2161.10247 1.47913
2159.05403 1.47962
2157.00559 1.47976
2154.95715 1.48030
2152.90871 1.48081
2150.86028 1.48089
2148.81184 1.48092
2146.76340 1.48099
2144.71496 1.48088
2142.66652 1.48075
2140.61808 1.48101
2138.56965 1.48129
2136.52121 1.48097
2134.47277 1.48027
2132.42433 1.47987
2130.37589 1.48014
2128.32745 1.48065
2126.27902 1.48086
2124.23058 1.48084
2122.18214 1.48073
2120.13370 1.48075
2118.08526 1.48100
2116.03682 1.48088
2113.98839 1.48045
2111.93995 1.48084
2109.89151 1.48193
2107.84307 1.48285
2105.79463 1.48339
2103.74619 1.48375
2101.69776 1.48440
2099.64932 1.48525
2097.60088 1.48594
2095.55244 1.48645
2093.50400 1.48645
2091.45556 1.48619
2089.40713 1.48620
2087.35869 1.48630
2085.31025 1.48639
2083.26181 1.48666
2081.21337 1.48718
2079.16493 1.48760
2077.11649 1.48765
2075.06806 1.48775
2073.01962 1.48820
2070.97118 1.48858
2068.92274 1.48864
2066.87430 1.48895
2064.82586 1.48989
2062.77743 1.49094
2060.72899 1.49152
2058.68055 1.49189
2056.63211 1.49235
2054.58367 1.49229
2052.53523 1.49184
2050.48680 1.49203
2048.43836 1.49258
2046.38992 1.49293
2044.34148 1.49309
2042.29304 1.49304
2040.24460 1.49287
2038.19617 1.49268
2036.14773 1.49261
2034.09929 1.49272
2032.05085 1.49259
2030.00241 1.49218
2027.95397 1.49172
2025.90554 1.49128
2023.85710 1.49097
2021.80866 1.49107
2019.76022 1.49143
2017.71178 1.49162
2015.66334 1.49181
2013.61491 1.49217
2011.56647 1.49224
2009.51803 1.49186
2007.46959 1.49143
2005.42115 1.49129
2003.37271 1.49122
2001.32428 1.49104
1999.27584 1.49120
1997.22740 1.49154
1995.17896 1.49156
1993.13052 1.49148
1991.08208 1.49164
1989.03365 1.49177
1986.98521 1.49159
1984.93677 1.49120
1982.88833 1.49147
1980.83989 1.49252
1978.79145 1.49287
1976.74302 1.49232
1974.69458 1.49205
1972.64614 1.49254
1970.59770 1.49314
1968.54926 1.49315
1966.50082 1.49322
1964.45239 1.49372
1962.40395 1.49392
1960.35551 1.49385
1958.30707 1.49400
1956.25863 1.49428
1954.21019 1.49436
1952.16176 1.49424
1950.11332 1.49428
1948.06488 1.49454
1946.01644 1.49456
1943.96800 1.49427
1941.91956 1.49508
1939.87112 1.49701
1937.82269 1.49821
1935.77425 1.49841
1933.72581 1.49847
1931.67737 1.49899
1929.62893 1.49978
1927.58049 1.50036
1925.53206 1.50055
1923.48362 1.50064
1921.43518 1.50107
1919.38674 1.50137
1917.33830 1.50198
1915.28986 1.50350
1913.24143 1.50461
1911.19299 1.50470
1909.14455 1.50492
1907.09611 1.50610
1905.04767 1.50722
1902.99923 1.50766
1900.95080 1.50831
1898.90236 1.50922
1896.85392 1.50977
1894.80548 1.51035
1892.75704 1.51081
1890.70860 1.51045
1888.66017 1.51043
1886.61173 1.51165
1884.56329 1.51301
1882.51485 1.51367
1880.46641 1.51387
1878.41797 1.51433
1876.36954 1.51471
1874.32110 1.51469
1872.27266 1.51443
1870.22422 1.51365
1868.17578 1.51400
1866.12734 1.51652
1864.07891 1.51855
1862.03047 1.51918
1859.98203 1.51916
1857.93359 1.51949
1855.88515 1.52043
1853.83671 1.52143
1851.78828 1.52206
1849.73984 1.52240
1847.69140 1.52233
1845.64296 1.52181
1843.59452 1.52258
1841.54608 1.52489
1839.49765 1.52648
1837.44921 1.52713
1835.40077 1.52771
1833.35233 1.52791
1831.30389 1.52692
1829.25545 1.52660
1827.20702 1.52834
1825.15858 1.53011
1823.11014 1.53143
1821.06170 1.53235
1819.01326 1.53285
1816.96482 1.53359
1814.91639 1.53465
1812.86795 1.53536
1810.81951 1.53573
1808.77107 1.53649
1806.72263 1.53759
1804.67419 1.53820
1802.62575 1.53824
1800.57732 1.53885
1798.52888 1.54025
1796.48044 1.54137
1794.43200 1.54126
1792.38356 1.54065
1790.33512 1.54282
1788.28669 1.54598
1786.23825 1.54724
1784.18981 1.54737
1782.14137 1.54798
1780.09293 1.54897
1778.04449 1.54971
1775.99606 1.54989
1773.94762 1.54918
1771.89918 1.54925
1769.85074 1.55178
1767.80230 1.55456
1765.75386 1.55681
1763.70543 1.55793
1761.65699 1.55852
1759.60855 1.56037
1757.56011 1.56328
1755.51167 1.56651
1753.46323 1.56869
1751.41480 1.56941
1749.36636 1.57021
1747.31792 1.57183
1745.26948 1.57231
1743.22104 1.57065
1741.17260 1.56724
1739.12417 1.56403
1737.07573 1.56253
1735.02729 1.56167
1732.97885 1.56210
1730.93041 1.56119
1728.88197 1.55656
1726.83354 1.55114
1724.78510 1.54844
1722.73666 1.55001
1720.68822 1.55268
1718.63978 1.55389
1716.59134 1.55665
1714.54291 1.56174
1712.49447 1.56561
1710.44603 1.56813
1708.39759 1.56970
1706.34915 1.57071
1704.30071 1.57216
1702.25228 1.57293
1700.20384 1.57318
1698.15540 1.57483
1696.10696 1.57673
1694.05852 1.57988
1692.01008 1.58272
1689.96165 1.58430
1687.91321 1.58530
1685.86477 1.58572
1683.81633 1.58758
1681.76789 1.59202
1679.71945 1.59514
1677.67102 1.59640
1675.62258 1.59719
1673.57414 1.59887
1671.52570 1.59998
1669.47726 1.60070
1667.42882 1.60300
1665.38038 1.60478
1663.33195 1.60580
1661.28351 1.60759
1659.23507 1.60960
1657.18663 1.61078
1655.13819 1.60982
1653.08975 1.60841
1651.04132 1.61256
1648.99288 1.61540
1646.94444 1.61711
1644.89600 1.62158
1642.84756 1.62532
1640.79912 1.62705
1638.75069 1.62752
1636.70225 1.62807
1634.65381 1.63145
1632.60537 1.63466
1630.55693 1.63601
1628.50849 1.63738
1626.46006 1.64010
1624.41162 1.64278
1622.36318 1.64578
1620.31474 1.64858
1618.26630 1.64981
1616.21786 1.65104
1614.16943 1.65434
1612.12099 1.65769
1610.07255 1.66011
1608.02411 1.66291
1605.97567 1.66613
1603.92723 1.66892
1601.87880 1.67163
1599.83036 1.67450
1597.78192 1.67703
1595.73348 1.68035
1593.68504 1.68418
1591.63660 1.68678
1589.58817 1.68879
1587.53973 1.69183
1585.49129 1.69589
1583.44285 1.69988
1581.39441 1.70323
1579.34597 1.70532
1577.29754 1.70737
1575.24910 1.71137
1573.20066 1.71527
1571.15222 1.71780
1569.10378 1.72143
1567.05534 1.72570
1565.00691 1.72967
1562.95847 1.73302
1560.91003 1.73381
1558.86159 1.73579
1556.81315 1.74195
1554.76471 1.74645
1552.71628 1.75010
1550.66784 1.75472
1548.61940 1.75997
1546.57096 1.76395
1544.52252 1.76538
1542.47408 1.76649
1540.42565 1.77279
1538.37721 1.77970
1536.32877 1.78219
1534.28033 1.78361
1532.23189 1.78669
1530.18345 1.78816
1528.13501 1.78810
1526.08658 1.78741
1524.03814 1.78741
1521.98970 1.78466
1519.94126 1.78037
1517.89282 1.77760
1515.84438 1.77313
1513.79595 1.76719
1511.74751 1.75812
1509.69907 1.74508
1507.65063 1.71219
1505.60219 1.66178
1503.55375 1.63089
1501.50532 1.60009
1499.45688 1.55638
1497.40844 1.49651
1495.36000 1.43732
1493.31156 1.39479
1491.26312 1.35014
1489.21469 1.28949
1487.16625 1.23681
1485.11781 1.19974
1483.06937 1.16743
1481.02093 1.13575
1478.97249 1.10843
1476.92406 1.08477
1474.87562 1.06090
1472.82718 1.03463
1470.77874 1.01314
1468.73030 0.99964
1466.68186 0.98574
1464.63343 0.96880
1462.58499 0.95533
1460.53655 0.94583
1458.48811 0.93327
1456.43967 0.91700
1454.39123 0.90824
1452.34280 0.90229
1450.29436 0.89540
1448.24592 0.88791
1446.19748 0.88197
1444.14904 0.87850
1442.10060 0.87657
1440.05217 0.87562
1438.00373 0.87591
1435.95529 0.87943
1433.90685 0.88523
1431.85841 0.89076
1429.80997 0.89718
1427.76154 0.90351
1425.71310 0.90767
1423.66466 0.91020
1421.61622 0.91075
1419.56778 0.90755
1417.51934 0.90114
1415.47091 0.89418
1413.42247 0.88476
1411.37403 0.87199
1409.32559 0.85760
1407.27715 0.84327
1405.22871 0.82843
1403.18028 0.81547
1401.13184 0.80549
1399.08340 0.79629
1397.03496 0.78901
1394.98652 0.78447
1392.93808 0.78254
1390.88965 0.78236
1388.84121 0.78339
1386.79277 0.78726
1384.74433 0.79435
1382.69589 0.80341
1380.64745 0.81541
1378.59901 0.83075
1376.55058 0.84872
1374.50214 0.87060
1372.45370 0.89379
1370.40526 0.91364
1368.35682 0.93255
1366.30838 0.95024
1364.25995 0.96592
1362.21151 0.98259
1360.16307 0.99856
1358.11463 1.01184
1356.06619 1.02407
1354.01775 1.03604
1351.96932 1.04732
1349.92088 1.05802
1347.87244 1.06824
1345.82400 1.07774
1343.77556 1.08593
1341.72712 1.09277
1339.67869 1.09972
1337.63025 1.10742
1335.58181 1.11437
1333.53337 1.12046
1331.48493 1.12653
1329.43649 1.13270
1327.38806 1.13865
1325.33962 1.14407
1323.29118 1.14903
1321.24274 1.15346
1319.19430 1.15761
1317.14586 1.16163
1315.09743 1.16540
1313.04899 1.16898
1311.00055 1.17235
1308.95211 1.17530
1306.90367 1.17790
1304.85523 1.18028
1302.80680 1.18267
1300.75836 1.18528
1298.70992 1.18806
1296.66148 1.19091
1294.61304 1.19374
1292.56460 1.19663
1290.51617 1.19959
1288.46773 1.20279
1286.41929 1.20625
1284.37085 1.20966
1282.32241 1.21296
1280.27397 1.21626
1278.22554 1.21948
1276.17710 1.22242
1274.12866 1.22531
1272.08022 1.22820
1270.03178 1.23099
1267.98334 1.23375
1265.93491 1.23669
1263.88647 1.23952
1261.83803 1.24233
1259.78959 1.24547
1257.74115 1.24834
1255.69271 1.25058
1253.64428 1.25291
1251.59584 1.25562
1249.54740 1.25832
1247.49896 1.26093
1245.45052 1.26348
1243.40208 1.26582
1241.35364 1.26783
1239.30521 1.26973
1237.25677 1.27171
1235.20833 1.27367
1233.15989 1.27560
1231.11145 1.27763
1229.06301 1.27974
1227.01458 1.28162
1224.96614 1.28326
1222.91770 1.28492
1220.86926 1.28662
1218.82082 1.28826
1216.77238 1.28987
1214.72395 1.29154
1212.67551 1.29336
1210.62707 1.29507
1208.57863 1.29636
1206.53019 1.29734
1204.48175 1.29853
1202.43332 1.30019
1200.38488 1.30202
1198.33644 1.30375
1196.28800 1.30516
1194.23956 1.30602
1192.19112 1.30680
1190.14269 1.30834
1188.09425 1.31017
1186.04581 1.31138
1183.99737 1.31248
1181.94893 1.31395
1179.90049 1.31554
1177.85206 1.31693
1175.80362 1.31798
1173.75518 1.31883
1171.70674 1.31981
1169.65830 1.32078
1167.60986 1.32176
1165.56143 1.32303
1163.51299 1.32444
1161.46455 1.32560
1159.41611 1.32647
1157.36767 1.32726
1155.31923 1.32812
1153.27080 1.32895
1151.22236 1.32969
1149.17392 1.33062
1147.12548 1.33168
1145.07704 1.33277
1143.02860 1.33382
1140.98017 1.33473
1138.93173 1.33559
1136.88329 1.33652
1134.83485 1.33725
1132.78641 1.33779
1130.73797 1.33867
1128.68954 1.33989
1126.64110 1.34119
1124.59266 1.34229
1122.54422 1.34309
1120.49578 1.34387
1118.44734 1.34500
1116.39891 1.34628
1114.35047 1.34745
1112.30203 1.34828
1110.25359 1.34839
1108.20515 1.34784
1106.15671 1.34706
1104.10827 1.34654
1102.05984 1.34628
1100.01140 1.34616
1097.96296 1.34636
1095.91452 1.34720
1093.86608 1.34832
1091.81764 1.34942
1089.76921 1.35019
1087.72077 1.35069
1085.67233 1.35163
1083.62389 1.35310
1081.57545 1.35481
1079.52701 1.35650
1077.47858 1.35794
1075.43014 1.35906
1073.38170 1.36064
1071.33326 1.36273
1069.28482 1.36559
1067.23638 1.36922
1065.18795 1.37369
1063.13951 1.37971
1061.09107 1.38861
1059.04263 1.40247
1056.99419 1.41516
1054.94575 1.37577
1052.89732 1.27571
1050.84888 1.21746
1048.80044 1.23848
1046.75200 1.28247
1044.70356 1.30625
1042.65512 1.31715
1040.60669 1.32365
1038.55825 1.32828
1036.50981 1.33186
1034.46137 1.33489
1032.41293 1.33747
1030.36449 1.33987
1028.31606 1.34243
1026.26762 1.34530
1024.21918 1.34727
1022.17074 1.34827
1020.12230 1.34950
1018.07386 1.35141
1016.02543 1.35309
1013.97699 1.35428
1011.92855 1.35584
1009.88011 1.35795
1007.83167 1.36011
1005.78323 1.36189
1003.73480 1.36329
1001.68636 1.36429
999.63792 1.36540
997.58948 1.36647
995.54104 1.36710
993.49260 1.36754
991.44417 1.36817
989.39573 1.36867
987.34729 1.36907
985.29885 1.37012
983.25041 1.37152
981.20197 1.37244
979.15354 1.37295
977.10510 1.37444
975.05666 1.37687
973.00822 1.37875
970.95978 1.37967
968.91134 1.38005
966.86290 1.38048
964.81447 1.38150
962.76603 1.38266
960.71759 1.38349
958.66915 1.38424
956.62071 1.38496
954.57227 1.38567
952.52384 1.38637
950.47540 1.38739
948.42696 1.38831
946.37852 1.38854
944.33008 1.38875
942.28164 1.38959
940.23321 1.39087
938.18477 1.39251
936.13633 1.39430
934.08789 1.39535
932.03945 1.39589
929.99101 1.39695
927.94258 1.39865
925.89414 1.40018
923.84570 1.40123
921.79726 1.40204
919.74882 1.40287
917.70038 1.40409
915.65195 1.40585
913.60351 1.40755
911.55507 1.40875
909.50663 1.40996
907.45819 1.41163
905.40975 1.41418
903.36132 1.41716
901.31288 1.41976
899.26444 1.42226
897.21600 1.42494
895.16756 1.42725
893.11912 1.42968
891.07069 1.43312
889.02225 1.43695
886.97381 1.43959
884.92537 1.44108
882.87693 1.44313
880.82849 1.44574
878.78006 1.44847
876.73162 1.45214
874.68318 1.45653
872.63474 1.46057
870.58630 1.46541
868.53786 1.47236
866.48943 1.48032
864.44099 1.48886
862.39255 1.49805
860.34411 1.50800
858.29567 1.52033
856.24723 1.53589
854.19880 1.55354
852.15036 1.56994
850.10192 1.56769
848.05348 1.49657
846.00504 1.32584
843.95660 1.13103
841.90817 0.99253
839.85973 0.93239
837.81129 0.94662
835.76285 1.01831
833.71441 1.10987
831.66597 1.18315
829.61753 1.23191
827.56910 1.26442
825.52066 1.28184
823.47222 1.28773
821.42378 1.29458
819.37534 1.30710
817.32690 1.31834
815.27847 1.32557
813.23003 1.33218
811.18159 1.33934
809.13315 1.34531
807.08471 1.34944
805.03627 1.35288
802.98784 1.35654
800.93940 1.36024
798.89096 1.36368
796.84252 1.36700
794.79408 1.37023
792.74564 1.37334
790.69721 1.37647
788.64877 1.37864
786.60033 1.37994
784.55189 1.38201
782.50345 1.38421
780.45501 1.38532
778.40658 1.38652
776.35814 1.38877
774.30970 1.39154
772.26126 1.39447
770.21282 1.39727
768.16438 1.39934
766.11595 1.40069
764.06751 1.40167
762.01907 1.40270
759.97063 1.40466
757.92219 1.40609
755.87375 1.40557
753.82532 1.40638
751.77688 1.40987
749.72844 1.41274
747.68000 1.41354
745.63156 1.41387
743.58312 1.41563
741.53469 1.41913
739.48625 1.42275
737.43781 1.42494
735.38937 1.42544
733.34093 1.42552
731.29249 1.42675
729.24406 1.42893
727.19562 1.43143
725.14718 1.43430
723.09874 1.43656
721.05030 1.43772
719.00186 1.43883
716.95343 1.44132
714.90499 1.44569
712.85655 1.44977
710.80811 1.45306
708.75967 1.45653
706.71123 1.46057
704.66280 1.46759
702.61436 1.47732
700.56592 1.48481
698.51748 1.48980
696.46904 1.49889
694.42060 1.51366
692.37216 1.53015
690.32373 1.54969
688.27529 1.58171
686.22685 1.62824
684.17841 1.63211
682.12997 1.43827
680.08153 1.15061
678.03310 0.98148
675.98466 0.97012
673.93622 1.06115
671.88778 1.15576
669.83934 1.21147
667.79090 1.25985
665.74247 1.29528
663.69403 1.31250
661.64559 1.32462
659.59715 1.33215
657.54871 1.33902
655.50027 1.34998
653.45184 1.36071
651.40340 1.36518
649.35496 1.36449
647.30652 1.36478
645.25808 1.36976
643.20964 1.37380
641.16121 1.37348
639.11277 1.37486
637.06433 1.38086
635.01589 1.38567
632.96745 1.38356
630.91901 1.38150
628.87058 1.38673
626.82214 1.39345
624.77370 1.39200
622.72526 1.38715
620.67682 1.38850
618.62838 1.38698
616.57995 1.38052
614.53151 1.38510
612.48307 1.39685
610.43463 1.39986
608.38619 1.39420
606.33775 1.38744
604.28932 1.38254
602.24088 1.37952
600.19244 1.38052
598.14400 1.38545
