3996.50324 2.42994
3994.45480 2.43285
3992.40636 2.42139
3990.35792 2.40165
3988.30948 2.39952
3986.26104 2.41222
3984.21261 2.41797
3982.16417 2.41741
3980.11573 2.42209
3978.06729 2.41643
3976.01885 2.39782
3973.97041 2.39404
3971.92198 2.40499
3969.87354 2.40946
3967.82510 2.40509
3965.77666 2.39529
3963.72822 2.38606
3961.67978 2.38828
3959.63135 2.39296
3957.58291 2.38984
3955.53447 2.38494
3953.48603 2.38182
3951.43759 2.38752
3949.38915 2.39999
3947.34072 2.40079
3945.29228 2.39368
3943.24384 2.40182
3941.19540 2.42105
3939.14696 2.42479
3937.09852 2.41228
3935.05009 2.40233
3933.00165 2.40330
3930.95321 2.39887
3928.90477 2.38647
3926.85633 2.38099
3924.80789 2.39069
3922.75946 2.40762
3920.71102 2.41261
3918.66258 2.41746
3916.61414 2.43559
3914.56570 2.44871
3912.51726 2.44813
3910.46883 2.44489
3908.42039 2.43707
3906.37195 2.41623
3904.32351 2.40385
3902.27507 2.42708
3900.22663 2.46089
3898.17820 2.47313
3896.12976 2.46302
3894.08132 2.45202
3892.03288 2.45903
3889.98444 2.47198
3887.93600 2.47268
3885.88756 2.46857
3883.83913 2.46321
3881.79069 2.46212
3879.74225 2.47344
3877.69381 2.47562
3875.64537 2.46410
3873.59693 2.46125
3871.54850 2.47103
3869.50006 2.48236
3867.45162 2.48101
3865.40318 2.47715
3863.35474 2.48823
3861.30630 2.49411
3859.25787 2.48821
3857.20943 2.47960
3855.16099 2.46011
3853.11255 2.44892
3851.06411 2.46139
3849.01567 2.45703
3846.96724 2.44780
3844.91880 2.45170
3842.87036 2.46939
3840.82192 2.48409
3838.77348 2.48349
3836.72504 2.47154
3834.67661 2.46225
3832.62817 2.46863
3830.57973 2.48842
3828.53129 2.50241
3826.48285 2.50360
3824.43441 2.49686
3822.38598 2.48220
3820.33754 2.47996
3818.28910 2.50105
3816.24066 2.52264
3814.19222 2.53300
3812.14378 2.52662
3810.09535 2.51219
3808.04691 2.50051
3805.99847 2.49649
3803.95003 2.49267
3801.90159 2.48580
3799.85315 2.48788
3797.80472 2.49105
3795.75628 2.48919
3793.70784 2.49663
3791.65940 2.51498
3789.61096 2.53170
3787.56252 2.53463
3785.51409 2.52774
3783.46565 2.53201
3781.41721 2.54660
3779.36877 2.54979
3777.32033 2.53576
3775.27189 2.52287
3773.22346 2.52717
3771.17502 2.54602
3769.12658 2.55663
3767.07814 2.55251
3765.02970 2.54675
3762.98126 2.53896
3760.93283 2.52126
3758.88439 2.49988
3756.83595 2.49596
3754.78751 2.49527
3752.73907 2.48015
3750.69063 2.48021
3748.64219 2.51170
3746.59376 2.52822
3744.54532 2.52199
3742.49688 2.50481
3740.44844 2.48285
3738.40000 2.46375
3736.35156 2.46635
3734.30313 2.49060
3732.25469 2.49836
3730.20625 2.48048
3728.15781 2.45564
3726.10937 2.44457
3724.06093 2.45324
3722.01250 2.47039
3719.96406 2.48351
3717.91562 2.47752
3715.86718 2.45938
3713.81874 2.44868
3711.77030 2.45618
3709.72187 2.47436
3707.67343 2.48871
3705.62499 2.49345
3703.57655 2.48736
3701.52811 2.49327
3699.47967 2.51741
3697.43124 2.53218
3695.38280 2.52997
3693.33436 2.52220
3691.28592 2.53382
3689.23748 2.56725
3687.18904 2.55977
3685.14061 2.53608
3683.09217 2.53093
3681.04373 2.53677
3678.99529 2.54113
3676.94685 2.53798
3674.89841 2.54370
3672.84998 2.55205
3670.80154 2.54906
3668.75310 2.55199
3666.70466 2.56072
3664.65622 2.56293
3662.60778 2.55822
3660.55935 2.55718
3658.51091 2.56131
3656.46247 2.55979
3654.41403 2.55622
3652.36559 2.56236
3650.31715 2.58159
3648.26872 2.59030
3646.22028 2.56520
3644.17184 2.54013
3642.12340 2.52398
3640.07496 2.51254
3638.02652 2.50334
3635.97809 2.49962
3633.92965 2.50853
3631.88121 2.52273
3629.83277 2.53633
3627.78433 2.54426
3625.73589 2.53412
3623.68746 2.53041
3621.63902 2.54730
3619.59058 2.56673
3617.54214 2.55503
3615.49370 2.54067
3613.44526 2.54648
3611.39682 2.54274
3609.34839 2.51193
3607.29995 2.49794
3605.25151 2.51522
3603.20307 2.52387
3601.15463 2.51964
3599.10619 2.51929
3597.05776 2.52505
3595.00932 2.53955
3592.96088 2.54578
3590.91244 2.53250
3588.86400 2.52841
3586.81556 2.54883
3584.76713 2.56050
3582.71869 2.55822
3580.67025 2.55416
3578.62181 2.54104
3576.57337 2.52010
3574.52493 2.50985
3572.47650 2.51203
3570.42806 2.51111
3568.37962 2.50758
3566.33118 2.52481
3564.28274 2.55048
3562.23430 2.55975
3560.18587 2.55987
3558.13743 2.55423
3556.08899 2.54782
3554.04055 2.54374
3551.99211 2.53285
3549.94367 2.52006
3547.89524 2.52855
3545.84680 2.55745
3543.79836 2.56899
3541.74992 2.55804
3539.70148 2.54476
3537.65304 2.53482
3535.60461 2.53676
3533.55617 2.55441
3531.50773 2.57312
3529.45929 2.57697
3527.41085 2.56507
3525.36241 2.54649
3523.31398 2.53598
3521.26554 2.55119
3519.21710 2.58105
3517.16866 2.58677
3515.12022 2.56582
3513.07178 2.55528
3511.02335 2.56480
3508.97491 2.56745
3506.92647 2.55853
3504.87803 2.56660
3502.82959 2.58774
3500.78115 2.58906
3498.73272 2.57527
3496.68428 2.57121
3494.63584 2.57623
3492.58740 2.57268
3490.53896 2.56196
3488.49052 2.55821
3486.44209 2.56854
3484.39365 2.58579
3482.34521 2.58802
3480.29677 2.57868
3478.24833 2.58448
3476.19989 2.58745
3474.15146 2.57037
3472.10302 2.56280
3470.05458 2.57286
3468.00614 2.58828
3465.95770 2.60360
3463.90926 2.61018
3461.86082 2.60642
3459.81239 2.59832
3457.76395 2.58892
3455.71551 2.58040
3453.66707 2.58682
3451.61863 2.61503
3449.57019 2.62893
3447.52176 2.60274
3445.47332 2.57407
3443.42488 2.57186
3441.37644 2.57967
3439.32800 2.57444
3437.27956 2.57554
3435.23113 2.59925
3433.18269 2.61523
3431.13425 2.60524
3429.08581 2.59013
3427.03737 2.59016
3424.98893 2.60106
3422.94050 2.60907
3420.89206 2.61182
3418.84362 2.60590
3416.79518 2.59001
3414.74674 2.57383
3412.69830 2.56476
3410.64987 2.56374
3408.60143 2.57447
3406.55299 2.60090
3404.50455 2.62105
3402.45611 2.60947
3400.40767 2.59372
3398.35924 2.59728
3396.31080 2.60208
3394.26236 2.59509
3392.21392 2.58702
3390.16548 2.58443
3388.11704 2.58482
3386.06861 2.59039
3384.02017 2.58836
3381.97173 2.57354
3379.92329 2.57133
3377.87485 2.59028
3375.82641 2.60863
3373.77798 2.60635
3371.72954 2.60271
3369.68110 2.60905
3367.63266 2.59970
3365.58422 2.57711
3363.53578 2.56856
3361.48735 2.58027
3359.43891 2.58458
3357.39047 2.56745
3355.34203 2.56175
3353.29359 2.57452
3351.24515 2.58676
3349.19672 2.60092
3347.14828 2.61242
3345.09984 2.60951
3343.05140 2.59231
3341.00296 2.56730
3338.95452 2.56202
3336.90609 2.58036
3334.85765 2.59205
3332.80921 2.58741
3330.76077 2.57546
3328.71233 2.57235
3326.66389 2.57659
3324.61545 2.57544
3322.56702 2.57897
3320.51858 2.59049
3318.47014 2.60023
3316.42170 2.60296
3314.37326 2.59718
3312.32482 2.59036
3310.27639 2.59054
3308.22795 2.59002
3306.17951 2.57455
3304.13107 2.55320
3302.08263 2.55596
3300.03419 2.57521
3297.98576 2.56932
3295.93732 2.55189
3293.88888 2.55668
3291.84044 2.57009
3289.79200 2.57647
3287.74356 2.57911
3285.69513 2.57075
3283.64669 2.56297
3281.59825 2.57144
3279.54981 2.57587
3277.50137 2.56548
3275.45293 2.56461
3273.40450 2.58183
3271.35606 2.59357
3269.30762 2.59410
3267.25918 2.58902
3265.21074 2.57430
3263.16230 2.56563
3261.11387 2.56892
3259.06543 2.57578
3257.01699 2.58716
3254.96855 2.59395
3252.92011 2.59357
3250.87167 2.59230
3248.82324 2.58128
3246.77480 2.56806
3244.72636 2.57281
3242.67792 2.57921
3240.62948 2.56571
3238.58104 2.55602
3236.53261 2.56418
3234.48417 2.57577
3232.43573 2.58392
3230.38729 2.58728
3228.33885 2.58110
3226.29041 2.57095
3224.24198 2.57464
3222.19354 2.58892
3220.14510 2.59586
3218.09666 2.59752
3216.04822 2.60191
3213.99978 2.60835
3211.95135 2.60670
3209.90291 2.58736
3207.85447 2.56293
3205.80603 2.55441
3203.75759 2.56388
3201.70915 2.57772
3199.66072 2.58045
3197.61228 2.57392
3195.56384 2.57249
3193.51540 2.57473
3191.46696 2.57521
3189.41852 2.57962
3187.37008 2.59258
3185.32165 2.60093
3183.27321 2.59066
3181.22477 2.57890
3179.17633 2.58212
3177.12789 2.59288
3175.07945 2.59518
3173.03102 2.58947
3170.98258 2.59669
3168.93414 2.61030
3166.88570 2.60399
3164.83726 2.58568
3162.78882 2.57051
3160.74039 2.56065
3158.69195 2.55995
3156.64351 2.57344
3154.59507 2.58773
3152.54663 2.58685
3150.49819 2.58321
3148.44976 2.57948
3146.40132 2.57388
3144.35288 2.57900
3142.30444 2.59311
3140.25600 2.60846
3138.20756 2.61405
3136.15913 2.60019
3134.11069 2.58767
3132.06225 2.59046
3130.01381 2.59065
3127.96537 2.57969
3125.91693 2.57547
3123.86850 2.58671
3121.82006 2.59225
3119.77162 2.58528
3117.72318 2.58028
3115.67474 2.57872
3113.62630 2.58341
3111.57787 2.59212
3109.52943 2.59653
3107.48099 2.60455
3105.43255 2.61674
3103.38411 2.61848
3101.33567 2.61535
3099.28724 2.61821
3097.23880 2.62101
3095.19036 2.61849
3093.14192 2.61067
3091.09348 2.60732
3089.04504 2.61907
3086.99661 2.62767
3084.94817 2.61646
3082.89973 2.60879
3080.85129 2.61334
3078.80285 2.61662
3076.75441 2.61509
3074.70598 2.60705
3072.65754 2.59474
3070.60910 2.58867
3068.56066 2.59396
3066.51222 2.59685
3064.46378 2.59453
3062.41535 2.60246
3060.36691 2.61440
3058.31847 2.61284
3056.27003 2.59790
3054.22159 2.58483
3052.17315 2.58188
3050.12471 2.58769
3048.07628 2.59826
3046.02784 2.60281
3043.97940 2.60414
3041.93096 2.61360
3039.88252 2.61636
3037.83408 2.60491
3035.78565 2.59411
3033.73721 2.58922
3031.68877 2.59585
3029.64033 2.60703
3027.59189 2.60365
3025.54345 2.59701
3023.49502 2.60475
3021.44658 2.61450
3019.39814 2.61569
3017.34970 2.61641
3015.30126 2.61209
3013.25282 2.60176
3011.20439 2.60171
3009.15595 2.60665
3007.10751 2.60445
3005.05907 2.59958
3003.01063 2.59393
3000.96219 2.59286
2998.91376 2.59521
2996.86532 2.59788
2994.81688 2.60561
2992.76844 2.61358
2990.72000 2.61761
2988.67156 2.62070
2986.62313 2.62794
2984.57469 2.63694
2982.52625 2.63762
2980.47781 2.62430
2978.42937 2.60662
2976.38093 2.59886
2974.33250 2.60745
2972.28406 2.62703
2970.23562 2.63428
2968.18718 2.63518
2966.13874 2.65009
2964.09030 2.66221
2962.04187 2.66081
2959.99343 2.65656
2957.94499 2.65287
2955.89655 2.64410
2953.84811 2.62870
2951.79967 2.62260
2949.75124 2.63484
2947.70280 2.64257
2945.65436 2.63232
2943.60592 2.62693
2941.55748 2.64048
2939.50904 2.66075
2937.46061 2.66487
2935.41217 2.65633
2933.36373 2.65751
2931.31529 2.66037
2929.26685 2.65595
2927.21841 2.64954
2925.16998 2.63501
2923.12154 2.62179
2921.07310 2.62468
2919.02466 2.63001
2916.97622 2.62427
2914.92778 2.61693
2912.87934 2.61049
2910.83091 2.60368
2908.78247 2.60462
2906.73403 2.61580
2904.68559 2.62553
2902.63715 2.62148
2900.58871 2.61314
2898.54028 2.60710
2896.49184 2.60158
2894.44340 2.60532
2892.39496 2.61473
2890.34652 2.62466
2888.29808 2.63684
2886.24965 2.64009
2884.20121 2.63100
2882.15277 2.61773
2880.10433 2.61550
2878.05589 2.63549
2876.00745 2.65550
2873.95902 2.64902
2871.91058 2.62737
2869.86214 2.61314
2867.81370 2.61432
2865.76526 2.62248
2863.71682 2.62257
2861.66839 2.61743
2859.61995 2.62071
2857.57151 2.62918
2855.52307 2.63127
2853.47463 2.62439
2851.42619 2.61074
2849.37776 2.59936
2847.32932 2.60397
2845.28088 2.62254
2843.23244 2.63948
2841.18400 2.64534
2839.13556 2.64250
2837.08713 2.64106
2835.03869 2.64254
2832.99025 2.63719
2830.94181 2.62603
2828.89337 2.62231
2826.84493 2.62644
2824.79650 2.62251
2822.74806 2.61443
2820.69962 2.62364
2818.65118 2.64012
2816.60274 2.64289
2814.55430 2.64306
2812.50587 2.64551
2810.45743 2.64231
2808.40899 2.63934
2806.36055 2.63973
2804.31211 2.64069
2802.26367 2.63997
2800.21524 2.63720
2798.16680 2.63126
2796.11836 2.62589
2794.06992 2.63442
2792.02148 2.64568
2789.97304 2.64028
2787.92461 2.63153
2785.87617 2.63503
2783.82773 2.64417
2781.77929 2.64976
2779.73085 2.64819
2777.68241 2.63996
2775.63397 2.64077
2773.58554 2.64669
2771.53710 2.64811
2769.48866 2.65458
2767.44022 2.65707
2765.39178 2.65132
2763.34334 2.65053
2761.29491 2.65712
2759.24647 2.66451
2757.19803 2.67033
2755.14959 2.66658
2753.10115 2.65236
2751.05271 2.64642
2749.00428 2.64274
2746.95584 2.63464
2744.90740 2.64123
2742.85896 2.65847
2740.81052 2.66517
2738.76208 2.65740
2736.71365 2.64742
2734.66521 2.64935
2732.61677 2.65340
2730.56833 2.64975
2728.51989 2.64965
2726.47145 2.65035
2724.42302 2.64572
2722.37458 2.63683
2720.32614 2.62979
2718.27770 2.63724
2716.22926 2.64650
2714.18082 2.64099
2712.13239 2.63227
2710.08395 2.62666
2708.03551 2.63067
2705.98707 2.64699
2703.93863 2.65852
2701.89019 2.65774
2699.84176 2.64708
2697.79332 2.63671
2695.74488 2.64014
2693.69644 2.65345
2691.64800 2.65844
2689.59956 2.64787
2687.55113 2.63853
2685.50269 2.64121
2683.45425 2.64936
2681.40581 2.65429
2679.35737 2.65668
2677.30893 2.65997
2675.26050 2.66084
2673.21206 2.65560
2671.16362 2.65063
2669.11518 2.65179
2667.06674 2.64853
2665.01830 2.64751
2662.96987 2.65810
2660.92143 2.65923
2658.87299 2.64745
2656.82455 2.63983
2654.77611 2.64002
2652.72767 2.64184
2650.67924 2.63922
2648.63080 2.63910
2646.58236 2.64670
2644.53392 2.65187
2642.48548 2.65075
2640.43704 2.65256
2638.38860 2.65805
2636.34017 2.65912
2634.29173 2.65352
2632.24329 2.64712
2630.19485 2.64770
2628.14641 2.64815
2626.09797 2.64322
2624.04954 2.63901
2622.00110 2.63231
2619.95266 2.62751
2617.90422 2.63231
2615.85578 2.63396
2613.80734 2.62446
2611.75891 2.62547
2609.71047 2.64478
2607.66203 2.65651
2605.61359 2.64582
2603.56515 2.62819
2601.51671 2.62522
2599.46828 2.63258
2597.41984 2.63619
2595.37140 2.64122
2593.32296 2.64818
2591.27452 2.65337
2589.22608 2.65523
2587.17765 2.64750
2585.12921 2.63888
2583.08077 2.64376
2581.03233 2.65544
2578.98389 2.65858
2576.93545 2.65179
2574.88702 2.64823
2572.83858 2.65833
2570.79014 2.67068
2568.74170 2.66760
2566.69326 2.65150
2564.64482 2.64059
2562.59639 2.64261
2560.54795 2.64434
2558.49951 2.64525
2556.45107 2.65306
2554.40263 2.65674
2552.35419 2.65490
2550.30576 2.65686
2548.25732 2.65759
2546.20888 2.65443
2544.16044 2.65317
2542.11200 2.65212
2540.06356 2.65307
2538.01513 2.65870
2535.96669 2.65964
2533.91825 2.65172
2531.86981 2.64331
2529.82137 2.64410
2527.77293 2.65387
2525.72450 2.66208
2523.67606 2.66117
2521.62762 2.65826
2519.57918 2.65996
2517.53074 2.66270
2515.48230 2.66819
2513.43387 2.67660
2511.38543 2.67803
2509.33699 2.66751
2507.28855 2.65708
2505.24011 2.65217
2503.19167 2.64563
2501.14324 2.64058
2499.09480 2.63693
2497.04636 2.63717
2494.99792 2.64637
2492.94948 2.65578
2490.90104 2.65742
2488.85260 2.64879
2486.80417 2.64150
2484.75573 2.64894
2482.70729 2.66858
2480.65885 2.68636
2478.61041 2.68437
2476.56197 2.66962
2474.51354 2.66162
2472.46510 2.66297
2470.41666 2.66862
2468.36822 2.67027
2466.31978 2.66261
2464.27134 2.65478
2462.22291 2.65339
2460.17447 2.65576
2458.12603 2.66191
2456.07759 2.67017
2454.02915 2.67768
2451.98071 2.67690
2449.93228 2.66886
2447.88384 2.67380
2445.83540 2.68459
2443.78696 2.67717
2441.73852 2.66153
2439.69008 2.65567
2437.64165 2.66222
2435.59321 2.67173
2433.54477 2.67641
2431.49633 2.67791
2429.44789 2.67728
2427.39945 2.68048
2425.35102 2.68425
2423.30258 2.66963
2421.25414 2.64769
2419.20570 2.65255
2417.15726 2.67697
2415.10882 2.68392
2413.06039 2.67408
2411.01195 2.67221
2408.96351 2.68175
2406.91507 2.68167
2404.86663 2.66561
2402.81819 2.65241
2400.76976 2.64916
2398.72132 2.65312
2396.67288 2.66039
2394.62444 2.66537
2392.57600 2.66950
2390.52756 2.67891
2388.47913 2.68599
2386.43069 2.68213
2384.38225 2.67690
2382.33381 2.66979
2380.28537 2.65404
2378.23693 2.63887
2376.18850 2.63291
2374.14006 2.63697
2372.09162 2.63449
2370.04318 2.61083
2367.99474 2.60948
2365.94630 2.64359
2363.89787 2.64532
2361.84943 2.62647
2359.80099 2.59006
2357.75255 2.53107
2355.70411 2.53081
2353.65567 2.58975
2351.60723 2.66145
2349.55880 2.69647
2347.51036 2.69398
2345.46192 2.69961
2343.41348 2.70114
2341.36504 2.68455
2339.31660 2.68105
2337.26817 2.65595
2335.21973 2.63842
2333.17129 2.67220
2331.12285 2.71371
2329.07441 2.71919
2327.02597 2.71288
2324.97754 2.69196
2322.92910 2.65048
2320.88066 2.62985
2318.83222 2.63978
2316.78378 2.64495
2314.73534 2.64334
2312.68691 2.64636
2310.63847 2.64300
2308.59003 2.63789
2306.54159 2.63271
2304.49315 2.62110
2302.44471 2.61572
2300.39628 2.63242
2298.34784 2.66000
2296.29940 2.66212
2294.25096 2.64306
2292.20252 2.63507
2290.15408 2.63402
2288.10565 2.63086
2286.05721 2.62951
2284.00877 2.62869
2281.96033 2.62905
2279.91189 2.63209
2277.86345 2.63924
2275.81502 2.64696
2273.76658 2.64743
2271.71814 2.64123
2269.66970 2.62994
2267.62126 2.61638
2265.57282 2.61360
2263.52439 2.62504
2261.47595 2.63212
2259.42751 2.62556
2257.37907 2.62017
2255.33063 2.62435
2253.28219 2.62811
2251.23376 2.62639
2249.18532 2.62687
2247.13688 2.62928
2245.08844 2.62377
2243.04000 2.61035
2240.99156 2.60023
2238.94313 2.59997
2236.89469 2.60478
2234.84625 2.61239
2232.79781 2.62238
2230.74937 2.62657
2228.70093 2.62888
2226.65250 2.63893
2224.60406 2.64963
2222.55562 2.64517
2220.50718 2.63503
2218.45874 2.63717
2216.41030 2.63548
2214.36186 2.61869
2212.31343 2.60486
2210.26499 2.60242
2208.21655 2.60502
2206.16811 2.61278
2204.11967 2.62021
2202.07123 2.61374
2200.02280 2.60211
2197.97436 2.60116
2195.92592 2.60444
2193.87748 2.60597
2191.82904 2.60907
2189.78060 2.60636
2187.73217 2.60432
2185.68373 2.61124
2183.63529 2.61556
2181.58685 2.61203
2179.53841 2.60796
2177.48997 2.60967
2175.44154 2.61744
2173.39310 2.62844
2171.34466 2.63620
2169.29622 2.64206
2167.24778 2.65035
2165.19934 2.65877
2163.15091 2.66524
2161.10247 2.66413
2159.05403 2.65443
2157.00559 2.64272
2154.95715 2.63612
2152.90871 2.64684
2150.86028 2.67008
2148.81184 2.68081
2146.76340 2.67840
2144.71496 2.66645
2142.66652 2.64558
2140.61808 2.63282
2138.56965 2.63573
2136.52121 2.64545
2134.47277 2.64426
2132.42433 2.63292
2130.37589 2.62932
2128.32745 2.63374
2126.27902 2.63496
2124.23058 2.63433
2122.18214 2.64265
2120.13370 2.65668
2118.08526 2.65851
2116.03682 2.64985
2113.98839 2.64752
2111.93995 2.65746
2109.89151 2.67252
2107.84307 2.67346
2105.79463 2.66084
2103.74619 2.64871
2101.69776 2.64232
2099.64932 2.64963
2097.60088 2.66418
2095.55244 2.66850
2093.50400 2.66803
2091.45556 2.67847
2089.40713 2.68657
2087.35869 2.67253
2085.31025 2.65022
2083.26181 2.64286
2081.21337 2.65132
2079.16493 2.65571
2077.11649 2.65377
2075.06806 2.66331
2073.01962 2.68035
2070.97118 2.68215
2068.92274 2.66996
2066.87430 2.66281
2064.82586 2.67220
2062.77743 2.69587
2060.72899 2.70431
2058.68055 2.68927
2056.63211 2.67694
2054.58367 2.67411
2052.53523 2.68003
2050.48680 2.69163
2048.43836 2.69812
2046.38992 2.69615
2044.34148 2.68891
2042.29304 2.68273
2040.24460 2.68085
2038.19617 2.68041
2036.14773 2.67973
2034.09929 2.67658
2032.05085 2.67160
2030.00241 2.66988
2027.95397 2.66755
2025.90554 2.65984
2023.85710 2.65696
2021.80866 2.66555
2019.76022 2.66907
2017.71178 2.65582
2015.66334 2.63818
2013.61491 2.62683
2011.56647 2.62693
2009.51803 2.63842
2007.46959 2.64777
2005.42115 2.64234
2003.37271 2.63102
2001.32428 2.63088
1999.27584 2.63930
1997.22740 2.64009
1995.17896 2.62929
1993.13052 2.61776
1991.08208 2.61324
1989.03365 2.61668
1986.98521 2.62445
1984.93677 2.62306
1982.88833 2.61073
1980.83989 2.60053
1978.79145 2.59372
1976.74302 2.58920
1974.69458 2.58951
1972.64614 2.59283
1970.59770 2.59612
1968.54926 2.60039
1966.50082 2.60892
1964.45239 2.61290
1962.40395 2.60718
1960.35551 2.59995
1958.30707 2.59731
1956.25863 2.59972
1954.21019 2.59944
1952.16176 2.59279
1950.11332 2.58803
1948.06488 2.59264
1946.01644 2.60176
1943.96800 2.60269
1941.91956 2.59600
1939.87112 2.59817
1937.82269 2.61008
1935.77425 2.61725
1933.72581 2.61737
1931.67737 2.61467
1929.62893 2.60844
1927.58049 2.60397
1925.53206 2.60892
1923.48362 2.61994
1921.43518 2.63020
1919.38674 2.63777
1917.33830 2.63103
1915.28986 2.61768
1913.24143 2.62114
1911.19299 2.63508
1909.14455 2.64062
1907.09611 2.64073
1905.04767 2.64125
1902.99923 2.64149
1900.95080 2.64570
1898.90236 2.65061
1896.85392 2.65640
1894.80548 2.66275
1892.75704 2.65667
1890.70860 2.64096
1888.66017 2.63600
1886.61173 2.64300
1884.56329 2.64638
1882.51485 2.64703
1880.46641 2.64935
1878.41797 2.65144
1876.36954 2.65642
1874.32110 2.66489
1872.27266 2.66788
1870.22422 2.66275
1868.17578 2.65787
1866.12734 2.65836
1864.07891 2.66374
1862.03047 2.66778
1859.98203 2.66482
1857.93359 2.66213
1855.88515 2.66241
1853.83671 2.66437
1851.78828 2.66818
1849.73984 2.67241
1847.69140 2.67496
1845.64296 2.67203
1843.59452 2.67793
1841.54608 2.69425
1839.49765 2.70597
1837.44921 2.71211
1835.40077 2.71289
1833.35233 2.71628
1831.30389 2.71899
1829.25545 2.71639
1827.20702 2.71879
1825.15858 2.72312
1823.11014 2.72185
1821.06170 2.71373
1819.01326 2.70360
1816.96482 2.70431
1814.91639 2.72011
1812.86795 2.73396
1810.81951 2.73596
1808.77107 2.73088
1806.72263 2.72122
1804.67419 2.70967
1802.62575 2.69701
1800.57732 2.69471
1798.52888 2.71115
1796.48044 2.72761
1794.43200 2.73790
1792.38356 2.75157
1790.33512 2.75616
1788.28669 2.74099
1786.23825 2.72718
1784.18981 2.73483
1782.14137 2.75209
1780.09293 2.75932
1778.04449 2.75780
1775.99606 2.75181
1773.94762 2.75216
1771.89918 2.76211
1769.85074 2.76667
1767.80230 2.77118
1765.75386 2.77268
1763.70543 2.76498
1761.65699 2.75979
1759.60855 2.76105
1757.56011 2.75256
1755.51167 2.74361
1753.46323 2.75353
1751.41480 2.77670
1749.36636 2.79329
1747.31792 2.79202
1745.26948 2.78593
1743.22104 2.77816
1741.17260 2.76651
1739.12417 2.76070
1737.07573 2.76612
1735.02729 2.77059
1732.97885 2.75873
1730.93041 2.74553
1728.88197 2.74268
1726.83354 2.74181
1724.78510 2.73971
1722.73666 2.73983
1720.68822 2.73621
1718.63978 2.73796
1716.59134 2.76780
1714.54291 2.78067
1712.49447 2.76621
1710.44603 2.75873
1708.39759 2.76892
1706.34915 2.77635
1704.30071 2.75955
1702.25228 2.73910
1700.20384 2.74264
1698.15540 2.78861
1696.10696 2.81976
1694.05852 2.80565
1692.01008 2.78800
1689.96165 2.77569
1687.91321 2.76131
1685.86477 2.74212
1683.81633 2.74838
1681.76789 2.78035
1679.71945 2.78522
1677.67102 2.78194
1675.62258 2.78724
1673.57414 2.78811
1671.52570 2.78197
1669.47726 2.78840
1667.42882 2.80484
1665.38038 2.81570
1663.33195 2.81629
1661.28351 2.80306
1659.23507 2.80086
1657.18663 2.81769
1655.13819 2.84026
1653.08975 2.85156
1651.04132 2.84466
1648.99288 2.83014
1646.94444 2.80669
1644.89600 2.80527
1642.84756 2.82389
1640.79912 2.84270
1638.75069 2.85657
1636.70225 2.86864
1634.65381 2.86859
1632.60537 2.84919
1630.55693 2.82944
1628.50849 2.82040
1626.46006 2.83262
1624.41162 2.85348
1622.36318 2.86072
1620.31474 2.86316
1618.26630 2.86643
1616.21786 2.86043
1614.16943 2.85075
1612.12099 2.85015
1610.07255 2.86448
1608.02411 2.88552
1605.97567 2.89259
1603.92723 2.88104
1601.87880 2.87056
1599.83036 2.87833
1597.78192 2.89538
1595.73348 2.91580
1593.68504 2.93204
1591.63660 2.92486
1589.58817 2.91864
1587.53973 2.93327
1585.49129 2.94680
1583.44285 2.95397
1581.39441 2.95647
1579.34597 2.96127
1577.29754 2.97141
1575.24910 2.96963
1573.20066 2.98201
1571.15222 3.01075
1569.10378 3.01031
1567.05534 2.96399
1565.00691 2.93077
1562.95847 2.93199
1560.91003 2.95440
1558.86159 2.98796
1556.81315 2.97308
1554.76471 2.94578
1552.71628 2.94970
1550.66784 2.99172
1548.61940 3.03926
1546.57096 3.04074
1544.52252 3.00449
1542.47408 2.99117
1540.42565 3.00863
1538.37721 2.98287
1536.32877 2.97529
1534.28033 3.00630
1532.23189 3.02357
1530.18345 2.98968
1528.13501 2.96588
1526.08658 2.98207
1524.03814 3.02237
1521.98970 3.06257
1519.94126 3.04431
1517.89282 2.99159
1515.84438 2.98420
1513.79595 3.00892
1511.74751 3.01193
1509.69907 2.97448
1507.65063 2.90173
1505.60219 2.82756
1503.55375 2.77492
1501.50532 2.72610
1499.45688 2.67516
1497.40844 2.61865
1495.36000 2.56286
1493.31156 2.52215
1491.26312 2.48677
1489.21469 2.44487
1487.16625 2.40517
1485.11781 2.37021
1483.06937 2.33699
1481.02093 2.30913
1478.97249 2.29071
1476.92406 2.27910
1474.87562 2.26923
1472.82718 2.25252
1470.77874 2.23081
1468.73030 2.21543
1466.68186 2.20447
1464.63343 2.19134
1462.58499 2.17685
1460.53655 2.16531
1458.48811 2.15161
1456.43967 2.13845
1454.39123 2.13268
1452.34280 2.12773
1450.29436 2.12291
1448.24592 2.11867
1446.19748 2.11545
1444.14904 2.11286
1442.10060 2.11142
1440.05217 2.11087
1438.00373 2.10975
1435.95529 2.11282
1433.90685 2.12300
1431.85841 2.13317
1429.80997 2.14219
1427.76154 2.14950
1425.71310 2.15387
1423.66466 2.15559
1421.61622 2.15303
1419.56778 2.14865
1417.51934 2.14563
1415.47091 2.14062
1413.42247 2.13125
1411.37403 2.11752
1409.32559 2.10173
1407.27715 2.08590
1405.22871 2.06958
1403.18028 2.05540
1401.13184 2.04471
1399.08340 2.03595
1397.03496 2.03070
1394.98652 2.02996
1392.93808 2.03101
1390.88965 2.03207
1388.84121 2.03400
1386.79277 2.03859
1384.74433 2.04713
1382.69589 2.05767
1380.64745 2.07018
1378.59901 2.08565
1376.55058 2.10431
1374.50214 2.12880
1372.45370 2.15372
1370.40526 2.17299
1368.35682 2.19415
1366.30838 2.21658
1364.25995 2.23337
1362.21151 2.24548
1360.16307 2.25599
1358.11463 2.26479
1356.06619 2.27239
1354.01775 2.28160
1351.96932 2.29367
1349.92088 2.30738
1347.87244 2.31909
1345.82400 2.32865
1343.77556 2.33690
1341.72712 2.34287
1339.67869 2.34995
1337.63025 2.35832
1335.58181 2.36307
1333.53337 2.36739
1331.48493 2.37645
1329.43649 2.38510
1327.38806 2.38682
1325.33962 2.38566
1323.29118 2.38801
1321.24274 2.39569
1319.19430 2.40481
1317.14586 2.41136
1315.09743 2.41748
1313.04899 2.42086
1311.00055 2.41901
1308.95211 2.41763
1306.90367 2.41594
1304.85523 2.41399
1302.80680 2.41881
1300.75836 2.42595
1298.70992 2.42769
1296.66148 2.42661
1294.61304 2.42747
1292.56460 2.43129
1290.51617 2.43491
1288.46773 2.43898
1286.41929 2.44446
1284.37085 2.44880
1282.32241 2.45257
1280.27397 2.45421
1278.22554 2.45220
1276.17710 2.45363
1274.12866 2.46079
1272.08022 2.46697
1270.03178 2.47149
1267.98334 2.47293
1265.93491 2.47266
1263.88647 2.47326
1261.83803 2.46921
1259.78959 2.46853
1257.74115 2.47829
1255.69271 2.48830
1253.64428 2.49174
1251.59584 2.49545
1249.54740 2.50235
1247.49896 2.50489
1245.45052 2.50413
1243.40208 2.50383
1241.35364 2.50137
1239.30521 2.49774
1237.25677 2.50165
1235.20833 2.51221
1233.15989 2.51717
1231.11145 2.51420
1229.06301 2.50810
1227.01458 2.50322
1224.96614 2.50227
1222.91770 2.50684
1220.86926 2.51452
1218.82082 2.52156
1216.77238 2.52848
1214.72395 2.52889
1212.67551 2.52246
1210.62707 2.52151
1208.57863 2.52405
1206.53019 2.52248
1204.48175 2.52285
1202.43332 2.53083
1200.38488 2.54030
1198.33644 2.54413
1196.28800 2.54568
1194.23956 2.54764
1192.19112 2.54387
1190.14269 2.53245
1188.09425 2.52829
1186.04581 2.53937
1183.99737 2.54777
1181.94893 2.54447
1179.90049 2.54188
1177.85206 2.54526
1175.80362 2.54787
1173.75518 2.54779
1171.70674 2.55057
1169.65830 2.55789
1167.60986 2.56202
1165.56143 2.55805
1163.51299 2.55976
1161.46455 2.57260
1159.41611 2.58121
1157.36767 2.57942
1155.31923 2.57488
1153.27080 2.57034
1151.22236 2.56602
1149.17392 2.56355
1147.12548 2.56310
1145.07704 2.56691
1143.02860 2.57508
1140.98017 2.58150
1138.93173 2.57719
1136.88329 2.56952
1134.83485 2.57555
1132.78641 2.58802
1130.73797 2.59368
1128.68954 2.59797
1126.64110 2.59677
1124.59266 2.58298
1122.54422 2.57259
1120.49578 2.57564
1118.44734 2.58422
1116.39891 2.59160
1114.35047 2.59531
1112.30203 2.59441
1110.25359 2.59337
1108.20515 2.59734
1106.15671 2.60137
1104.10827 2.59743
1102.05984 2.58900
1100.01140 2.58415
1097.96296 2.58498
1095.91452 2.58743
1093.86608 2.58480
1091.81764 2.58248
1089.76921 2.58716
1087.72077 2.59137
1085.67233 2.59487
1083.62389 2.59834
1081.57545 2.59062
1079.52701 2.58087
1077.47858 2.58690
1075.43014 2.60365
1073.38170 2.61491
1071.33326 2.61240
1069.28482 2.60760
1067.23638 2.61054
1065.18795 2.61791
1063.13951 2.62510
1061.09107 2.63057
1059.04263 2.63994
1056.99419 2.64410
1054.94575 2.60186
1052.89732 2.52217
1050.84888 2.48742
1048.80044 2.51753
1046.75200 2.54911
1044.70356 2.55206
1042.65512 2.55391
1040.60669 2.56186
1038.55825 2.57119
1036.50981 2.58129
1034.46137 2.58964
1032.41293 2.59654
1030.36449 2.60258
1028.31606 2.60449
1026.26762 2.60294
1024.21918 2.60713
1022.17074 2.61389
1020.12230 2.61357
1018.07386 2.61139
1016.02543 2.61048
1013.97699 2.61341
1011.92855 2.62044
1009.88011 2.63326
1007.83167 2.63628
1005.78323 2.60944
1003.73480 2.58596
1001.68636 2.59350
999.63792 2.61248
997.58948 2.61740
995.54104 2.61681
993.49260 2.61768
991.44417 2.60795
989.39573 2.59340
987.34729 2.59082
985.29885 2.60053
983.25041 2.61026
981.20197 2.61354
979.15354 2.60939
977.10510 2.60710
975.05666 2.61213
973.00822 2.61351
970.95978 2.60883
968.91134 2.60372
966.86290 2.59964
964.81447 2.59860
962.76603 2.60502
960.71759 2.61523
958.66915 2.61623
956.62071 2.61364
954.57227 2.61432
952.52384 2.60731
950.47540 2.60130
948.42696 2.61402
946.37852 2.63841
944.33008 2.65490
942.28164 2.65870
940.23321 2.65498
938.18477 2.65080
936.13633 2.65097
934.08789 2.64565
932.03945 2.62778
929.99101 2.61133
927.94258 2.61464
925.89414 2.63619
923.84570 2.65844
921.79726 2.66308
919.74882 2.64513
917.70038 2.62669
915.65195 2.63560
913.60351 2.66347
911.55507 2.67219
909.50663 2.65680
907.45819 2.63704
905.40975 2.61927
903.36132 2.61453
901.31288 2.63112
899.26444 2.65348
897.21600 2.67478
895.16756 2.69130
893.11912 2.68640
891.07069 2.68911
889.02225 2.71089
886.97381 2.70412
884.92537 2.66876
882.87693 2.64065
880.82849 2.63090
878.78006 2.63865
876.73162 2.65609
874.68318 2.67961
872.63474 2.70744
870.58630 2.71706
868.53786 2.69069
866.48943 2.66674
864.44099 2.68199
862.39255 2.70435
860.34411 2.70153
858.29567 2.71128
856.24723 2.74368
854.19880 2.76450
852.15036 2.77165
850.10192 2.77318
848.05348 2.73852
846.00504 2.61619
843.95660 2.44610
841.90817 2.30668
839.85973 2.23841
837.81129 2.25465
835.76285 2.32647
833.71441 2.39586
831.66597 2.44851
829.61753 2.49994
827.56910 2.53538
825.52066 2.53709
823.47222 2.52276
821.42378 2.53217
819.37534 2.56884
817.32690 2.59239
815.27847 2.58565
813.23003 2.57474
811.18159 2.59060
809.13315 2.62249
807.08471 2.63415
805.03627 2.62832
802.98784 2.62365
800.93940 2.63587
798.89096 2.65681
796.84252 2.64642
794.79408 2.60673
792.74564 2.57391
790.69721 2.57841
788.64877 2.61466
786.60033 2.62317
784.55189 2.60249
782.50345 2.60780
780.45501 2.64229
778.40658 2.67960
776.35814 2.69618
774.30970 2.67334
772.26126 2.64541
770.21282 2.65342
768.16438 2.66192
766.11595 2.64297
764.06751 2.64195
762.01907 2.65099
759.97063 2.62362
757.92219 2.60689
755.87375 2.62922
753.82532 2.64648
751.77688 2.64317
749.72844 2.63171
747.68000 2.64251
745.63156 2.68270
743.58312 2.70319
741.53469 2.68264
739.48625 2.64188
737.43781 2.61615
735.38937 2.62336
733.34093 2.63743
731.29249 2.65701
729.24406 2.69917
727.19562 2.72160
725.14718 2.70077
723.09874 2.68960
721.05030 2.69078
719.00186 2.66957
716.95343 2.65128
714.90499 2.64616
712.85655 2.62524
710.80811 2.61606
708.75967 2.66574
706.71123 2.73226
704.66280 2.72254
702.61436 2.67808
700.56592 2.67743
698.51748 2.69116
696.46904 2.65996
694.42060 2.64599
692.37216 2.74658
690.32373 2.93365
688.27529 2.99975
686.22685 2.92683
684.17841 2.83028
682.12997 2.60464
680.08153 2.33963
678.03310 2.20356
675.98466 2.21451
673.93622 2.31169
671.88778 2.41341
669.83934 2.50713
667.79090 2.58950
665.74247 2.56110
663.69403 2.53009
661.64559 2.53876
659.59715 2.51590
657.54871 2.43958
655.50027 2.41052
653.45184 2.46618
651.40340 2.53521
649.35496 2.52593
647.30652 2.49097
645.25808 2.50215
643.20964 2.51495
641.16121 2.51806
639.11277 2.54280
637.06433 2.58217
635.01589 2.58896
632.96745 2.53099
630.91901 2.46014
628.87058 2.38635
626.82214 2.33249
624.77370 2.34455
622.72526 2.44130
620.67682 2.61566
618.62838 2.83626
616.57995 2.85542
614.53151 2.64735
612.48307 2.61925
610.43463 2.87558
608.38619 3.38920
606.33775 3.15932
604.28932 2.67069
602.24088 2.37033
600.19244 2.17220
598.14400 2.04883
