3996.50324 2.17372
3994.45480 2.16912
3992.40636 2.16654
3990.35792 2.16399
3988.30948 2.16315
3986.26104 2.16323
3984.21261 2.16286
3982.16417 2.16271
3980.11573 2.16341
3978.06729 2.16325
3976.01885 2.16353
3973.97041 2.17009
3971.92198 2.17435
3969.87354 2.16827
3967.82510 2.16356
3965.77666 2.16544
3963.72822 2.16677
3961.67978 2.16703
3959.63135 2.16865
3957.58291 2.16892
3955.53447 2.16706
3953.48603 2.16318
3951.43759 2.15798
3949.38915 2.15522
3947.34072 2.15748
3945.29228 2.16167
3943.24384 2.16507
3941.19540 2.16941
3939.14696 2.17221
3937.09852 2.17129
3935.05009 2.17022
3933.00165 2.16850
3930.95321 2.16643
3928.90477 2.16694
3926.85633 2.16585
3924.80789 2.16504
3922.75946 2.16492
3920.71102 2.15925
3918.66258 2.15782
3916.61414 2.16930
3914.56570 2.17862
3912.51726 2.17944
3910.46883 2.18081
3908.42039 2.18199
3906.37195 2.17656
3904.32351 2.17175
3902.27507 2.18295
3900.22663 2.19807
3898.17820 2.19802
3896.12976 2.18922
3894.08132 2.18071
3892.03288 2.18145
3889.98444 2.19096
3887.93600 2.19178
3885.88756 2.18728
3883.83913 2.18540
3881.79069 2.18363
3879.74225 2.19011
3877.69381 2.19831
3875.64537 2.19658
3873.59693 2.19415
3871.54850 2.20005
3869.50006 2.21112
3867.45162 2.21216
3865.40318 2.20422
3863.35474 2.20457
3861.30630 2.21147
3859.25787 2.21225
3857.20943 2.20471
3855.16099 2.19114
3853.11255 2.19390
3851.06411 2.21490
3849.01567 2.22178
3846.96724 2.21993
3844.91880 2.21833
3842.87036 2.21977
3840.82192 2.22141
3838.77348 2.22534
3836.72504 2.23182
3834.67661 2.23214
3832.62817 2.22853
3830.57973 2.22554
3828.53129 2.22435
3826.48285 2.22525
3824.43441 2.22203
3822.38598 2.21909
3820.33754 2.23810
3818.28910 2.25610
3816.24066 2.25293
3814.19222 2.24391
3812.14378 2.23385
3810.09535 2.22375
3808.04691 2.22175
3805.99847 2.22929
3803.95003 2.23228
3801.90159 2.23645
3799.85315 2.24729
3797.80472 2.24844
3795.75628 2.24528
3793.70784 2.24247
3791.65940 2.23792
3789.61096 2.23332
3787.56252 2.22940
3785.51409 2.22854
3783.46565 2.23137
3781.41721 2.23496
3779.36877 2.24427
3777.32033 2.25396
3775.27189 2.25195
3773.22346 2.24366
3771.17502 2.23505
3769.12658 2.23350
3767.07814 2.23974
3765.02970 2.24294
3762.98126 2.24029
3760.93283 2.23559
3758.88439 2.23704
3756.83595 2.24483
3754.78751 2.24863
3752.73907 2.24792
3750.69063 2.24802
3748.64219 2.24880
3746.59376 2.24840
3744.54532 2.24284
3742.49688 2.22672
3740.44844 2.21235
3738.40000 2.20226
3736.35156 2.20033
3734.30313 2.21435
3732.25469 2.22120
3730.20625 2.21194
3728.15781 2.20104
3726.10937 2.19822
3724.06093 2.20728
3722.01250 2.21463
3719.96406 2.21063
3717.91562 2.20594
3715.86718 2.20399
3713.81874 2.20126
3711.77030 2.20637
3709.72187 2.22303
3707.67343 2.23025
3705.62499 2.22627
3703.57655 2.22276
3701.52811 2.22839
3699.47967 2.23477
3697.43124 2.23706
3695.38280 2.23998
3693.33436 2.24000
3691.28592 2.23941
3689.23748 2.25012
3687.18904 2.25979
3685.14061 2.25932
3683.09217 2.25729
3681.04373 2.25594
3678.99529 2.25409
3676.94685 2.24802
3674.89841 2.24581
3672.84998 2.25105
3670.80154 2.25656
3668.75310 2.26648
3666.70466 2.27112
3664.65622 2.27024
3662.60778 2.26643
3660.55935 2.26143
3658.51091 2.26101
3656.46247 2.26640
3654.41403 2.26850
3652.36559 2.26605
3650.31715 2.27763
3648.26872 2.29912
3646.22028 2.29077
3644.17184 2.27425
3642.12340 2.26607
3640.07496 2.26723
3638.02652 2.26774
3635.97809 2.26141
3633.92965 2.25435
3631.88121 2.25011
3629.83277 2.25179
3627.78433 2.26613
3625.73589 2.27354
3623.68746 2.27444
3621.63902 2.28012
3619.59058 2.29648
3617.54214 2.31212
3615.49370 2.30397
3613.44526 2.28409
3611.39682 2.27158
3609.34839 2.26821
3607.29995 2.27262
3605.25151 2.27643
3603.20307 2.27228
3601.15463 2.26660
3599.10619 2.26720
3597.05776 2.27132
3595.00932 2.27412
3592.96088 2.27508
3590.91244 2.27521
3588.86400 2.27746
3586.81556 2.28741
3584.76713 2.29449
3582.71869 2.29201
3580.67025 2.28859
3578.62181 2.28856
3576.57337 2.29124
3574.52493 2.29397
3572.47650 2.29444
3570.42806 2.29216
3568.37962 2.28535
3566.33118 2.27934
3564.28274 2.28307
3562.23430 2.28939
3560.18587 2.29444
3558.13743 2.29764
3556.08899 2.29654
3554.04055 2.29651
3551.99211 2.29991
3549.94367 2.29912
3547.89524 2.29682
3545.84680 2.29831
3543.79836 2.30034
3541.74992 2.30095
3539.70148 2.30010
3537.65304 2.30084
3535.60461 2.30426
3533.55617 2.30553
3531.50773 2.30727
3529.45929 2.31337
3527.41085 2.31921
3525.36241 2.31955
3523.31398 2.31503
3521.26554 2.31181
3519.21710 2.31722
3517.16866 2.32666
3515.12022 2.32648
3513.07178 2.31938
3511.02335 2.31801
3508.97491 2.32387
3506.92647 2.32909
3504.87803 2.32725
3502.82959 2.32192
3500.78115 2.32110
3498.73272 2.32402
3496.68428 2.32595
3494.63584 2.32463
3492.58740 2.32453
3490.53896 2.32690
3488.49052 2.32460
3486.44209 2.32083
3484.39365 2.32219
3482.34521 2.32670
3480.29677 2.33340
3478.24833 2.34153
3476.19989 2.34686
3474.15146 2.34651
3472.10302 2.34286
3470.05458 2.34385
3468.00614 2.34888
3465.95770 2.34566
3463.90926 2.34088
3461.86082 2.34484
3459.81239 2.34912
3457.76395 2.35221
3455.71551 2.35504
3453.66707 2.34987
3451.61863 2.34111
3449.57019 2.34032
3447.52176 2.34481
3445.47332 2.34697
3443.42488 2.34938
3441.37644 2.35473
3439.32800 2.35723
3437.27956 2.35659
3435.23113 2.35631
3433.18269 2.35235
3431.13425 2.34553
3429.08581 2.34081
3427.03737 2.34267
3424.98893 2.35090
3422.94050 2.35326
3420.89206 2.34616
3418.84362 2.34361
3416.79518 2.34825
3414.74674 2.34764
3412.69830 2.34086
3410.64987 2.33998
3408.60143 2.34613
3406.55299 2.35221
3404.50455 2.35706
3402.45611 2.35889
3400.40767 2.35667
3398.35924 2.35526
3396.31080 2.35792
3394.26236 2.35736
3392.21392 2.34781
3390.16548 2.34025
3388.11704 2.34140
3386.06861 2.34584
3384.02017 2.35039
3381.97173 2.35457
3379.92329 2.35356
3377.87485 2.34719
3375.82641 2.34343
3373.77798 2.34195
3371.72954 2.34198
3369.68110 2.34709
3367.63266 2.35167
3365.58422 2.35169
3363.53578 2.35060
3361.48735 2.34923
3359.43891 2.34865
3357.39047 2.34919
3355.34203 2.34757
3353.29359 2.34416
3351.24515 2.34213
3349.19672 2.34159
3347.14828 2.33963
3345.09984 2.33897
3343.05140 2.34445
3341.00296 2.34784
3338.95452 2.34257
3336.90609 2.33741
3334.85765 2.33886
3332.80921 2.34348
3330.76077 2.34819
3328.71233 2.35178
3326.66389 2.35096
3324.61545 2.34659
3322.56702 2.34474
3320.51858 2.34790
3318.47014 2.35074
3316.42170 2.34859
3314.37326 2.34433
3312.32482 2.34353
3310.27639 2.34830
3308.22795 2.35162
3306.17951 2.34907
3304.13107 2.34720
3302.08263 2.34840
3300.03419 2.35348
3297.98576 2.35907
3295.93732 2.35643
3293.88888 2.35165
3291.84044 2.35087
3289.79200 2.35146
3287.74356 2.35176
3285.69513 2.35061
3283.64669 2.35057
3281.59825 2.35271
3279.54981 2.35621
3277.50137 2.35814
3275.45293 2.35577
3273.40450 2.35244
3271.35606 2.35002
3269.30762 2.34934
3267.25918 2.35206
3265.21074 2.35582
3263.16230 2.35857
3261.11387 2.35986
3259.06543 2.35827
3257.01699 2.35461
3254.96855 2.35032
3252.92011 2.34809
3250.87167 2.34868
3248.82324 2.34767
3246.77480 2.34575
3244.72636 2.34731
3242.67792 2.34913
3240.62948 2.34876
3238.58104 2.35061
3236.53261 2.35528
3234.48417 2.35942
3232.43573 2.36112
3230.38729 2.36100
3228.33885 2.35823
3226.29041 2.35342
3224.24198 2.35088
3222.19354 2.35124
3220.14510 2.35229
3218.09666 2.35255
3216.04822 2.35346
3213.99978 2.35343
3211.95135 2.34977
3209.90291 2.34894
3207.85447 2.35376
3205.80603 2.35763
3203.75759 2.35713
3201.70915 2.35256
3199.66072 2.34776
3197.61228 2.34810
3195.56384 2.35132
3193.51540 2.35340
3191.46696 2.35433
3189.41852 2.35541
3187.37008 2.35660
3185.32165 2.35677
3183.27321 2.35617
3181.22477 2.35500
3179.17633 2.35620
3177.12789 2.36111
3175.07945 2.36410
3173.03102 2.36185
3170.98258 2.35657
3168.93414 2.35230
3166.88570 2.35211
3164.83726 2.35345
3162.78882 2.35250
3160.74039 2.35195
3158.69195 2.35295
3156.64351 2.35251
3154.59507 2.35273
3152.54663 2.35594
3150.49819 2.35919
3148.44976 2.35923
3146.40132 2.35507
3144.35288 2.34930
3142.30444 2.34821
3140.25600 2.35203
3138.20756 2.35435
3136.15913 2.35428
3134.11069 2.35503
3132.06225 2.35573
3130.01381 2.35130
3127.96537 2.34525
3125.91693 2.34605
3123.86850 2.35206
3121.82006 2.35850
3119.77162 2.36110
3117.72318 2.35864
3115.67474 2.35765
3113.62630 2.36033
3111.57787 2.35969
3109.52943 2.35516
3107.48099 2.35681
3105.43255 2.36495
3103.38411 2.36722
3101.33567 2.36079
3099.28724 2.35333
3097.23880 2.35036
3095.19036 2.35408
3093.14192 2.35906
3091.09348 2.35720
3089.04504 2.35295
3086.99661 2.35515
3084.94817 2.36017
3082.89973 2.36098
3080.85129 2.36096
3078.80285 2.36485
3076.75441 2.36678
3074.70598 2.35960
3072.65754 2.35172
3070.60910 2.35239
3068.56066 2.35639
3066.51222 2.35764
3064.46378 2.35618
3062.41535 2.35528
3060.36691 2.35835
3058.31847 2.36150
3056.27003 2.35983
3054.22159 2.35607
3052.17315 2.35316
3050.12471 2.34971
3048.07628 2.34598
3046.02784 2.34524
3043.97940 2.34682
3041.93096 2.34596
3039.88252 2.34298
3037.83408 2.34294
3035.78565 2.34318
3033.73721 2.34004
3031.68877 2.33821
3029.64033 2.34041
3027.59189 2.34487
3025.54345 2.34774
3023.49502 2.34796
3021.44658 2.34988
3019.39814 2.35272
3017.34970 2.35084
3015.30126 2.34835
3013.25282 2.35291
3011.20439 2.36011
3009.15595 2.36196
3007.10751 2.36026
3005.05907 2.36020
3003.01063 2.36041
3000.96219 2.35850
2998.91376 2.35431
2996.86532 2.34935
2994.81688 2.35013
2992.76844 2.35669
2990.72000 2.36097
2988.67156 2.36197
2986.62313 2.35985
2984.57469 2.35296
2982.52625 2.35034
2980.47781 2.35543
2978.42937 2.35768
2976.38093 2.35632
2974.33250 2.35736
2972.28406 2.35867
2970.23562 2.35769
2968.18718 2.35447
2966.13874 2.35188
2964.09030 2.35375
2962.04187 2.35638
2959.99343 2.35534
2957.94499 2.35474
2955.89655 2.35655
2953.84811 2.35703
2951.79967 2.35726
2949.75124 2.35981
2947.70280 2.36344
2945.65436 2.36674
2943.60592 2.36829
2941.55748 2.36686
2939.50904 2.36439
2937.46061 2.36363
2935.41217 2.36399
2933.36373 2.36499
2931.31529 2.36699
2929.26685 2.36864
2927.21841 2.36968
2925.16998 2.36994
2923.12154 2.36795
2921.07310 2.36418
2919.02466 2.35972
2916.97622 2.35621
2914.92778 2.35650
2912.87934 2.36088
2910.83091 2.36617
2908.78247 2.36856
2906.73403 2.36939
2904.68559 2.37191
2902.63715 2.37407
2900.58871 2.37374
2898.54028 2.37304
2896.49184 2.37335
2894.44340 2.37367
2892.39496 2.37442
2890.34652 2.37552
2888.29808 2.37589
2886.24965 2.37658
2884.20121 2.37715
2882.15277 2.37553
2880.10433 2.37230
2878.05589 2.36853
2876.00745 2.36560
2873.95902 2.36554
2871.91058 2.36760
2869.86214 2.36981
2867.81370 2.37181
2865.76526 2.37385
2863.71682 2.37490
2861.66839 2.37451
2859.61995 2.37518
2857.57151 2.37662
2855.52307 2.37570
2853.47463 2.37443
2851.42619 2.37739
2849.37776 2.38325
2847.32932 2.38539
2845.28088 2.38160
2843.23244 2.37697
2841.18400 2.37690
2839.13556 2.38121
2837.08713 2.38541
2835.03869 2.38878
2832.99025 2.39097
2830.94181 2.38627
2828.89337 2.37809
2826.84493 2.37591
2824.79650 2.37749
2822.74806 2.37861
2820.69962 2.38161
2818.65118 2.38563
2816.60274 2.38531
2814.55430 2.38157
2812.50587 2.38017
2810.45743 2.38084
2808.40899 2.38265
2806.36055 2.38655
2804.31211 2.39026
2802.26367 2.39017
2800.21524 2.38687
2798.16680 2.38614
2796.11836 2.38887
2794.06992 2.38938
2792.02148 2.38697
2789.97304 2.38624
2787.92461 2.38842
2785.87617 2.38961
2783.82773 2.38659
2781.77929 2.38238
2779.73085 2.38077
2777.68241 2.38012
2775.63397 2.37771
2773.58554 2.37617
2771.53710 2.37903
2769.48866 2.38056
2767.44022 2.37844
2765.39178 2.37999
2763.34334 2.38311
2761.29491 2.38210
2759.24647 2.37944
2757.19803 2.37895
2755.14959 2.37983
2753.10115 2.38069
2751.05271 2.38452
2749.00428 2.38844
2746.95584 2.38781
2744.90740 2.38624
2742.85896 2.38568
2740.81052 2.38468
2738.76208 2.38264
2736.71365 2.38203
2734.66521 2.38341
2732.61677 2.38291
2730.56833 2.38037
2728.51989 2.37934
2726.47145 2.38084
2724.42302 2.38212
2722.37458 2.38302
2720.32614 2.38526
2718.27770 2.38713
2716.22926 2.38689
2714.18082 2.38414
2712.13239 2.38088
2710.08395 2.38033
2708.03551 2.38138
2705.98707 2.38116
2703.93863 2.37848
2701.89019 2.37505
2699.84176 2.37449
2697.79332 2.37552
2695.74488 2.37230
2693.69644 2.36498
2691.64800 2.36068
2689.59956 2.36115
2687.55113 2.36296
2685.50269 2.36610
2683.45425 2.37048
2681.40581 2.37264
2679.35737 2.37102
2677.30893 2.36929
2675.26050 2.36835
2673.21206 2.36362
2671.16362 2.35682
2669.11518 2.35455
2667.06674 2.35688
2665.01830 2.36045
2662.96987 2.36198
2660.92143 2.35886
2658.87299 2.35371
2656.82455 2.35176
2654.77611 2.35473
2652.72767 2.35718
2650.67924 2.35571
2648.63080 2.35592
2646.58236 2.35920
2644.53392 2.35940
2642.48548 2.35606
2640.43704 2.35508
2638.38860 2.35811
2636.34017 2.36004
2634.29173 2.35527
2632.24329 2.34829
2630.19485 2.34713
2628.14641 2.35047
2626.09797 2.35227
2624.04954 2.35013
2622.00110 2.34988
2619.95266 2.35383
2617.90422 2.35451
2615.85578 2.35265
2613.80734 2.35352
2611.75891 2.35417
2609.71047 2.35323
2607.66203 2.35281
2605.61359 2.35206
2603.56515 2.35117
2601.51671 2.34996
2599.46828 2.34630
2597.41984 2.34216
2595.37140 2.34127
2593.32296 2.34431
2591.27452 2.34827
2589.22608 2.35147
2587.17765 2.35539
2585.12921 2.36026
2583.08077 2.36156
2581.03233 2.35681
2578.98389 2.35346
2576.93545 2.35451
2574.88702 2.35603
2572.83858 2.35679
2570.79014 2.35630
2568.74170 2.35691
2566.69326 2.36025
2564.64482 2.36243
2562.59639 2.36003
2560.54795 2.35484
2558.49951 2.35162
2556.45107 2.35376
2554.40263 2.35991
2552.35419 2.36547
2550.30576 2.36893
2548.25732 2.37100
2546.20888 2.37030
2544.16044 2.36786
2542.11200 2.36982
2540.06356 2.37530
2538.01513 2.37810
2535.96669 2.38058
2533.91825 2.38284
2531.86981 2.38024
2529.82137 2.37830
2527.77293 2.38316
2525.72450 2.38804
2523.67606 2.38696
2521.62762 2.38624
2519.57918 2.39008
2517.53074 2.39353
2515.48230 2.39176
2513.43387 2.38788
2511.38543 2.38776
2509.33699 2.39014
2507.28855 2.39068
2505.24011 2.39042
2503.19167 2.39243
2501.14324 2.39445
2499.09480 2.39520
2497.04636 2.39631
2494.99792 2.39677
2492.94948 2.39565
2490.90104 2.39208
2488.85260 2.38802
2486.80417 2.38752
2484.75573 2.39060
2482.70729 2.39361
2480.65885 2.39334
2478.61041 2.39282
2476.56197 2.39638
2474.51354 2.40142
2472.46510 2.40525
2470.41666 2.40936
2468.36822 2.41291
2466.31978 2.41306
2464.27134 2.40811
2462.22291 2.40103
2460.17447 2.39746
2458.12603 2.39594
2456.07759 2.39480
2454.02915 2.39814
2451.98071 2.40383
2449.93228 2.40639
2447.88384 2.40568
2445.83540 2.40309
2443.78696 2.40266
2441.73852 2.40650
2439.69008 2.41110
2437.64165 2.41575
2435.59321 2.41918
2433.54477 2.41671
2431.49633 2.41136
2429.44789 2.41263
2427.39945 2.41946
2425.35102 2.42461
2423.30258 2.42829
2421.25414 2.42846
2419.20570 2.42443
2417.15726 2.42324
2415.10882 2.42591
2413.06039 2.42708
2411.01195 2.42687
2408.96351 2.42772
2406.91507 2.42773
2404.86663 2.42451
2402.81819 2.41745
2400.76976 2.41002
2398.72132 2.40500
2396.67288 2.40019
2394.62444 2.39636
2392.57600 2.39637
2390.52756 2.39884
2388.47913 2.40332
2386.43069 2.40779
2384.38225 2.40662
2382.33381 2.40307
2380.28537 2.40218
2378.23693 2.40319
2376.18850 2.40368
2374.14006 2.40007
2372.09162 2.39978
2370.04318 2.40667
2367.99474 2.39898
2365.94630 2.37335
2363.89787 2.36153
2361.84943 2.37164
2359.80099 2.38813
2357.75255 2.39863
2355.70411 2.40581
2353.65567 2.41685
2351.60723 2.41757
2349.55880 2.40463
2347.51036 2.38951
2345.46192 2.38291
2343.41348 2.38240
2341.36504 2.37179
2339.31660 2.36668
2337.26817 2.37981
2335.21973 2.39150
2333.17129 2.39285
2331.12285 2.39438
2329.07441 2.39279
2327.02597 2.38026
2324.97754 2.37451
2322.92910 2.38770
2320.88066 2.39770
2318.83222 2.39000
2316.78378 2.37831
2314.73534 2.36935
2312.68691 2.36062
2310.63847 2.35503
2308.59003 2.35567
2306.54159 2.36047
2304.49315 2.36254
2302.44471 2.35832
2300.39628 2.35709
2298.34784 2.36167
2296.29940 2.36265
2294.25096 2.35795
2292.20252 2.35228
2290.15408 2.34870
2288.10565 2.34951
2286.05721 2.35398
2284.00877 2.35756
2281.96033 2.35852
2279.91189 2.35708
2277.86345 2.35362
2275.81502 2.35082
2273.76658 2.34953
2271.71814 2.34802
2269.66970 2.34784
2267.62126 2.35049
2265.57282 2.35317
2263.52439 2.35582
2261.47595 2.35744
2259.42751 2.35261
2257.37907 2.34516
2255.33063 2.34415
2253.28219 2.34742
2251.23376 2.34751
2249.18532 2.34467
2247.13688 2.34477
2245.08844 2.34839
2243.04000 2.35028
2240.99156 2.35016
2238.94313 2.35159
2236.89469 2.35469
2234.84625 2.35677
2232.79781 2.35792
2230.74937 2.35860
2228.70093 2.35721
2226.65250 2.35670
2224.60406 2.35807
2222.55562 2.35789
2220.50718 2.35574
2218.45874 2.35389
2216.41030 2.35284
2214.36186 2.35022
2212.31343 2.34751
2210.26499 2.34754
2208.21655 2.34998
2206.16811 2.35600
2204.11967 2.36027
2202.07123 2.35419
2200.02280 2.34673
2197.97436 2.34870
2195.92592 2.35436
2193.87748 2.35629
2191.82904 2.35477
2189.78060 2.35235
2187.73217 2.34921
2185.68373 2.34462
2183.63529 2.34182
2181.58685 2.34392
2179.53841 2.34842
2177.48997 2.35189
2175.44154 2.35372
2173.39310 2.35651
2171.34466 2.36147
2169.29622 2.36450
2167.24778 2.36604
2165.19934 2.36818
2163.15091 2.36942
2161.10247 2.37240
2159.05403 2.37834
2157.00559 2.38404
2154.95715 2.38672
2152.90871 2.38610
2150.86028 2.38513
2148.81184 2.38256
2146.76340 2.37730
2144.71496 2.37421
2142.66652 2.37422
2140.61808 2.37634
2138.56965 2.38077
2136.52121 2.38191
2134.47277 2.37583
2132.42433 2.36894
2130.37589 2.36850
2128.32745 2.37259
2126.27902 2.37564
2124.23058 2.37588
2122.18214 2.37328
2120.13370 2.37100
2118.08526 2.37010
2116.03682 2.36839
2113.98839 2.36857
2111.93995 2.37173
2109.89151 2.37705
2107.84307 2.38436
2105.79463 2.38837
2103.74619 2.38857
2101.69776 2.39188
2099.64932 2.39620
2097.60088 2.39776
2095.55244 2.40072
2093.50400 2.40346
2091.45556 2.40191
2089.40713 2.39763
2087.35869 2.39307
2085.31025 2.39131
2083.26181 2.39325
2081.21337 2.39620
2079.16493 2.40014
2077.11649 2.40665
2075.06806 2.41287
2073.01962 2.41644
2070.97118 2.41923
2068.92274 2.42226
2066.87430 2.42398
2064.82586 2.42419
2062.77743 2.42618
2060.72899 2.42971
2058.68055 2.43069
2056.63211 2.43047
2054.58367 2.43202
2052.53523 2.43596
2050.48680 2.44155
2048.43836 2.44432
2046.38992 2.44270
2044.34148 2.43777
2042.29304 2.43229
2040.24460 2.43191
2038.19617 2.43102
2036.14773 2.42369
2034.09929 2.41745
2032.05085 2.41484
2030.00241 2.41201
2027.95397 2.40874
2025.90554 2.40726
2023.85710 2.40849
2021.80866 2.40879
2019.76022 2.40478
2017.71178 2.39732
2015.66334 2.39238
2013.61491 2.39317
2011.56647 2.39496
2009.51803 2.39396
2007.46959 2.38957
2005.42115 2.38627
2003.37271 2.38905
2001.32428 2.39501
1999.27584 2.39571
1997.22740 2.38997
1995.17896 2.38622
1993.13052 2.38783
1991.08208 2.39052
1989.03365 2.38774
1986.98521 2.38209
1984.93677 2.38066
1982.88833 2.38131
1980.83989 2.38037
1978.79145 2.37938
1976.74302 2.37827
1974.69458 2.37402
1972.64614 2.36949
1970.59770 2.37001
1968.54926 2.37249
1966.50082 2.37219
1964.45239 2.37124
1962.40395 2.37067
1960.35551 2.36876
1958.30707 2.36766
1956.25863 2.36958
1954.21019 2.37092
1952.16176 2.37083
1950.11332 2.37181
1948.06488 2.37107
1946.01644 2.36858
1943.96800 2.36807
1941.91956 2.37169
1939.87112 2.37639
1937.82269 2.38032
1935.77425 2.38549
1933.72581 2.38994
1931.67737 2.39331
1929.62893 2.39628
1927.58049 2.39646
1925.53206 2.39363
1923.48362 2.39200
1921.43518 2.39279
1919.38674 2.39551
1917.33830 2.40204
1915.28986 2.40666
1913.24143 2.40715
1911.19299 2.40745
1909.14455 2.40714
1907.09611 2.40596
1905.04767 2.40797
1902.99923 2.41280
1900.95080 2.41742
1898.90236 2.42325
1896.85392 2.43023
1894.80548 2.43639
1892.75704 2.43991
1890.70860 2.44056
1888.66017 2.43916
1886.61173 2.43759
1884.56329 2.43665
1882.51485 2.43369
1880.46641 2.43250
1878.41797 2.43808
1876.36954 2.44410
1874.32110 2.44503
1872.27266 2.44323
1870.22422 2.44326
1868.17578 2.44891
1866.12734 2.45287
1864.07891 2.45185
1862.03047 2.45328
1859.98203 2.45858
1857.93359 2.46129
1855.88515 2.45791
1853.83671 2.45456
1851.78828 2.45673
1849.73984 2.46126
1847.69140 2.46661
1845.64296 2.47443
1843.59452 2.48108
1841.54608 2.48289
1839.49765 2.48283
1837.44921 2.48327
1835.40077 2.48807
1833.35233 2.49674
1831.30389 2.50281
1829.25545 2.50547
1827.20702 2.50837
1825.15858 2.51045
1823.11014 2.50844
1821.06170 2.50593
1819.01326 2.50760
1816.96482 2.50934
1814.91639 2.50909
1812.86795 2.51057
1810.81951 2.51277
1808.77107 2.51216
1806.72263 2.51196
1804.67419 2.51431
1802.62575 2.51595
1800.57732 2.51834
1798.52888 2.52276
1796.48044 2.52500
1794.43200 2.52755
1792.38356 2.53890
1790.33512 2.55369
1788.28669 2.55809
1786.23825 2.55645
1784.18981 2.55698
1782.14137 2.55868
1780.09293 2.55924
1778.04449 2.56146
1775.99606 2.56487
1773.94762 2.56945
1771.89918 2.57229
1769.85074 2.57331
1767.80230 2.57851
1765.75386 2.58236
1763.70543 2.58258
1761.65699 2.58312
1759.60855 2.58098
1757.56011 2.58243
1755.51167 2.59489
1753.46323 2.60646
1751.41480 2.61551
1749.36636 2.62619
1747.31792 2.63146
1745.26948 2.63364
1743.22104 2.63748
1741.17260 2.64040
1739.12417 2.63799
1737.07573 2.63401
1735.02729 2.63366
1732.97885 2.64200
1730.93041 2.64964
1728.88197 2.64493
1726.83354 2.62923
1724.78510 2.61577
1722.73666 2.61351
1720.68822 2.61454
1718.63978 2.61633
1716.59134 2.62218
1714.54291 2.61996
1712.49447 2.61492
1710.44603 2.61491
1708.39759 2.61901
1706.34915 2.62166
1704.30071 2.62168
1702.25228 2.62924
1700.20384 2.64917
1698.15540 2.66064
1696.10696 2.66290
1694.05852 2.66849
1692.01008 2.66830
1689.96165 2.66211
1687.91321 2.65546
1685.86477 2.64783
1683.81633 2.64439
1681.76789 2.65467
1679.71945 2.66581
1677.67102 2.67679
1675.62258 2.69061
1673.57414 2.70069
1671.52570 2.70435
1669.47726 2.70607
1667.42882 2.70387
1665.38038 2.69857
1663.33195 2.69531
1661.28351 2.70103
1659.23507 2.70643
1657.18663 2.70332
1655.13819 2.69748
1653.08975 2.70319
1651.04132 2.70786
1648.99288 2.69965
1646.94444 2.70204
1644.89600 2.71649
1642.84756 2.71694
1640.79912 2.70845
1638.75069 2.69925
1636.70225 2.70454
1634.65381 2.73339
1632.60537 2.74893
1630.55693 2.75236
1628.50849 2.75402
1626.46006 2.75167
1624.41162 2.74507
1622.36318 2.74655
1620.31474 2.75179
1618.26630 2.75278
1616.21786 2.76087
1614.16943 2.76785
1612.12099 2.77206
1610.07255 2.78810
1608.02411 2.80496
1605.97567 2.80160
1603.92723 2.79313
1601.87880 2.79728
1599.83036 2.80682
1597.78192 2.81253
1595.73348 2.81448
1593.68504 2.82173
1591.63660 2.83432
1589.58817 2.83719
1587.53973 2.83348
1585.49129 2.83117
1583.44285 2.83301
1581.39441 2.84310
1579.34597 2.85004
1577.29754 2.84600
1575.24910 2.84480
1573.20066 2.85607
1571.15222 2.86946
1569.10378 2.87560
1567.05534 2.87883
1565.00691 2.89546
1562.95847 2.92034
1560.91003 2.93431
1558.86159 2.92353
1556.81315 2.92436
1554.76471 2.95453
1552.71628 2.97654
1550.66784 2.97862
1548.61940 2.97852
1546.57096 2.97661
1544.52252 2.96700
1542.47408 2.96334
1540.42565 2.99849
1538.37721 3.02863
1536.32877 3.01844
1534.28033 3.00468
1532.23189 3.00037
1530.18345 2.99749
1528.13501 2.99446
1526.08658 3.00428
1524.03814 3.02212
1521.98970 3.01454
1519.94126 2.98174
1517.89282 2.95394
1515.84438 2.93119
1513.79595 2.90294
1511.74751 2.86669
1509.69907 2.83092
1507.65063 2.77142
1505.60219 2.69379
1503.55375 2.65144
1501.50532 2.60918
1499.45688 2.55347
1497.40844 2.48644
1495.36000 2.42503
1493.31156 2.38433
1491.26312 2.34857
1489.21469 2.30245
1487.16625 2.25978
1485.11781 2.23003
1483.06937 2.20455
1481.02093 2.17792
1478.97249 2.15590
1476.92406 2.13997
1474.87562 2.12335
1472.82718 2.10481
1470.77874 2.09094
1468.73030 2.07947
1466.68186 2.06700
1464.63343 2.05509
1462.58499 2.04523
1460.53655 2.03642
1458.48811 2.02647
1456.43967 2.01597
1454.39123 2.00886
1452.34280 2.00209
1450.29436 1.99511
1448.24592 1.98907
1446.19748 1.98475
1444.14904 1.98281
1442.10060 1.98203
1440.05217 1.98037
1438.00373 1.98083
1435.95529 1.98814
1433.90685 1.99639
1431.85841 2.00213
1429.80997 2.00842
1427.76154 2.01419
1425.71310 2.01777
1423.66466 2.02044
1421.61622 2.02071
1419.56778 2.01703
1417.51934 2.01140
1415.47091 2.00358
1413.42247 1.99242
1411.37403 1.97921
1409.32559 1.96459
1407.27715 1.95011
1405.22871 1.93727
1403.18028 1.92633
1401.13184 1.91557
1399.08340 1.90464
1397.03496 1.89650
1394.98652 1.89183
1392.93808 1.89039
1390.88965 1.89084
1388.84121 1.89261
1386.79277 1.89766
1384.74433 1.90524
1382.69589 1.91398
1380.64745 1.92553
1378.59901 1.94024
1376.55058 1.95776
1374.50214 1.97949
1372.45370 2.00324
1370.40526 2.02401
1368.35682 2.04254
1366.30838 2.05817
1364.25995 2.07117
1362.21151 2.08576
1360.16307 2.10056
1358.11463 2.11314
1356.06619 2.12562
1354.01775 2.13794
1351.96932 2.14873
1349.92088 2.15866
1347.87244 2.16708
1345.82400 2.17352
1343.77556 2.17919
1341.72712 2.18559
1339.67869 2.19513
1337.63025 2.20628
1335.58181 2.21379
1333.53337 2.21673
1331.48493 2.21841
1329.43649 2.22339
1327.38806 2.23106
1325.33962 2.23757
1323.29118 2.24245
1321.24274 2.24638
1319.19430 2.24888
1317.14586 2.25075
1315.09743 2.25391
1313.04899 2.25758
1311.00055 2.26068
1308.95211 2.26360
1306.90367 2.26621
1304.85523 2.26843
1302.80680 2.27107
1300.75836 2.27404
1298.70992 2.27532
1296.66148 2.27537
1294.61304 2.27688
1292.56460 2.27891
1290.51617 2.27846
1288.46773 2.27810
1286.41929 2.28161
1284.37085 2.28530
1282.32241 2.28693
1280.27397 2.28947
1278.22554 2.29215
1276.17710 2.29419
1274.12866 2.29799
1272.08022 2.30129
1270.03178 2.30132
1267.98334 2.30188
1265.93491 2.30385
1263.88647 2.30410
1261.83803 2.30597
1259.78959 2.31149
1257.74115 2.31612
1255.69271 2.31886
1253.64428 2.32145
1251.59584 2.32439
1249.54740 2.32769
1247.49896 2.32858
1245.45052 2.32823
1243.40208 2.33378
1241.35364 2.34321
1239.30521 2.34565
1237.25677 2.34024
1235.20833 2.33757
1233.15989 2.34038
1231.11145 2.34393
1229.06301 2.34641
1227.01458 2.34759
1224.96614 2.34943
1222.91770 2.35192
1220.86926 2.35340
1218.82082 2.35573
1216.77238 2.35929
1214.72395 2.36120
1212.67551 2.35899
1210.62707 2.35468
1208.57863 2.35335
1206.53019 2.35631
1204.48175 2.36105
1202.43332 2.36442
1200.38488 2.36670
1198.33644 2.37041
1196.28800 2.37511
1194.23956 2.37992
1192.19112 2.38241
1190.14269 2.38170
1188.09425 2.38198
1186.04581 2.38403
1183.99737 2.38437
1181.94893 2.38394
1179.90049 2.38737
1177.85206 2.39331
1175.80362 2.39703
1173.75518 2.40004
1171.70674 2.40438
1169.65830 2.40618
1167.60986 2.40608
1165.56143 2.40771
1163.51299 2.40637
1161.46455 2.40144
1159.41611 2.39987
1157.36767 2.40037
1155.31923 2.39893
1153.27080 2.39831
1151.22236 2.40042
1149.17392 2.40245
1147.12548 2.40281
1145.07704 2.40410
1143.02860 2.40857
1140.98017 2.41360
1138.93173 2.41497
1136.88329 2.41429
1134.83485 2.41473
1132.78641 2.41601
1130.73797 2.41682
1128.68954 2.41717
1126.64110 2.41823
1124.59266 2.41961
1122.54422 2.42189
1120.49578 2.42505
1118.44734 2.42822
1116.39891 2.43292
1114.35047 2.43683
1112.30203 2.43610
1110.25359 2.43452
1108.20515 2.43571
1106.15671 2.43700
1104.10827 2.43636
1102.05984 2.43525
1100.01140 2.43396
1097.96296 2.43145
1095.91452 2.42783
1093.86608 2.42313
1091.81764 2.42086
1089.76921 2.42358
1087.72077 2.42611
1085.67233 2.42397
1083.62389 2.42047
1081.57545 2.42036
1079.52701 2.42159
1077.47858 2.42117
1075.43014 2.42284
1073.38170 2.42758
1071.33326 2.42868
1069.28482 2.42729
1067.23638 2.43203
1065.18795 2.44319
1063.13951 2.45289
1061.09107 2.45797
1059.04263 2.46317
1056.99419 2.47032
1054.94575 2.44590
1052.89732 2.37120
1050.84888 2.31677
1048.80044 2.32331
1046.75200 2.35600
1044.70356 2.37556
1042.65512 2.37877
1040.60669 2.37866
1038.55825 2.38434
1036.50981 2.39295
1034.46137 2.39686
1032.41293 2.39793
1030.36449 2.40158
1028.31606 2.40418
1026.26762 2.40265
1024.21918 2.40077
1022.17074 2.40364
1020.12230 2.40951
1018.07386 2.41193
1016.02543 2.41059
1013.97699 2.40987
1011.92855 2.41468
1009.88011 2.42409
1007.83167 2.42795
1005.78323 2.42607
1003.73480 2.42822
1001.68636 2.43384
999.63792 2.43770
997.58948 2.43909
995.54104 2.43985
993.49260 2.44252
991.44417 2.44711
989.39573 2.45128
987.34729 2.45252
985.29885 2.45092
983.25041 2.45238
981.20197 2.45826
979.15354 2.45936
977.10510 2.45653
975.05666 2.46067
973.00822 2.46529
970.95978 2.46075
968.91134 2.45428
966.86290 2.45328
964.81447 2.45625
962.76603 2.45895
960.71759 2.46433
958.66915 2.47282
956.62071 2.47652
954.57227 2.47377
952.52384 2.47128
950.47540 2.47155
948.42696 2.47203
946.37852 2.47511
944.33008 2.48163
942.28164 2.48893
940.23321 2.49377
938.18477 2.49222
936.13633 2.48497
934.08789 2.47681
932.03945 2.47417
929.99101 2.47761
927.94258 2.48355
925.89414 2.49297
923.84570 2.50218
921.79726 2.50574
919.74882 2.50903
917.70038 2.51210
915.65195 2.50887
913.60351 2.50456
911.55507 2.50423
909.50663 2.50495
907.45819 2.50312
905.40975 2.50172
903.36132 2.50756
901.31288 2.51155
899.26444 2.50887
897.21600 2.51420
895.16756 2.52531
893.11912 2.53319
891.07069 2.54126
889.02225 2.54751
886.97381 2.54882
884.92537 2.55313
882.87693 2.56243
880.82849 2.56690
878.78006 2.56627
876.73162 2.56327
874.68318 2.55972
872.63474 2.56494
870.58630 2.57820
868.53786 2.58567
866.48943 2.58894
864.44099 2.59655
862.39255 2.60039
860.34411 2.60286
858.29567 2.61953
856.24723 2.64545
854.19880 2.66154
852.15036 2.66412
850.10192 2.65194
848.05348 2.58998
846.00504 2.44074
843.95660 2.26599
841.90817 2.14852
839.85973 2.10872
837.81129 2.13615
835.76285 2.20763
833.71441 2.28313
831.66597 2.33463
829.61753 2.36690
827.56910 2.39530
825.52066 2.41881
823.47222 2.42447
821.42378 2.42866
819.37534 2.44481
817.32690 2.45727
815.27847 2.46288
813.23003 2.47199
811.18159 2.48765
809.13315 2.50779
807.08471 2.52028
805.03627 2.51345
802.98784 2.49961
800.93940 2.49269
798.89096 2.49361
796.84252 2.50155
794.79408 2.51301
792.74564 2.52274
790.69721 2.53090
788.64877 2.54463
786.60033 2.55272
784.55189 2.54344
782.50345 2.52988
780.45501 2.51672
778.40658 2.51357
776.35814 2.52630
774.30970 2.53958
772.26126 2.54394
770.21282 2.54207
768.16438 2.53794
766.11595 2.52681
764.06751 2.51652
762.01907 2.52791
759.97063 2.55785
757.92219 2.58349
755.87375 2.59261
753.82532 2.58052
751.77688 2.55640
749.72844 2.55322
747.68000 2.57546
745.63156 2.57867
743.58312 2.55447
741.53469 2.54667
739.48625 2.55090
737.43781 2.53821
735.38937 2.52801
733.34093 2.53691
731.29249 2.55215
729.24406 2.56907
727.19562 2.58802
725.14718 2.59563
723.09874 2.58023
721.05030 2.55929
719.00186 2.55942
716.95343 2.57540
714.90499 2.58403
712.85655 2.57352
710.80811 2.56265
708.75967 2.57830
706.71123 2.60670
704.66280 2.62098
702.61436 2.63021
700.56592 2.65838
698.51748 2.70415
696.46904 2.74022
694.42060 2.75311
692.37216 2.73476
690.32373 2.71465
688.27529 2.73794
686.22685 2.78212
684.17841 2.72749
682.12997 2.48963
680.08153 2.25592
678.03310 2.15234
675.98466 2.17500
673.93622 2.26568
671.88778 2.35039
669.83934 2.40081
667.79090 2.45390
665.74247 2.49132
663.69403 2.47120
661.64559 2.44194
659.59715 2.45121
657.54871 2.48533
655.50027 2.48718
653.45184 2.45906
651.40340 2.44103
649.35496 2.45475
647.30652 2.56344
645.25808 2.71205
643.20964 2.66441
641.16121 2.56587
639.11277 2.56792
637.06433 2.62472
635.01589 2.66533
632.96745 2.66890
630.91901 2.66884
628.87058 2.63484
626.82214 2.51571
624.77370 2.43245
622.72526 2.46856
620.67682 2.55658
618.62838 2.64698
616.57995 2.76522
614.53151 2.70098
612.48307 2.50622
610.43463 2.37311
608.38619 2.29264
606.33775 2.29047
604.28932 2.39212
602.24088 2.46374
600.19244 2.37576
598.14400 2.31407
