3996.50324 1.54788
3994.45480 1.54694
3992.40636 1.54576
3990.35792 1.54548
3988.30948 1.54582
3986.26104 1.54607
3984.21261 1.54615
3982.16417 1.54629
3980.11573 1.54601
3978.06729 1.54517
3976.01885 1.54489
3973.97041 1.54535
3971.92198 1.54535
3969.87354 1.54524
3967.82510 1.54542
3965.77666 1.54511
3963.72822 1.54466
3961.67978 1.54523
3959.63135 1.54580
3957.58291 1.54499
3955.53447 1.54369
3953.48603 1.54273
3951.43759 1.54253
3949.38915 1.54342
3947.34072 1.54452
3945.29228 1.54434
3943.24384 1.54401
3941.19540 1.54504
3939.14696 1.54623
3937.09852 1.54665
3935.05009 1.54585
3933.00165 1.54504
3930.95321 1.54615
3928.90477 1.54724
3926.85633 1.54658
3924.80789 1.54536
3922.75946 1.54506
3920.71102 1.54605
3918.66258 1.54784
3916.61414 1.54883
3914.56570 1.54808
3912.51726 1.54714
3910.46883 1.54693
3908.42039 1.54633
3906.37195 1.54514
3904.32351 1.54441
3902.27507 1.54482
3900.22663 1.54651
3898.17820 1.54810
3896.12976 1.54799
3894.08132 1.54757
3892.03288 1.54955
3889.98444 1.55154
3887.93600 1.54999
3885.88756 1.54875
3883.83913 1.54942
3881.79069 1.54962
3879.74225 1.55108
3877.69381 1.55164
3875.64537 1.54975
3873.59693 1.54739
3871.54850 1.54652
3869.50006 1.54886
3867.45162 1.55082
3865.40318 1.55072
3863.35474 1.55107
3861.30630 1.55161
3859.25787 1.55151
3857.20943 1.55073
3855.16099 1.54923
3853.11255 1.55113
3851.06411 1.55568
3849.01567 1.55596
3846.96724 1.55359
3844.91880 1.55110
3842.87036 1.54914
3840.82192 1.54635
3838.77348 1.54562
3836.72504 1.54932
3834.67661 1.55176
3832.62817 1.55238
3830.57973 1.55324
3828.53129 1.55391
3826.48285 1.55411
3824.43441 1.55332
3822.38598 1.55228
3820.33754 1.55318
3818.28910 1.55304
3816.24066 1.55316
3814.19222 1.55521
3812.14378 1.55483
3810.09535 1.55203
3808.04691 1.55023
3805.99847 1.55115
3803.95003 1.55121
3801.90159 1.55242
3799.85315 1.55618
3797.80472 1.55739
3795.75628 1.55752
3793.70784 1.55737
3791.65940 1.55607
3789.61096 1.55421
3787.56252 1.55318
3785.51409 1.55385
3783.46565 1.55477
3781.41721 1.55510
3779.36877 1.55615
3777.32033 1.55679
3775.27189 1.55608
3773.22346 1.55481
3771.17502 1.55442
3769.12658 1.55572
3767.07814 1.55582
3765.02970 1.55523
3762.98126 1.55543
3760.93283 1.55533
3758.88439 1.55551
3756.83595 1.55620
3754.78751 1.55560
3752.73907 1.55368
3750.69063 1.55289
3748.64219 1.55139
3746.59376 1.54777
3744.54532 1.54809
3742.49688 1.55129
3740.44844 1.55066
3738.40000 1.54858
3736.35156 1.54866
3734.30313 1.55272
3732.25469 1.55651
3730.20625 1.55633
3728.15781 1.55437
3726.10937 1.55353
3724.06093 1.55378
3722.01250 1.55427
3719.96406 1.55518
3717.91562 1.55541
3715.86718 1.55305
3713.81874 1.54820
3711.77030 1.54595
3709.72187 1.55043
3707.67343 1.55453
3705.62499 1.55503
3703.57655 1.55373
3701.52811 1.55453
3699.47967 1.55726
3697.43124 1.55764
3695.38280 1.55571
3693.33436 1.55326
3691.28592 1.55202
3689.23748 1.55417
3687.18904 1.55555
3685.14061 1.55446
3683.09217 1.55335
3681.04373 1.55181
3678.99529 1.54938
3676.94685 1.54822
3674.89841 1.55063
3672.84998 1.55058
3670.80154 1.54952
3668.75310 1.55244
3666.70466 1.55462
3664.65622 1.55454
3662.60778 1.55375
3660.55935 1.55273
3658.51091 1.55202
3656.46247 1.55264
3654.41403 1.55262
3652.36559 1.54923
3650.31715 1.54568
3648.26872 1.54874
3646.22028 1.55298
3644.17184 1.55419
3642.12340 1.55478
3640.07496 1.55475
3638.02652 1.55337
3635.97809 1.55183
3633.92965 1.55050
3631.88121 1.54812
3629.83277 1.54560
3627.78433 1.54715
3625.73589 1.54935
3623.68746 1.54934
3621.63902 1.54851
3619.59058 1.54899
3617.54214 1.55074
3615.49370 1.55105
3613.44526 1.55093
3611.39682 1.55032
3609.34839 1.54936
3607.29995 1.55014
3605.25151 1.55141
3603.20307 1.55163
3601.15463 1.55145
3599.10619 1.55115
3597.05776 1.55125
3595.00932 1.55332
3592.96088 1.55498
3590.91244 1.55256
3588.86400 1.54975
3586.81556 1.55267
3584.76713 1.55563
3582.71869 1.55474
3580.67025 1.55463
3578.62181 1.55578
3576.57337 1.55598
3574.52493 1.55641
3572.47650 1.55680
3570.42806 1.55481
3568.37962 1.55166
3566.33118 1.55174
3564.28274 1.55405
3562.23430 1.55530
3560.18587 1.55602
3558.13743 1.55595
3556.08899 1.55477
3554.04055 1.55409
3551.99211 1.55507
3549.94367 1.55498
3547.89524 1.55343
3545.84680 1.55432
3543.79836 1.55668
3541.74992 1.55787
3539.70148 1.55854
3537.65304 1.55840
3535.60461 1.55784
3533.55617 1.55760
3531.50773 1.55730
3529.45929 1.55741
3527.41085 1.55813
3525.36241 1.55837
3523.31398 1.55832
3521.26554 1.55867
3519.21710 1.55876
3517.16866 1.55834
3515.12022 1.55864
3513.07178 1.55922
3511.02335 1.55873
3508.97491 1.55804
3506.92647 1.55780
3504.87803 1.55794
3502.82959 1.55893
3500.78115 1.55993
3498.73272 1.56073
3496.68428 1.56170
3494.63584 1.56161
3492.58740 1.56029
3490.53896 1.55911
3488.49052 1.55886
3486.44209 1.55971
3484.39365 1.56067
3482.34521 1.56068
3480.29677 1.56031
3478.24833 1.56058
3476.19989 1.56133
3474.15146 1.56181
3472.10302 1.56140
3470.05458 1.56062
3468.00614 1.56079
3465.95770 1.56206
3463.90926 1.56346
3461.86082 1.56405
3459.81239 1.56308
3457.76395 1.56158
3455.71551 1.56131
3453.66707 1.56199
3451.61863 1.56283
3449.57019 1.56340
3447.52176 1.56378
3445.47332 1.56467
3443.42488 1.56553
3441.37644 1.56552
3439.32800 1.56481
3437.27956 1.56428
3435.23113 1.56452
3433.18269 1.56499
3431.13425 1.56501
3429.08581 1.56446
3427.03737 1.56397
3424.98893 1.56407
3422.94050 1.56420
3420.89206 1.56399
3418.84362 1.56384
3416.79518 1.56397
3414.74674 1.56419
3412.69830 1.56415
3410.64987 1.56454
3408.60143 1.56563
3406.55299 1.56567
3404.50455 1.56469
3402.45611 1.56446
3400.40767 1.56433
3398.35924 1.56403
3396.31080 1.56518
3394.26236 1.56651
3392.21392 1.56597
3390.16548 1.56494
3388.11704 1.56495
3386.06861 1.56494
3384.02017 1.56455
3381.97173 1.56461
3379.92329 1.56486
3377.87485 1.56514
3375.82641 1.56508
3373.77798 1.56440
3371.72954 1.56395
3369.68110 1.56370
3367.63266 1.56302
3365.58422 1.56227
3363.53578 1.56209
3361.48735 1.56275
3359.43891 1.56360
3357.39047 1.56359
3355.34203 1.56369
3353.29359 1.56453
3351.24515 1.56459
3349.19672 1.56395
3347.14828 1.56369
3345.09984 1.56396
3343.05140 1.56440
3341.00296 1.56433
3338.95452 1.56423
3336.90609 1.56508
3334.85765 1.56655
3332.80921 1.56727
3330.76077 1.56641
3328.71233 1.56453
3326.66389 1.56302
3324.61545 1.56318
3322.56702 1.56399
3320.51858 1.56371
3318.47014 1.56346
3316.42170 1.56409
3314.37326 1.56427
3312.32482 1.56392
3310.27639 1.56421
3308.22795 1.56502
3306.17951 1.56509
3304.13107 1.56436
3302.08263 1.56402
3300.03419 1.56437
3297.98576 1.56476
3295.93732 1.56517
3293.88888 1.56522
3291.84044 1.56459
3289.79200 1.56456
3287.74356 1.56502
3285.69513 1.56521
3283.64669 1.56581
3281.59825 1.56654
3279.54981 1.56650
3277.50137 1.56577
3275.45293 1.56539
3273.40450 1.56593
3271.35606 1.56625
3269.30762 1.56595
3267.25918 1.56597
3265.21074 1.56615
3263.16230 1.56595
3261.11387 1.56571
3259.06543 1.56623
3257.01699 1.56729
3254.96855 1.56700
3252.92011 1.56577
3250.87167 1.56584
3248.82324 1.56688
3246.77480 1.56740
3244.72636 1.56727
3242.67792 1.56756
3240.62948 1.56869
3238.58104 1.56928
3236.53261 1.56790
3234.48417 1.56582
3232.43573 1.56538
3230.38729 1.56622
3228.33885 1.56678
3226.29041 1.56664
3224.24198 1.56636
3222.19354 1.56682
3220.14510 1.56796
3218.09666 1.56851
3216.04822 1.56824
3213.99978 1.56848
3211.95135 1.56920
3209.90291 1.56949
3207.85447 1.56968
3205.80603 1.56997
3203.75759 1.56975
3201.70915 1.56912
3199.66072 1.56908
3197.61228 1.56973
3195.56384 1.57022
3193.51540 1.57006
3191.46696 1.56980
3189.41852 1.57033
3187.37008 1.57113
3185.32165 1.57122
3183.27321 1.57087
3181.22477 1.57047
3179.17633 1.56989
3177.12789 1.56938
3175.07945 1.56930
3173.03102 1.56974
3170.98258 1.57032
3168.93414 1.57058
3166.88570 1.57080
3164.83726 1.57149
3162.78882 1.57211
3160.74039 1.57209
3158.69195 1.57175
3156.64351 1.57148
3154.59507 1.57140
3152.54663 1.57171
3150.49819 1.57236
3148.44976 1.57252
3146.40132 1.57223
3144.35288 1.57256
3142.30444 1.57326
3140.25600 1.57323
3138.20756 1.57233
3136.15913 1.57115
3134.11069 1.57095
3132.06225 1.57202
3130.01381 1.57273
3127.96537 1.57272
3125.91693 1.57303
3123.86850 1.57357
3121.82006 1.57357
3119.77162 1.57348
3117.72318 1.57395
3115.67474 1.57455
3113.62630 1.57480
3111.57787 1.57477
3109.52943 1.57483
3107.48099 1.57488
3105.43255 1.57493
3103.38411 1.57482
3101.33567 1.57443
3099.28724 1.57454
3097.23880 1.57484
3095.19036 1.57457
3093.14192 1.57422
3091.09348 1.57463
3089.04504 1.57568
3086.99661 1.57607
3084.94817 1.57548
3082.89973 1.57510
3080.85129 1.57524
3078.80285 1.57520
3076.75441 1.57491
3074.70598 1.57462
3072.65754 1.57453
3070.60910 1.57468
3068.56066 1.57483
3066.51222 1.57518
3064.46378 1.57579
3062.41535 1.57616
3060.36691 1.57581
3058.31847 1.57492
3056.27003 1.57458
3054.22159 1.57516
3052.17315 1.57601
3050.12471 1.57667
3048.07628 1.57666
3046.02784 1.57590
3043.97940 1.57574
3041.93096 1.57720
3039.88252 1.57877
3037.83408 1.57890
3035.78565 1.57831
3033.73721 1.57795
3031.68877 1.57765
3029.64033 1.57725
3027.59189 1.57758
3025.54345 1.57841
3023.49502 1.57858
3021.44658 1.57848
3019.39814 1.57868
3017.34970 1.57857
3015.30126 1.57811
3013.25282 1.57826
3011.20439 1.57889
3009.15595 1.57866
3007.10751 1.57803
3005.05907 1.57875
3003.01063 1.58031
3000.96219 1.58128
2998.91376 1.58153
2996.86532 1.58112
2994.81688 1.58036
2992.76844 1.57984
2990.72000 1.57994
2988.67156 1.58026
2986.62313 1.58020
2984.57469 1.58009
2982.52625 1.58054
2980.47781 1.58164
2978.42937 1.58259
2976.38093 1.58239
2974.33250 1.58158
2972.28406 1.58140
2970.23562 1.58189
2968.18718 1.58239
2966.13874 1.58281
2964.09030 1.58309
2962.04187 1.58307
2959.99343 1.58315
2957.94499 1.58327
2955.89655 1.58297
2953.84811 1.58284
2951.79967 1.58323
2949.75124 1.58354
2947.70280 1.58363
2945.65436 1.58369
2943.60592 1.58360
2941.55748 1.58372
2939.50904 1.58402
2937.46061 1.58394
2935.41217 1.58392
2933.36373 1.58396
2931.31529 1.58366
2929.26685 1.58342
2927.21841 1.58334
2925.16998 1.58346
2923.12154 1.58335
2921.07310 1.58263
2919.02466 1.58222
2916.97622 1.58282
2914.92778 1.58405
2912.87934 1.58497
2910.83091 1.58477
2908.78247 1.58419
2906.73403 1.58459
2904.68559 1.58578
2902.63715 1.58643
2900.58871 1.58593
2898.54028 1.58523
2896.49184 1.58545
2894.44340 1.58676
2892.39496 1.58807
2890.34652 1.58794
2888.29808 1.58676
2886.24965 1.58605
2884.20121 1.58626
2882.15277 1.58680
2880.10433 1.58729
2878.05589 1.58771
2876.00745 1.58771
2873.95902 1.58746
2871.91058 1.58757
2869.86214 1.58818
2867.81370 1.58905
2865.76526 1.58926
2863.71682 1.58861
2861.66839 1.58849
2859.61995 1.58899
2857.57151 1.58883
2855.52307 1.58810
2853.47463 1.58804
2851.42619 1.58873
2849.37776 1.58890
2847.32932 1.58848
2845.28088 1.58846
2843.23244 1.58871
2841.18400 1.58913
2839.13556 1.58981
2837.08713 1.59001
2835.03869 1.58981
2832.99025 1.58998
2830.94181 1.59011
2828.89337 1.58987
2826.84493 1.58988
2824.79650 1.59031
2822.74806 1.59056
2820.69962 1.59063
2818.65118 1.59126
2816.60274 1.59221
2814.55430 1.59233
2812.50587 1.59146
2810.45743 1.59117
2808.40899 1.59171
2806.36055 1.59188
2804.31211 1.59203
2802.26367 1.59263
2800.21524 1.59280
2798.16680 1.59200
2796.11836 1.59104
2794.06992 1.59075
2792.02148 1.59078
2789.97304 1.59078
2787.92461 1.59110
2785.87617 1.59145
2783.82773 1.59146
2781.77929 1.59192
2779.73085 1.59269
2777.68241 1.59260
2775.63397 1.59197
2773.58554 1.59181
2771.53710 1.59210
2769.48866 1.59195
2767.44022 1.59146
2765.39178 1.59181
2763.34334 1.59252
2761.29491 1.59275
2759.24647 1.59317
2757.19803 1.59332
2755.14959 1.59247
2753.10115 1.59176
2751.05271 1.59208
2749.00428 1.59272
2746.95584 1.59297
2744.90740 1.59326
2742.85896 1.59380
2740.81052 1.59392
2738.76208 1.59300
2736.71365 1.59190
2734.66521 1.59231
2732.61677 1.59359
2730.56833 1.59383
2728.51989 1.59341
2726.47145 1.59314
2724.42302 1.59284
2722.37458 1.59279
2720.32614 1.59338
2718.27770 1.59404
2716.22926 1.59435
2714.18082 1.59459
2712.13239 1.59456
2710.08395 1.59403
2708.03551 1.59351
2705.98707 1.59365
2703.93863 1.59385
2701.89019 1.59337
2699.84176 1.59301
2697.79332 1.59332
2695.74488 1.59374
2693.69644 1.59384
2691.64800 1.59364
2689.59956 1.59367
2687.55113 1.59419
2685.50269 1.59459
2683.45425 1.59505
2681.40581 1.59594
2679.35737 1.59670
2677.30893 1.59679
2675.26050 1.59590
2673.21206 1.59503
2671.16362 1.59572
2669.11518 1.59691
2667.06674 1.59709
2665.01830 1.59709
2662.96987 1.59693
2660.92143 1.59623
2658.87299 1.59620
2656.82455 1.59696
2654.77611 1.59711
2652.72767 1.59680
2650.67924 1.59691
2648.63080 1.59694
2646.58236 1.59669
2644.53392 1.59668
2642.48548 1.59691
2640.43704 1.59725
2638.38860 1.59781
2636.34017 1.59818
2634.29173 1.59777
2632.24329 1.59694
2630.19485 1.59678
2628.14641 1.59729
2626.09797 1.59755
2624.04954 1.59726
2622.00110 1.59670
2619.95266 1.59692
2617.90422 1.59812
2615.85578 1.59900
2613.80734 1.59924
2611.75891 1.59925
2609.71047 1.59914
2607.66203 1.59926
2605.61359 1.59999
2603.56515 1.60077
2601.51671 1.60089
2599.46828 1.60073
2597.41984 1.60061
2595.37140 1.60074
2593.32296 1.60126
2591.27452 1.60162
2589.22608 1.60198
2587.17765 1.60273
2585.12921 1.60299
2583.08077 1.60266
2581.03233 1.60279
2578.98389 1.60293
2576.93545 1.60221
2574.88702 1.60155
2572.83858 1.60153
2570.79014 1.60145
2568.74170 1.60147
2566.69326 1.60189
2564.64482 1.60228
2562.59639 1.60286
2560.54795 1.60373
2558.49951 1.60412
2556.45107 1.60418
2554.40263 1.60409
2552.35419 1.60340
2550.30576 1.60286
2548.25732 1.60328
2546.20888 1.60440
2544.16044 1.60534
2542.11200 1.60555
2540.06356 1.60554
2538.01513 1.60548
2535.96669 1.60504
2533.91825 1.60470
2531.86981 1.60516
2529.82137 1.60608
2527.77293 1.60664
2525.72450 1.60666
2523.67606 1.60609
2521.62762 1.60536
2519.57918 1.60575
2517.53074 1.60705
2515.48230 1.60745
2513.43387 1.60694
2511.38543 1.60682
2509.33699 1.60711
2507.28855 1.60736
2505.24011 1.60742
2503.19167 1.60757
2501.14324 1.60797
2499.09480 1.60802
2497.04636 1.60789
2494.99792 1.60782
2492.94948 1.60781
2490.90104 1.60813
2488.85260 1.60856
2486.80417 1.60897
2484.75573 1.60936
2482.70729 1.60923
2480.65885 1.60821
2478.61041 1.60718
2476.56197 1.60742
2474.51354 1.60834
2472.46510 1.60861
2470.41666 1.60876
2468.36822 1.60951
2466.31978 1.60998
2464.27134 1.60986
2462.22291 1.60941
2460.17447 1.60895
2458.12603 1.60967
2456.07759 1.61118
2454.02915 1.61188
2451.98071 1.61183
2449.93228 1.61172
2447.88384 1.61175
2445.83540 1.61236
2443.78696 1.61337
2441.73852 1.61376
2439.69008 1.61337
2437.64165 1.61284
2435.59321 1.61264
2433.54477 1.61302
2431.49633 1.61380
2429.44789 1.61474
2427.39945 1.61520
2425.35102 1.61473
2423.30258 1.61413
2421.25414 1.61416
2419.20570 1.61476
2417.15726 1.61504
2415.10882 1.61415
2413.06039 1.61239
2411.01195 1.61028
2408.96351 1.60809
2406.91507 1.60627
2404.86663 1.60533
2402.81819 1.60504
2400.76976 1.60478
2398.72132 1.60456
2396.67288 1.60490
2394.62444 1.60628
2392.57600 1.60815
2390.52756 1.60849
2388.47913 1.60718
2386.43069 1.60662
2384.38225 1.60736
2382.33381 1.60820
2380.28537 1.60850
2378.23693 1.60826
2376.18850 1.60837
2374.14006 1.60992
2372.09162 1.61258
2370.04318 1.61369
2367.99474 1.61206
2365.94630 1.60978
2363.89787 1.60784
2361.84943 1.60578
2359.80099 1.60617
2357.75255 1.61045
2355.70411 1.61481
2353.65567 1.61680
2351.60723 1.61595
2349.55880 1.61456
2347.51036 1.61377
2345.46192 1.61250
2343.41348 1.61188
2341.36504 1.61354
2339.31660 1.61565
2337.26817 1.61721
2335.21973 1.61800
2333.17129 1.61772
2331.12285 1.61728
2329.07441 1.61873
2327.02597 1.62129
2324.97754 1.62203
2322.92910 1.62112
2320.88066 1.62027
2318.83222 1.61997
2316.78378 1.62003
2314.73534 1.62020
2312.68691 1.62054
2310.63847 1.62080
2308.59003 1.62050
2306.54159 1.62033
2304.49315 1.62128
2302.44471 1.62246
2300.39628 1.62240
2298.34784 1.62146
2296.29940 1.62084
2294.25096 1.62054
2292.20252 1.62052
2290.15408 1.62118
2288.10565 1.62214
2286.05721 1.62260
2284.00877 1.62245
2281.96033 1.62246
2279.91189 1.62281
2277.86345 1.62308
2275.81502 1.62304
2273.76658 1.62254
2271.71814 1.62196
2269.66970 1.62216
2267.62126 1.62333
2265.57282 1.62441
2263.52439 1.62460
2261.47595 1.62443
2259.42751 1.62462
2257.37907 1.62520
2255.33063 1.62560
2253.28219 1.62555
2251.23376 1.62581
2249.18532 1.62678
2247.13688 1.62769
2245.08844 1.62775
2243.04000 1.62700
2240.99156 1.62654
2238.94313 1.62664
2236.89469 1.62680
2234.84625 1.62740
2232.79781 1.62844
2230.74937 1.62943
2228.70093 1.63018
2226.65250 1.63046
2224.60406 1.63025
2222.55562 1.62992
2220.50718 1.62977
2218.45874 1.62976
2216.41030 1.63037
2214.36186 1.63138
2212.31343 1.63127
2210.26499 1.63069
2208.21655 1.63133
2206.16811 1.63248
2204.11967 1.63296
2202.07123 1.63307
2200.02280 1.63366
2197.97436 1.63418
2195.92592 1.63402
2193.87748 1.63366
2191.82904 1.63342
2189.78060 1.63368
2187.73217 1.63428
2185.68373 1.63454
2183.63529 1.63456
2181.58685 1.63455
2179.53841 1.63466
2177.48997 1.63515
2175.44154 1.63572
2173.39310 1.63604
2171.34466 1.63632
2169.29622 1.63692
2167.24778 1.63736
2165.19934 1.63772
2163.15091 1.63844
2161.10247 1.63872
2159.05403 1.63892
2157.00559 1.63960
2154.95715 1.63993
2152.90871 1.64004
2150.86028 1.64026
2148.81184 1.64022
2146.76340 1.64016
2144.71496 1.64055
2142.66652 1.64097
2140.61808 1.64113
2138.56965 1.64115
2136.52121 1.64140
2134.47277 1.64216
2132.42433 1.64226
2130.37589 1.64183
2128.32745 1.64231
2126.27902 1.64316
2124.23058 1.64341
2122.18214 1.64361
2120.13370 1.64444
2118.08526 1.64529
2116.03682 1.64542
2113.98839 1.64541
2111.93995 1.64577
2109.89151 1.64617
2107.84307 1.64681
2105.79463 1.64768
2103.74619 1.64800
2101.69776 1.64764
2099.64932 1.64750
2097.60088 1.64806
2095.55244 1.64874
2093.50400 1.64968
2091.45556 1.65117
2089.40713 1.65182
2087.35869 1.65146
2085.31025 1.65154
2083.26181 1.65186
2081.21337 1.65179
2079.16493 1.65153
2077.11649 1.65142
2075.06806 1.65188
2073.01962 1.65245
2070.97118 1.65240
2068.92274 1.65210
2066.87430 1.65263
2064.82586 1.65408
2062.77743 1.65465
2060.72899 1.65418
2058.68055 1.65426
2056.63211 1.65445
2054.58367 1.65397
2052.53523 1.65387
2050.48680 1.65471
2048.43836 1.65574
2046.38992 1.65631
2044.34148 1.65671
2042.29304 1.65700
2040.24460 1.65736
2038.19617 1.65862
2036.14773 1.65986
2034.09929 1.65969
2032.05085 1.65922
2030.00241 1.65964
2027.95397 1.66020
2025.90554 1.66000
2023.85710 1.65991
2021.80866 1.66100
2019.76022 1.66235
2017.71178 1.66309
2015.66334 1.66339
2013.61491 1.66329
2011.56647 1.66305
2009.51803 1.66339
2007.46959 1.66402
2005.42115 1.66419
2003.37271 1.66420
2001.32428 1.66447
1999.27584 1.66471
1997.22740 1.66468
1995.17896 1.66467
1993.13052 1.66532
1991.08208 1.66637
1989.03365 1.66667
1986.98521 1.66678
1984.93677 1.66763
1982.88833 1.66862
1980.83989 1.66916
1978.79145 1.66936
1976.74302 1.66927
1974.69458 1.66870
1972.64614 1.66834
1970.59770 1.66853
1968.54926 1.66874
1966.50082 1.66944
1964.45239 1.67054
1962.40395 1.67112
1960.35551 1.67112
1958.30707 1.67110
1956.25863 1.67136
1954.21019 1.67155
1952.16176 1.67145
1950.11332 1.67188
1948.06488 1.67313
1946.01644 1.67375
1943.96800 1.67342
1941.91956 1.67379
1939.87112 1.67508
1937.82269 1.67596
1935.77425 1.67618
1933.72581 1.67620
1931.67737 1.67641
1929.62893 1.67716
1927.58049 1.67800
1925.53206 1.67823
1923.48362 1.67842
1921.43518 1.67897
1919.38674 1.67951
1917.33830 1.68025
1915.28986 1.68107
1913.24143 1.68197
1911.19299 1.68321
1909.14455 1.68439
1907.09611 1.68489
1905.04767 1.68484
1902.99923 1.68537
1900.95080 1.68638
1898.90236 1.68709
1896.85392 1.68767
1894.80548 1.68823
1892.75704 1.68818
1890.70860 1.68759
1888.66017 1.68805
1886.61173 1.68948
1884.56329 1.69077
1882.51485 1.69143
1880.46641 1.69121
1878.41797 1.69115
1876.36954 1.69161
1874.32110 1.69187
1872.27266 1.69176
1870.22422 1.69150
1868.17578 1.69184
1866.12734 1.69330
1864.07891 1.69508
1862.03047 1.69694
1859.98203 1.69868
1857.93359 1.69983
1855.88515 1.70011
1853.83671 1.70012
1851.78828 1.70058
1849.73984 1.70088
1847.69140 1.70065
1845.64296 1.70093
1843.59452 1.70276
1841.54608 1.70441
1839.49765 1.70523
1837.44921 1.70646
1835.40077 1.70744
1833.35233 1.70698
1831.30389 1.70589
1829.25545 1.70583
1827.20702 1.70663
1825.15858 1.70761
1823.11014 1.70926
1821.06170 1.71084
1819.01326 1.71146
1816.96482 1.71171
1814.91639 1.71235
1812.86795 1.71334
1810.81951 1.71457
1808.77107 1.71510
1806.72263 1.71481
1804.67419 1.71443
1802.62575 1.71475
1800.57732 1.71664
1798.52888 1.71837
1796.48044 1.71888
1794.43200 1.71891
1792.38356 1.71901
1790.33512 1.72073
1788.28669 1.72278
1786.23825 1.72397
1784.18981 1.72487
1782.14137 1.72579
1780.09293 1.72706
1778.04449 1.72842
1775.99606 1.72905
1773.94762 1.72880
1771.89918 1.72910
1769.85074 1.73117
1767.80230 1.73318
1765.75386 1.73439
1763.70543 1.73528
1761.65699 1.73712
1759.60855 1.73938
1757.56011 1.74143
1755.51167 1.74392
1753.46323 1.74602
1751.41480 1.74854
1749.36636 1.75227
1747.31792 1.75490
1745.26948 1.75481
1743.22104 1.75181
1741.17260 1.74722
1739.12417 1.74350
1737.07573 1.74137
1735.02729 1.74119
1732.97885 1.74281
1730.93041 1.73994
1728.88197 1.73289
1726.83354 1.72638
1724.78510 1.72431
1722.73666 1.72708
1720.68822 1.72983
1718.63978 1.73035
1716.59134 1.73306
1714.54291 1.73864
1712.49447 1.74271
1710.44603 1.74538
1708.39759 1.74660
1706.34915 1.74658
1704.30071 1.74695
1702.25228 1.74778
1700.20384 1.75027
1698.15540 1.75429
1696.10696 1.75828
1694.05852 1.76234
1692.01008 1.76451
1689.96165 1.76591
1687.91321 1.76644
1685.86477 1.76690
1683.81633 1.77161
1681.76789 1.77596
1679.71945 1.77722
1677.67102 1.77779
1675.62258 1.77821
1673.57414 1.77884
1671.52570 1.77962
1669.47726 1.78263
1667.42882 1.78692
1665.38038 1.78829
1663.33195 1.78837
1661.28351 1.79067
1659.23507 1.79355
1657.18663 1.79392
1655.13819 1.79237
1653.08975 1.79647
1651.04132 1.80383
1648.99288 1.80489
1646.94444 1.80671
1644.89600 1.81192
1642.84756 1.81492
1640.79912 1.81651
1638.75069 1.81677
1636.70225 1.81675
1634.65381 1.82181
1632.60537 1.82717
1630.55693 1.82989
1628.50849 1.83135
1626.46006 1.83235
1624.41162 1.83521
1622.36318 1.84094
1620.31474 1.84476
1618.26630 1.84688
1616.21786 1.85021
1614.16943 1.85446
1612.12099 1.85881
1610.07255 1.86324
1608.02411 1.86712
1605.97567 1.86945
1603.92723 1.87141
1601.87880 1.87487
1599.83036 1.87964
1597.78192 1.88387
1595.73348 1.88811
1593.68504 1.89279
1591.63660 1.89716
1589.58817 1.90088
1587.53973 1.90513
1585.49129 1.91103
1583.44285 1.91748
1581.39441 1.92304
1579.34597 1.92625
1577.29754 1.92959
1575.24910 1.93683
1573.20066 1.94435
1571.15222 1.95012
1569.10378 1.95610
1567.05534 1.96182
1565.00691 1.96785
1562.95847 1.97235
1560.91003 1.97334
1558.86159 1.98080
1556.81315 1.99369
1554.76471 2.00125
1552.71628 2.00860
1550.66784 2.01761
1548.61940 2.02569
1546.57096 2.03196
1544.52252 2.03807
1542.47408 2.04418
1540.42565 2.05566
1538.37721 2.07018
1536.32877 2.07738
1534.28033 2.08461
1532.23189 2.09666
1530.18345 2.10210
1528.13501 2.10496
1526.08658 2.11009
1524.03814 2.11409
1521.98970 2.11107
1519.94126 2.10679
1517.89282 2.09820
1515.84438 2.07551
1513.79595 2.04835
1511.74751 2.01675
1509.69907 1.97803
1507.65063 1.90278
1505.60219 1.79900
1503.55375 1.73854
1501.50532 1.68527
1499.45688 1.62013
1497.40844 1.54190
1495.36000 1.47140
1493.31156 1.42500
1491.26312 1.38319
1489.21469 1.33215
1487.16625 1.28952
1485.11781 1.26033
1483.06937 1.23600
1481.02093 1.21305
1478.97249 1.19346
1476.92406 1.17671
1474.87562 1.16046
1472.82718 1.14332
1470.77874 1.12839
1468.73030 1.11771
1466.68186 1.10684
1464.63343 1.09427
1462.58499 1.08367
1460.53655 1.07564
1458.48811 1.06655
1456.43967 1.05551
1454.39123 1.04791
1452.34280 1.04202
1450.29436 1.03606
1448.24592 1.03038
1446.19748 1.02611
1444.14904 1.02332
1442.10060 1.02154
1440.05217 1.02072
1438.00373 1.02208
1435.95529 1.02710
1433.90685 1.03263
1431.85841 1.03762
1429.80997 1.04403
1427.76154 1.04991
1425.71310 1.05359
1423.66466 1.05584
1421.61622 1.05609
1419.56778 1.05341
1417.51934 1.04728
1415.47091 1.03928
1413.42247 1.02939
1411.37403 1.01725
1409.32559 1.00379
1407.27715 0.99019
1405.22871 0.97627
1403.18028 0.96401
1401.13184 0.95475
1399.08340 0.94689
1397.03496 0.94071
1394.98652 0.93697
1392.93808 0.93527
1390.88965 0.93458
1388.84121 0.93538
1386.79277 0.93935
1384.74433 0.94611
1382.69589 0.95481
1380.64745 0.96684
1378.59901 0.98241
1376.55058 1.00067
1374.50214 1.02284
1372.45370 1.04585
1370.40526 1.06504
1368.35682 1.08299
1366.30838 1.09952
1364.25995 1.11450
1362.21151 1.13093
1360.16307 1.14636
1358.11463 1.15885
1356.06619 1.17036
1354.01775 1.18184
1351.96932 1.19274
1349.92088 1.20312
1347.87244 1.21308
1345.82400 1.22228
1343.77556 1.23031
1341.72712 1.23737
1339.67869 1.24458
1337.63025 1.25202
1335.58181 1.25866
1333.53337 1.26481
1331.48493 1.27092
1329.43649 1.27681
1327.38806 1.28241
1325.33962 1.28767
1323.29118 1.29252
1321.24274 1.29694
1319.19430 1.30104
1317.14586 1.30489
1315.09743 1.30873
1313.04899 1.31252
1311.00055 1.31565
1308.95211 1.31797
1306.90367 1.32021
1304.85523 1.32277
1302.80680 1.32542
1300.75836 1.32805
1298.70992 1.33062
1296.66148 1.33330
1294.61304 1.33620
1292.56460 1.33929
1290.51617 1.34254
1288.46773 1.34575
1286.41929 1.34881
1284.37085 1.35192
1282.32241 1.35524
1280.27397 1.35873
1278.22554 1.36216
1276.17710 1.36536
1274.12866 1.36839
1272.08022 1.37119
1270.03178 1.37418
1267.98334 1.37744
1265.93491 1.38033
1263.88647 1.38272
1261.83803 1.38543
1259.78959 1.38868
1257.74115 1.39160
1255.69271 1.39405
1253.64428 1.39674
1251.59584 1.39972
1249.54740 1.40279
1247.49896 1.40563
1245.45052 1.40764
1243.40208 1.40941
1241.35364 1.41187
1239.30521 1.41477
1237.25677 1.41744
1235.20833 1.41966
1233.15989 1.42160
1231.11145 1.42379
1229.06301 1.42629
1227.01458 1.42843
1224.96614 1.43029
1222.91770 1.43237
1220.86926 1.43473
1218.82082 1.43715
1216.77238 1.43921
1214.72395 1.44065
1212.67551 1.44195
1210.62707 1.44360
1208.57863 1.44556
1206.53019 1.44764
1204.48175 1.44965
1202.43332 1.45136
1200.38488 1.45271
1198.33644 1.45425
1196.28800 1.45618
1194.23956 1.45816
1192.19112 1.45985
1190.14269 1.46133
1188.09425 1.46282
1186.04581 1.46436
1183.99737 1.46603
1181.94893 1.46779
1179.90049 1.46939
1177.85206 1.47080
1175.80362 1.47212
1173.75518 1.47366
1171.70674 1.47552
1169.65830 1.47720
1167.60986 1.47868
1165.56143 1.47999
1163.51299 1.48093
1161.46455 1.48192
1159.41611 1.48344
1157.36767 1.48502
1155.31923 1.48630
1153.27080 1.48768
1151.22236 1.48923
1149.17392 1.49079
1147.12548 1.49243
1145.07704 1.49412
1143.02860 1.49557
1140.98017 1.49677
1138.93173 1.49784
1136.88329 1.49898
1134.83485 1.50040
1132.78641 1.50182
1130.73797 1.50309
1128.68954 1.50426
1126.64110 1.50548
1124.59266 1.50693
1122.54422 1.50866
1120.49578 1.51041
1118.44734 1.51201
1116.39891 1.51351
1114.35047 1.51517
1112.30203 1.51675
1110.25359 1.51732
1108.20515 1.51677
1106.15671 1.51626
1104.10827 1.51651
1102.05984 1.51702
1100.01140 1.51796
1097.96296 1.51930
1095.91452 1.52008
1093.86608 1.52046
1091.81764 1.52183
1089.76921 1.52407
1087.72077 1.52646
1085.67233 1.52907
1083.62389 1.53173
1081.57545 1.53409
1079.52701 1.53558
1077.47858 1.53637
1075.43014 1.53753
1073.38170 1.53949
1071.33326 1.54217
1069.28482 1.54603
1067.23638 1.55097
1065.18795 1.55652
1063.13951 1.56220
1061.09107 1.57001
1059.04263 1.58337
1056.99419 1.59560
1054.94575 1.56116
1052.89732 1.47386
1050.84888 1.42374
1048.80044 1.44345
1046.75200 1.48202
1044.70356 1.50305
1042.65512 1.51341
1040.60669 1.52016
1038.55825 1.52586
1036.50981 1.53048
1034.46137 1.53332
1032.41293 1.53533
1030.36449 1.53817
1028.31606 1.54164
1026.26762 1.54487
1024.21918 1.54738
1022.17074 1.54964
1020.12230 1.55152
1018.07386 1.55295
1016.02543 1.55513
1013.97699 1.55779
1011.92855 1.55922
1009.88011 1.55991
1007.83167 1.56138
1005.78323 1.56339
1003.73480 1.56521
1001.68636 1.56647
999.63792 1.56783
997.58948 1.56986
995.54104 1.57241
993.49260 1.57397
991.44417 1.57452
989.39573 1.57556
987.34729 1.57713
985.29885 1.57880
983.25041 1.58068
981.20197 1.58326
979.15354 1.58633
977.10510 1.58909
975.05666 1.59086
973.00822 1.59247
970.95978 1.59489
968.91134 1.59759
966.86290 1.59981
964.81447 1.60192
962.76603 1.60415
960.71759 1.60630
958.66915 1.60861
956.62071 1.61063
954.57227 1.61239
952.52384 1.61474
950.47540 1.61739
948.42696 1.61893
946.37852 1.61959
944.33008 1.62114
942.28164 1.62403
940.23321 1.62704
938.18477 1.62934
936.13633 1.63118
934.08789 1.63289
932.03945 1.63498
929.99101 1.63751
927.94258 1.64013
925.89414 1.64254
923.84570 1.64462
921.79726 1.64652
919.74882 1.64901
917.70038 1.65224
915.65195 1.65470
913.60351 1.65569
911.55507 1.65694
909.50663 1.65945
907.45819 1.66269
905.40975 1.66649
903.36132 1.66999
901.31288 1.67309
899.26444 1.67641
897.21600 1.67996
895.16756 1.68350
893.11912 1.68663
891.07069 1.68877
889.02225 1.69057
886.97381 1.69420
884.92537 1.69952
882.87693 1.70415
880.82849 1.70792
878.78006 1.71266
876.73162 1.71819
874.68318 1.72370
872.63474 1.72828
870.58630 1.73145
868.53786 1.73543
866.48943 1.74238
864.44099 1.75304
862.39255 1.76541
860.34411 1.77625
858.29567 1.78694
856.24723 1.80148
854.19880 1.81997
852.15036 1.83755
850.10192 1.83669
848.05348 1.76890
846.00504 1.60966
843.95660 1.43248
841.90817 1.31158
839.85973 1.26880
837.81129 1.29847
835.76285 1.37602
833.71441 1.45993
831.66597 1.52205
829.61753 1.56377
827.56910 1.59130
825.52066 1.60525
823.47222 1.60978
821.42378 1.61597
819.37534 1.62766
817.32690 1.63989
815.27847 1.65015
813.23003 1.65816
811.18159 1.66466
809.13315 1.67148
807.08471 1.67812
805.03627 1.68164
802.98784 1.68313
800.93940 1.68659
798.89096 1.69078
796.84252 1.69349
794.79408 1.69593
792.74564 1.69818
790.69721 1.70117
788.64877 1.70575
786.60033 1.70910
784.55189 1.71223
782.50345 1.71862
780.45501 1.72574
778.40658 1.73012
776.35814 1.73132
774.30970 1.73103
772.26126 1.73207
770.21282 1.73486
768.16438 1.73840
766.11595 1.74148
764.06751 1.74309
762.01907 1.74504
759.97063 1.74891
757.92219 1.75405
755.87375 1.75915
753.82532 1.76231
751.77688 1.76475
749.72844 1.76873
747.68000 1.77110
745.63156 1.76978
743.58312 1.76966
741.53469 1.77575
739.48625 1.78507
737.43781 1.78925
735.38937 1.78941
733.34093 1.79124
731.29249 1.79252
729.24406 1.79357
727.19562 1.79852
725.14718 1.80594
723.09874 1.81008
721.05030 1.81028
719.00186 1.81205
716.95343 1.81879
714.90499 1.82723
712.85655 1.83132
710.80811 1.83452
708.75967 1.84411
706.71123 1.85806
704.66280 1.86797
702.61436 1.87100
700.56592 1.87271
698.51748 1.87812
696.46904 1.89238
694.42060 1.91984
692.37216 1.95674
690.32373 1.99082
688.27529 2.02614
686.22685 2.05984
684.17841 2.00798
682.12997 1.78535
680.08153 1.52237
678.03310 1.37342
675.98466 1.37144
673.93622 1.46638
671.88778 1.56506
669.83934 1.62764
667.79090 1.67688
665.74247 1.70479
663.69403 1.71898
661.64559 1.73520
659.59715 1.74716
657.54871 1.75243
655.50027 1.75978
653.45184 1.76574
651.40340 1.76529
649.35496 1.76138
647.30652 1.75689
645.25808 1.76124
643.20964 1.77244
641.16121 1.77376
639.11277 1.77604
637.06433 1.78734
635.01589 1.78626
632.96745 1.77488
630.91901 1.77536
628.87058 1.79546
626.82214 1.81858
624.77370 1.81773
622.72526 1.80737
620.67682 1.82153
618.62838 1.85581
616.57995 1.88118
614.53151 1.88396
612.48307 1.86871
610.43463 1.84097
608.38619 1.81930
606.33775 1.83020
604.28932 1.85999
602.24088 1.87381
600.19244 1.86627
598.14400 1.85834
