3996.50324 1.15239
3994.45480 1.15259
3992.40636 1.15244
3990.35792 1.15213
3988.30948 1.15219
3986.26104 1.15267
3984.21261 1.15317
3982.16417 1.15317
3980.11573 1.15262
3978.06729 1.15215
3976.01885 1.15203
3973.97041 1.15190
3971.92198 1.15163
3969.87354 1.15166
3967.82510 1.15217
3965.77666 1.15230
3963.72822 1.15193
3961.67978 1.15207
3959.63135 1.15239
3957.58291 1.15208
3955.53447 1.15172
3953.48603 1.15166
3951.43759 1.15140
3949.38915 1.15094
3947.34072 1.15089
3945.29228 1.15084
3943.24384 1.15083
3941.19540 1.15140
3939.14696 1.15167
3937.09852 1.15133
3935.05009 1.15101
3933.00165 1.15138
3930.95321 1.15246
3928.90477 1.15270
3926.85633 1.15187
3924.80789 1.15155
3922.75946 1.15196
3920.71102 1.15173
3918.66258 1.15124
3916.61414 1.15198
3914.56570 1.15329
3912.51726 1.15374
3910.46883 1.15357
3908.42039 1.15282
3906.37195 1.15146
3904.32351 1.15080
3902.27507 1.15129
3900.22663 1.15232
3898.17820 1.15342
3896.12976 1.15315
3894.08132 1.15166
3892.03288 1.15116
3889.98444 1.15258
3887.93600 1.15312
3885.88756 1.15314
3883.83913 1.15362
3881.79069 1.15350
3879.74225 1.15398
3877.69381 1.15410
3875.64537 1.15318
3873.59693 1.15292
3871.54850 1.15365
3869.50006 1.15548
3867.45162 1.15599
3865.40318 1.15427
3863.35474 1.15359
3861.30630 1.15451
3859.25787 1.15417
3857.20943 1.15173
3855.16099 1.14878
3853.11255 1.15062
3851.06411 1.15484
3849.01567 1.15566
3846.96724 1.15476
3844.91880 1.15294
3842.87036 1.15094
3840.82192 1.14977
3838.77348 1.15071
3836.72504 1.15302
3834.67661 1.15375
3832.62817 1.15418
3830.57973 1.15550
3828.53129 1.15609
3826.48285 1.15563
3824.43441 1.15424
3822.38598 1.15240
3820.33754 1.15264
3818.28910 1.15326
3816.24066 1.15407
3814.19222 1.15634
3812.14378 1.15703
3810.09535 1.15595
3808.04691 1.15458
3805.99847 1.15414
3803.95003 1.15343
3801.90159 1.15377
3799.85315 1.15634
3797.80472 1.15722
3795.75628 1.15746
3793.70784 1.15784
3791.65940 1.15777
3789.61096 1.15773
3787.56252 1.15773
3785.51409 1.15778
3783.46565 1.15761
3781.41721 1.15678
3779.36877 1.15677
3777.32033 1.15784
3775.27189 1.15815
3773.22346 1.15749
3771.17502 1.15681
3769.12658 1.15716
3767.07814 1.15736
3765.02970 1.15703
3762.98126 1.15668
3760.93283 1.15616
3758.88439 1.15612
3756.83595 1.15608
3754.78751 1.15475
3752.73907 1.15189
3750.69063 1.15033
3748.64219 1.15173
3746.59376 1.15184
3744.54532 1.15269
3742.49688 1.15489
3740.44844 1.15469
3738.40000 1.15311
3736.35156 1.15211
3734.30313 1.15275
3732.25469 1.15412
3730.20625 1.15452
3728.15781 1.15389
3726.10937 1.15384
3724.06093 1.15489
3722.01250 1.15576
3719.96406 1.15660
3717.91562 1.15691
3715.86718 1.15553
3713.81874 1.15278
3711.77030 1.15179
3709.72187 1.15495
3707.67343 1.15727
3705.62499 1.15694
3703.57655 1.15589
3701.52811 1.15663
3699.47967 1.15826
3697.43124 1.15881
3695.38280 1.15825
3693.33436 1.15619
3691.28592 1.15363
3689.23748 1.15471
3687.18904 1.15833
3685.14061 1.15922
3683.09217 1.15807
3681.04373 1.15650
3678.99529 1.15473
3676.94685 1.15310
3674.89841 1.15422
3672.84998 1.15520
3670.80154 1.15525
3668.75310 1.15792
3666.70466 1.15971
3664.65622 1.15936
3662.60778 1.15851
3660.55935 1.15778
3658.51091 1.15710
3656.46247 1.15692
3654.41403 1.15655
3652.36559 1.15411
3650.31715 1.15104
3648.26872 1.15302
3646.22028 1.15668
3644.17184 1.15718
3642.12340 1.15635
3640.07496 1.15594
3638.02652 1.15611
3635.97809 1.15598
3633.92965 1.15518
3631.88121 1.15355
3629.83277 1.15218
3627.78433 1.15439
3625.73589 1.15663
3623.68746 1.15642
3621.63902 1.15519
3619.59058 1.15511
3617.54214 1.15623
3615.49370 1.15544
3613.44526 1.15428
3611.39682 1.15449
3609.34839 1.15508
3607.29995 1.15609
3605.25151 1.15658
3603.20307 1.15599
3601.15463 1.15560
3599.10619 1.15575
3597.05776 1.15562
3595.00932 1.15574
3592.96088 1.15632
3590.91244 1.15576
3588.86400 1.15460
3586.81556 1.15584
3584.76713 1.15746
3582.71869 1.15706
3580.67025 1.15664
3578.62181 1.15698
3576.57337 1.15705
3574.52493 1.15695
3572.47650 1.15690
3570.42806 1.15596
3568.37962 1.15448
3566.33118 1.15503
3564.28274 1.15656
3562.23430 1.15683
3560.18587 1.15704
3558.13743 1.15772
3556.08899 1.15772
3554.04055 1.15710
3551.99211 1.15705
3549.94367 1.15719
3547.89524 1.15659
3545.84680 1.15649
3543.79836 1.15750
3541.74992 1.15819
3539.70148 1.15834
3537.65304 1.15857
3535.60461 1.15871
3533.55617 1.15841
3531.50773 1.15791
3529.45929 1.15766
3527.41085 1.15771
3525.36241 1.15764
3523.31398 1.15765
3521.26554 1.15804
3519.21710 1.15852
3517.16866 1.15881
3515.12022 1.15894
3513.07178 1.15876
3511.02335 1.15835
3508.97491 1.15865
3506.92647 1.15915
3504.87803 1.15909
3502.82959 1.15940
3500.78115 1.15977
3498.73272 1.15930
3496.68428 1.15876
3494.63584 1.15916
3492.58740 1.16033
3490.53896 1.16091
3488.49052 1.16058
3486.44209 1.16025
3484.39365 1.16010
3482.34521 1.16017
3480.29677 1.16032
3478.24833 1.16006
3476.19989 1.15999
3474.15146 1.16061
3472.10302 1.16104
3470.05458 1.16107
3468.00614 1.16144
3465.95770 1.16181
3463.90926 1.16140
3461.86082 1.16071
3459.81239 1.16039
3457.76395 1.16061
3455.71551 1.16124
3453.66707 1.16172
3451.61863 1.16162
3449.57019 1.16090
3447.52176 1.16040
3445.47332 1.16077
3443.42488 1.16127
3441.37644 1.16144
3439.32800 1.16139
3437.27956 1.16111
3435.23113 1.16101
3433.18269 1.16146
3431.13425 1.16185
3429.08581 1.16152
3427.03737 1.16114
3424.98893 1.16110
3422.94050 1.16091
3420.89206 1.16085
3418.84362 1.16144
3416.79518 1.16199
3414.74674 1.16176
3412.69830 1.16120
3410.64987 1.16102
3408.60143 1.16121
3406.55299 1.16157
3404.50455 1.16208
3402.45611 1.16216
3400.40767 1.16156
3398.35924 1.16117
3396.31080 1.16148
3394.26236 1.16219
3392.21392 1.16265
3390.16548 1.16229
3388.11704 1.16143
3386.06861 1.16083
3384.02017 1.16086
3381.97173 1.16118
3379.92329 1.16118
3377.87485 1.16077
3375.82641 1.16055
3373.77798 1.16082
3371.72954 1.16126
3369.68110 1.16135
3367.63266 1.16107
3365.58422 1.16099
3363.53578 1.16111
3361.48735 1.16115
3359.43891 1.16100
3357.39047 1.16080
3355.34203 1.16074
3353.29359 1.16084
3351.24515 1.16123
3349.19672 1.16163
3347.14828 1.16154
3345.09984 1.16129
3343.05140 1.16111
3341.00296 1.16083
3338.95452 1.16094
3336.90609 1.16132
3334.85765 1.16129
3332.80921 1.16116
3330.76077 1.16128
3328.71233 1.16125
3326.66389 1.16073
3324.61545 1.16036
3322.56702 1.16077
3320.51858 1.16133
3318.47014 1.16150
3316.42170 1.16144
3314.37326 1.16126
3312.32482 1.16118
3310.27639 1.16160
3308.22795 1.16236
3306.17951 1.16276
3304.13107 1.16228
3302.08263 1.16127
3300.03419 1.16063
3297.98576 1.16059
3295.93732 1.16096
3293.88888 1.16140
3291.84044 1.16161
3289.79200 1.16187
3287.74356 1.16238
3285.69513 1.16285
3283.64669 1.16291
3281.59825 1.16246
3279.54981 1.16194
3277.50137 1.16183
3275.45293 1.16187
3273.40450 1.16167
3271.35606 1.16141
3269.30762 1.16157
3267.25918 1.16229
3265.21074 1.16308
3263.16230 1.16325
3261.11387 1.16287
3259.06543 1.16270
3257.01699 1.16269
3254.96855 1.16266
3252.92011 1.16292
3250.87167 1.16291
3248.82324 1.16241
3246.77480 1.16215
3244.72636 1.16211
3242.67792 1.16217
3240.62948 1.16252
3238.58104 1.16291
3236.53261 1.16317
3234.48417 1.16337
3232.43573 1.16359
3230.38729 1.16381
3228.33885 1.16392
3226.29041 1.16376
3224.24198 1.16345
3222.19354 1.16334
3220.14510 1.16344
3218.09666 1.16353
3216.04822 1.16361
3213.99978 1.16366
3211.95135 1.16357
3209.90291 1.16368
3207.85447 1.16417
3205.80603 1.16450
3203.75759 1.16439
3201.70915 1.16392
3199.66072 1.16348
3197.61228 1.16355
3195.56384 1.16404
3193.51540 1.16431
3191.46696 1.16409
3189.41852 1.16377
3187.37008 1.16359
3185.32165 1.16346
3183.27321 1.16339
3181.22477 1.16350
3179.17633 1.16378
3177.12789 1.16396
3175.07945 1.16398
3173.03102 1.16396
3170.98258 1.16388
3168.93414 1.16385
3166.88570 1.16387
3164.83726 1.16384
3162.78882 1.16386
3160.74039 1.16388
3158.69195 1.16360
3156.64351 1.16315
3154.59507 1.16310
3152.54663 1.16342
3150.49819 1.16380
3148.44976 1.16399
3146.40132 1.16395
3144.35288 1.16394
3142.30444 1.16385
3140.25600 1.16383
3138.20756 1.16429
3136.15913 1.16470
3134.11069 1.16458
3132.06225 1.16455
3130.01381 1.16483
3127.96537 1.16488
3125.91693 1.16482
3123.86850 1.16494
3121.82006 1.16505
3119.77162 1.16501
3117.72318 1.16498
3115.67474 1.16508
3113.62630 1.16498
3111.57787 1.16477
3109.52943 1.16488
3107.48099 1.16498
3105.43255 1.16468
3103.38411 1.16458
3101.33567 1.16503
3099.28724 1.16530
3097.23880 1.16513
3095.19036 1.16499
3093.14192 1.16513
3091.09348 1.16536
3089.04504 1.16533
3086.99661 1.16522
3084.94817 1.16523
3082.89973 1.16526
3080.85129 1.16519
3078.80285 1.16518
3076.75441 1.16545
3074.70598 1.16566
3072.65754 1.16561
3070.60910 1.16561
3068.56066 1.16545
3066.51222 1.16489
3064.46378 1.16456
3062.41535 1.16461
3060.36691 1.16460
3058.31847 1.16463
3056.27003 1.16483
3054.22159 1.16487
3052.17315 1.16475
3050.12471 1.16480
3048.07628 1.16502
3046.02784 1.16526
3043.97940 1.16522
3041.93096 1.16476
3039.88252 1.16439
3037.83408 1.16464
3035.78565 1.16533
3033.73721 1.16572
3031.68877 1.16554
3029.64033 1.16527
3027.59189 1.16545
3025.54345 1.16597
3023.49502 1.16621
3021.44658 1.16583
3019.39814 1.16536
3017.34970 1.16523
3015.30126 1.16522
3013.25282 1.16537
3011.20439 1.16578
3009.15595 1.16614
3007.10751 1.16627
3005.05907 1.16631
3003.01063 1.16630
3000.96219 1.16637
2998.91376 1.16663
2996.86532 1.16684
2994.81688 1.16686
2992.76844 1.16691
2990.72000 1.16696
2988.67156 1.16681
2986.62313 1.16677
2984.57469 1.16692
2982.52625 1.16679
2980.47781 1.16671
2978.42937 1.16707
2976.38093 1.16733
2974.33250 1.16721
2972.28406 1.16687
2970.23562 1.16654
2968.18718 1.16642
2966.13874 1.16640
2964.09030 1.16628
2962.04187 1.16609
2959.99343 1.16593
2957.94499 1.16571
2955.89655 1.16548
2953.84811 1.16574
2951.79967 1.16621
2949.75124 1.16622
2947.70280 1.16592
2945.65436 1.16567
2943.60592 1.16549
2941.55748 1.16530
2939.50904 1.16495
2937.46061 1.16437
2935.41217 1.16354
2933.36373 1.16245
2931.31529 1.16154
2929.26685 1.16112
2927.21841 1.16079
2925.16998 1.16031
2923.12154 1.16011
2921.07310 1.16031
2919.02466 1.16055
2916.97622 1.16113
2914.92778 1.16245
2912.87934 1.16382
2910.83091 1.16470
2908.78247 1.16536
2906.73403 1.16621
2904.68559 1.16724
2902.63715 1.16805
2900.58871 1.16847
2898.54028 1.16829
2896.49184 1.16790
2894.44340 1.16836
2892.39496 1.16930
2890.34652 1.16980
2888.29808 1.16992
2886.24965 1.16994
2884.20121 1.16998
2882.15277 1.17008
2880.10433 1.17038
2878.05589 1.17086
2876.00745 1.17081
2873.95902 1.17025
2871.91058 1.17008
2869.86214 1.17033
2867.81370 1.17063
2865.76526 1.17069
2863.71682 1.17018
2861.66839 1.16949
2859.61995 1.16907
2857.57151 1.16859
2855.52307 1.16782
2853.47463 1.16723
2851.42619 1.16733
2849.37776 1.16810
2847.32932 1.16910
2845.28088 1.17010
2843.23244 1.17109
2841.18400 1.17188
2839.13556 1.17232
2837.08713 1.17273
2835.03869 1.17300
2832.99025 1.17297
2830.94181 1.17306
2828.89337 1.17334
2826.84493 1.17353
2824.79650 1.17365
2822.74806 1.17394
2820.69962 1.17420
2818.65118 1.17422
2816.60274 1.17418
2814.55430 1.17407
2812.50587 1.17392
2810.45743 1.17400
2808.40899 1.17421
2806.36055 1.17436
2804.31211 1.17452
2802.26367 1.17434
2800.21524 1.17382
2798.16680 1.17366
2796.11836 1.17380
2794.06992 1.17381
2792.02148 1.17388
2789.97304 1.17411
2787.92461 1.17446
2785.87617 1.17488
2783.82773 1.17494
2781.77929 1.17451
2779.73085 1.17433
2777.68241 1.17451
2775.63397 1.17454
2773.58554 1.17449
2771.53710 1.17444
2769.48866 1.17433
2767.44022 1.17446
2765.39178 1.17479
2763.34334 1.17495
2761.29491 1.17504
2759.24647 1.17525
2757.19803 1.17541
2755.14959 1.17538
2753.10115 1.17519
2751.05271 1.17492
2749.00428 1.17475
2746.95584 1.17469
2744.90740 1.17470
2742.85896 1.17480
2740.81052 1.17481
2738.76208 1.17458
2736.71365 1.17443
2734.66521 1.17436
2732.61677 1.17409
2730.56833 1.17384
2728.51989 1.17379
2726.47145 1.17386
2724.42302 1.17396
2722.37458 1.17399
2720.32614 1.17398
2718.27770 1.17409
2716.22926 1.17418
2714.18082 1.17407
2712.13239 1.17395
2710.08395 1.17398
2708.03551 1.17416
2705.98707 1.17440
2703.93863 1.17450
2701.89019 1.17442
2699.84176 1.17446
2697.79332 1.17474
2695.74488 1.17486
2693.69644 1.17477
2691.64800 1.17481
2689.59956 1.17504
2687.55113 1.17543
2685.50269 1.17558
2683.45425 1.17539
2681.40581 1.17532
2679.35737 1.17536
2677.30893 1.17557
2675.26050 1.17614
2673.21206 1.17651
2671.16362 1.17650
2669.11518 1.17649
2667.06674 1.17635
2665.01830 1.17605
2662.96987 1.17590
2660.92143 1.17595
2658.87299 1.17618
2656.82455 1.17640
2654.77611 1.17644
2652.72767 1.17640
2650.67924 1.17631
2648.63080 1.17628
2646.58236 1.17655
2644.53392 1.17693
2642.48548 1.17691
2640.43704 1.17664
2638.38860 1.17652
2636.34017 1.17673
2634.29173 1.17710
2632.24329 1.17721
2630.19485 1.17712
2628.14641 1.17717
2626.09797 1.17725
2624.04954 1.17736
2622.00110 1.17771
2619.95266 1.17802
2617.90422 1.17798
2615.85578 1.17783
2613.80734 1.17794
2611.75891 1.17816
2609.71047 1.17828
2607.66203 1.17854
2605.61359 1.17887
2603.56515 1.17879
2601.51671 1.17853
2599.46828 1.17869
2597.41984 1.17904
2595.37140 1.17925
2593.32296 1.17938
2591.27452 1.17940
2589.22608 1.17930
2587.17765 1.17922
2585.12921 1.17943
2583.08077 1.17982
2581.03233 1.17994
2578.98389 1.17984
2576.93545 1.17981
2574.88702 1.17991
2572.83858 1.18008
2570.79014 1.18024
2568.74170 1.18019
2566.69326 1.18009
2564.64482 1.18029
2562.59639 1.18079
2560.54795 1.18117
2558.49951 1.18134
2556.45107 1.18144
2554.40263 1.18138
2552.35419 1.18144
2550.30576 1.18185
2548.25732 1.18217
2546.20888 1.18223
2544.16044 1.18241
2542.11200 1.18279
2540.06356 1.18317
2538.01513 1.18334
2535.96669 1.18328
2533.91825 1.18302
2531.86981 1.18279
2529.82137 1.18274
2527.77293 1.18278
2525.72450 1.18296
2523.67606 1.18299
2521.62762 1.18292
2519.57918 1.18314
2517.53074 1.18350
2515.48230 1.18366
2513.43387 1.18369
2511.38543 1.18374
2509.33699 1.18397
2507.28855 1.18415
2505.24011 1.18411
2503.19167 1.18413
2501.14324 1.18432
2499.09480 1.18454
2497.04636 1.18459
2494.99792 1.18449
2492.94948 1.18456
2490.90104 1.18479
2488.85260 1.18493
2486.80417 1.18492
2484.75573 1.18491
2482.70729 1.18507
2480.65885 1.18535
2478.61041 1.18560
2476.56197 1.18551
2474.51354 1.18514
2472.46510 1.18503
2470.41666 1.18523
2468.36822 1.18547
2466.31978 1.18568
2464.27134 1.18583
2462.22291 1.18603
2460.17447 1.18643
2458.12603 1.18681
2456.07759 1.18701
2454.02915 1.18725
2451.98071 1.18742
2449.93228 1.18742
2447.88384 1.18764
2445.83540 1.18790
2443.78696 1.18784
2441.73852 1.18786
2439.69008 1.18816
2437.64165 1.18837
2435.59321 1.18835
2433.54477 1.18836
2431.49633 1.18867
2429.44789 1.18909
2427.39945 1.18931
2425.35102 1.18928
2423.30258 1.18893
2421.25414 1.18823
2419.20570 1.18753
2417.15726 1.18709
2415.10882 1.18642
2413.06039 1.18523
2411.01195 1.18395
2408.96351 1.18288
2406.91507 1.18189
2404.86663 1.18119
2402.81819 1.18091
2400.76976 1.18076
2398.72132 1.18054
2396.67288 1.18047
2394.62444 1.18080
2392.57600 1.18135
2390.52756 1.18182
2388.47913 1.18227
2386.43069 1.18280
2384.38225 1.18331
2382.33381 1.18383
2380.28537 1.18424
2378.23693 1.18441
2376.18850 1.18451
2374.14006 1.18441
2372.09162 1.18401
2370.04318 1.18403
2367.99474 1.18486
2365.94630 1.18561
2363.89787 1.18594
2361.84943 1.18598
2359.80099 1.18552
2357.75255 1.18575
2355.70411 1.18749
2353.65567 1.18972
2351.60723 1.19074
2349.55880 1.19001
2347.51036 1.18872
2345.46192 1.18850
2343.41348 1.18997
2341.36504 1.19136
2339.31660 1.19157
2337.26817 1.19111
2335.21973 1.19066
2333.17129 1.19049
2331.12285 1.19023
2329.07441 1.19006
2327.02597 1.19027
2324.97754 1.19009
2322.92910 1.19027
2320.88066 1.19149
2318.83222 1.19189
2316.78378 1.19106
2314.73534 1.19080
2312.68691 1.19135
2310.63847 1.19167
2308.59003 1.19158
2306.54159 1.19137
2304.49315 1.19122
2302.44471 1.19122
2300.39628 1.19113
2298.34784 1.19087
2296.29940 1.19078
2294.25096 1.19077
2292.20252 1.19067
2290.15408 1.19087
2288.10565 1.19117
2286.05721 1.19086
2284.00877 1.19036
2281.96033 1.19012
2279.91189 1.18995
2277.86345 1.19006
2275.81502 1.19041
2273.76658 1.19063
2271.71814 1.19078
2269.66970 1.19099
2267.62126 1.19133
2265.57282 1.19168
2263.52439 1.19184
2261.47595 1.19190
2259.42751 1.19199
2257.37907 1.19209
2255.33063 1.19219
2253.28219 1.19228
2251.23376 1.19244
2249.18532 1.19264
2247.13688 1.19280
2245.08844 1.19304
2243.04000 1.19335
2240.99156 1.19359
2238.94313 1.19373
2236.89469 1.19368
2234.84625 1.19372
2232.79781 1.19405
2230.74937 1.19428
2228.70093 1.19431
2226.65250 1.19445
2224.60406 1.19473
2222.55562 1.19486
2220.50718 1.19482
2218.45874 1.19478
2216.41030 1.19477
2214.36186 1.19490
2212.31343 1.19516
2210.26499 1.19541
2208.21655 1.19548
2206.16811 1.19536
2204.11967 1.19533
2202.07123 1.19562
2200.02280 1.19614
2197.97436 1.19636
2195.92592 1.19607
2193.87748 1.19595
2191.82904 1.19626
2189.78060 1.19667
2187.73217 1.19704
2185.68373 1.19747
2183.63529 1.19802
2181.58685 1.19834
2179.53841 1.19831
2177.48997 1.19841
2175.44154 1.19864
2173.39310 1.19897
2171.34466 1.19946
2169.29622 1.19968
2167.24778 1.19958
2165.19934 1.19972
2163.15091 1.20016
2161.10247 1.20046
2159.05403 1.20053
2157.00559 1.20054
2154.95715 1.20071
2152.90871 1.20100
2150.86028 1.20119
2148.81184 1.20141
2146.76340 1.20174
2144.71496 1.20183
2142.66652 1.20169
2140.61808 1.20154
2138.56965 1.20152
2136.52121 1.20173
2134.47277 1.20201
2132.42433 1.20223
2130.37589 1.20243
2128.32745 1.20276
2126.27902 1.20316
2124.23058 1.20335
2122.18214 1.20347
2120.13370 1.20374
2118.08526 1.20407
2116.03682 1.20437
2113.98839 1.20473
2111.93995 1.20514
2109.89151 1.20547
2107.84307 1.20584
2105.79463 1.20642
2103.74619 1.20690
2101.69776 1.20709
2099.64932 1.20731
2097.60088 1.20760
2095.55244 1.20774
2093.50400 1.20771
2091.45556 1.20765
2089.40713 1.20765
2087.35869 1.20787
2085.31025 1.20833
2083.26181 1.20873
2081.21337 1.20902
2079.16493 1.20927
2077.11649 1.20928
2075.06806 1.20912
2073.01962 1.20930
2070.97118 1.20987
2068.92274 1.21028
2066.87430 1.21057
2064.82586 1.21115
2062.77743 1.21176
2060.72899 1.21208
2058.68055 1.21236
2056.63211 1.21279
2054.58367 1.21322
2052.53523 1.21329
2050.48680 1.21307
2048.43836 1.21305
2046.38992 1.21334
2044.34148 1.21357
2042.29304 1.21361
2040.24460 1.21382
2038.19617 1.21424
2036.14773 1.21448
2034.09929 1.21454
2032.05085 1.21471
2030.00241 1.21497
2027.95397 1.21510
2025.90554 1.21504
2023.85710 1.21502
2021.80866 1.21521
2019.76022 1.21543
2017.71178 1.21561
2015.66334 1.21576
2013.61491 1.21589
2011.56647 1.21628
2009.51803 1.21678
2007.46959 1.21709
2005.42115 1.21761
2003.37271 1.21826
2001.32428 1.21842
1999.27584 1.21833
1997.22740 1.21843
1995.17896 1.21835
1993.13052 1.21813
1991.08208 1.21872
1989.03365 1.21979
1986.98521 1.22034
1984.93677 1.22051
1982.88833 1.22060
1980.83989 1.22068
1978.79145 1.22089
1976.74302 1.22125
1974.69458 1.22154
1972.64614 1.22168
1970.59770 1.22174
1968.54926 1.22196
1966.50082 1.22250
1964.45239 1.22317
1962.40395 1.22375
1960.35551 1.22386
1958.30707 1.22367
1956.25863 1.22379
1954.21019 1.22397
1952.16176 1.22406
1950.11332 1.22434
1948.06488 1.22478
1946.01644 1.22511
1943.96800 1.22543
1941.91956 1.22644
1939.87112 1.22762
1937.82269 1.22802
1935.77425 1.22819
1933.72581 1.22862
1931.67737 1.22912
1929.62893 1.22946
1927.58049 1.22966
1925.53206 1.22969
1923.48362 1.22989
1921.43518 1.23058
1919.38674 1.23111
1917.33830 1.23168
1915.28986 1.23268
1913.24143 1.23348
1911.19299 1.23383
1909.14455 1.23415
1907.09611 1.23487
1905.04767 1.23567
1902.99923 1.23618
1900.95080 1.23640
1898.90236 1.23646
1896.85392 1.23660
1894.80548 1.23725
1892.75704 1.23805
1890.70860 1.23832
1888.66017 1.23886
1886.61173 1.23989
1884.56329 1.24060
1882.51485 1.24105
1880.46641 1.24159
1878.41797 1.24219
1876.36954 1.24257
1874.32110 1.24275
1872.27266 1.24265
1870.22422 1.24238
1868.17578 1.24323
1866.12734 1.24506
1864.07891 1.24641
1862.03047 1.24735
1859.98203 1.24796
1857.93359 1.24832
1855.88515 1.24895
1853.83671 1.24978
1851.78828 1.25021
1849.73984 1.25029
1847.69140 1.25028
1845.64296 1.25014
1843.59452 1.25112
1841.54608 1.25302
1839.49765 1.25411
1837.44921 1.25462
1835.40077 1.25519
1833.35233 1.25547
1831.30389 1.25527
1829.25545 1.25585
1827.20702 1.25690
1825.15858 1.25771
1823.11014 1.25918
1821.06170 1.26068
1819.01326 1.26162
1816.96482 1.26248
1814.91639 1.26319
1812.86795 1.26332
1810.81951 1.26347
1808.77107 1.26427
1806.72263 1.26513
1804.67419 1.26567
1802.62575 1.26631
1800.57732 1.26753
1798.52888 1.26855
1796.48044 1.26879
1794.43200 1.26882
1792.38356 1.27002
1790.33512 1.27263
1788.28669 1.27411
1786.23825 1.27472
1784.18981 1.27561
1782.14137 1.27644
1780.09293 1.27719
1778.04449 1.27814
1775.99606 1.27861
1773.94762 1.27856
1771.89918 1.27980
1769.85074 1.28244
1767.80230 1.28474
1765.75386 1.28624
1763.70543 1.28704
1761.65699 1.28866
1759.60855 1.29107
1757.56011 1.29331
1755.51167 1.29564
1753.46323 1.29709
1751.41480 1.29810
1749.36636 1.30004
1747.31792 1.30145
1745.26948 1.30039
1743.22104 1.29705
1741.17260 1.29344
1739.12417 1.29141
1737.07573 1.28997
1735.02729 1.28798
1732.97885 1.28716
1730.93041 1.28554
1728.88197 1.28121
1726.83354 1.27728
1724.78510 1.27671
1722.73666 1.27944
1720.68822 1.28216
1718.63978 1.28404
1716.59134 1.28857
1714.54291 1.29430
1712.49447 1.29787
1710.44603 1.29989
1708.39759 1.30094
1706.34915 1.30209
1704.30071 1.30367
1702.25228 1.30424
1700.20384 1.30499
1698.15540 1.30731
1696.10696 1.31082
1694.05852 1.31524
1692.01008 1.31804
1689.96165 1.31994
1687.91321 1.32116
1685.86477 1.32188
1683.81633 1.32527
1681.76789 1.32911
1679.71945 1.33100
1677.67102 1.33231
1675.62258 1.33378
1673.57414 1.33510
1671.52570 1.33586
1669.47726 1.33837
1667.42882 1.34208
1665.38038 1.34394
1663.33195 1.34557
1661.28351 1.34832
1659.23507 1.35055
1657.18663 1.35116
1655.13819 1.35064
1653.08975 1.35393
1651.04132 1.35882
1648.99288 1.35947
1646.94444 1.36151
1644.89600 1.36698
1642.84756 1.37043
1640.79912 1.37191
1638.75069 1.37221
1636.70225 1.37377
1634.65381 1.38008
1632.60537 1.38484
1630.55693 1.38730
1628.50849 1.38964
1626.46006 1.39183
1624.41162 1.39405
1622.36318 1.39795
1620.31474 1.40102
1618.26630 1.40302
1616.21786 1.40744
1614.16943 1.41233
1612.12099 1.41524
1610.07255 1.41795
1608.02411 1.42169
1605.97567 1.42548
1603.92723 1.42918
1601.87880 1.43310
1599.83036 1.43743
1597.78192 1.44181
1595.73348 1.44659
1593.68504 1.45156
1591.63660 1.45643
1589.58817 1.46136
1587.53973 1.46627
1585.49129 1.47119
1583.44285 1.47622
1581.39441 1.48157
1579.34597 1.48548
1577.29754 1.48928
1575.24910 1.49665
1573.20066 1.50344
1571.15222 1.50816
1569.10378 1.51546
1567.05534 1.52295
1565.00691 1.52800
1562.95847 1.53133
1560.91003 1.53300
1558.86159 1.54269
1556.81315 1.55671
1554.76471 1.56433
1552.71628 1.57083
1550.66784 1.57870
1548.61940 1.58698
1546.57096 1.59377
1544.52252 1.59999
1542.47408 1.60783
1540.42565 1.62166
1538.37721 1.63510
1536.32877 1.64143
1534.28033 1.64801
1532.23189 1.65925
1530.18345 1.66594
1528.13501 1.66986
1526.08658 1.67303
1524.03814 1.67598
1521.98970 1.67373
1519.94126 1.66488
1517.89282 1.65002
1515.84438 1.62526
1513.79595 1.59501
1511.74751 1.55720
1509.69907 1.51172
1507.65063 1.42322
1505.60219 1.30674
1503.55375 1.24429
1501.50532 1.19039
1499.45688 1.12536
1497.40844 1.05054
1495.36000 0.98607
1493.31156 0.94445
1491.26312 0.90693
1489.21469 0.86255
1487.16625 0.82768
1485.11781 0.80465
1483.06937 0.78514
1481.02093 0.76627
1478.97249 0.74965
1476.92406 0.73469
1474.87562 0.71944
1472.82718 0.70373
1470.77874 0.69134
1468.73030 0.68278
1466.68186 0.67343
1464.63343 0.66240
1462.58499 0.65310
1460.53655 0.64536
1458.48811 0.63570
1456.43967 0.62588
1454.39123 0.62106
1452.34280 0.61693
1450.29436 0.61216
1448.24592 0.60773
1446.19748 0.60499
1444.14904 0.60375
1442.10060 0.60336
1440.05217 0.60341
1438.00373 0.60463
1435.95529 0.60919
1433.90685 0.61464
1431.85841 0.61906
1429.80997 0.62431
1427.76154 0.62919
1425.71310 0.63190
1423.66466 0.63299
1421.61622 0.63222
1419.56778 0.62892
1417.51934 0.62397
1415.47091 0.61849
1413.42247 0.61109
1411.37403 0.60152
1409.32559 0.59102
1407.27715 0.58059
1405.22871 0.57023
1403.18028 0.56162
1401.13184 0.55509
1399.08340 0.54926
1397.03496 0.54479
1394.98652 0.54259
1392.93808 0.54253
1390.88965 0.54314
1388.84121 0.54474
1386.79277 0.54949
1384.74433 0.55699
1382.69589 0.56591
1380.64745 0.57747
1378.59901 0.59175
1376.55058 0.60787
1374.50214 0.62738
1372.45370 0.64822
1370.40526 0.66591
1368.35682 0.68244
1366.30838 0.69752
1364.25995 0.71101
1362.21151 0.72609
1360.16307 0.74070
1358.11463 0.75272
1356.06619 0.76391
1354.01775 0.77505
1351.96932 0.78561
1349.92088 0.79571
1347.87244 0.80555
1345.82400 0.81476
1343.77556 0.82257
1341.72712 0.82919
1339.67869 0.83627
1337.63025 0.84409
1335.58181 0.85106
1333.53337 0.85722
1331.48493 0.86321
1329.43649 0.86918
1327.38806 0.87502
1325.33962 0.88045
1323.29118 0.88535
1321.24274 0.88961
1319.19430 0.89377
1317.14586 0.89798
1315.09743 0.90186
1313.04899 0.90546
1311.00055 0.90881
1308.95211 0.91172
1306.90367 0.91445
1304.85523 0.91716
1302.80680 0.91975
1300.75836 0.92237
1298.70992 0.92506
1296.66148 0.92791
1294.61304 0.93088
1292.56460 0.93387
1290.51617 0.93683
1288.46773 0.94005
1286.41929 0.94349
1284.37085 0.94687
1282.32241 0.95008
1280.27397 0.95317
1278.22554 0.95617
1276.17710 0.95911
1274.12866 0.96208
1272.08022 0.96499
1270.03178 0.96787
1267.98334 0.97075
1265.93491 0.97369
1263.88647 0.97658
1261.83803 0.97931
1259.78959 0.98204
1257.74115 0.98483
1255.69271 0.98757
1253.64428 0.99027
1251.59584 0.99285
1249.54740 0.99516
1247.49896 0.99750
1245.45052 1.00008
1243.40208 1.00253
1241.35364 1.00463
1239.30521 1.00667
1237.25677 1.00884
1235.20833 1.01105
1233.15989 1.01330
1231.11145 1.01551
1229.06301 1.01760
1227.01458 1.01957
1224.96614 1.02160
1222.91770 1.02364
1220.86926 1.02545
1218.82082 1.02706
1216.77238 1.02881
1214.72395 1.03068
1212.67551 1.03241
1210.62707 1.03394
1208.57863 1.03543
1206.53019 1.03701
1204.48175 1.03861
1202.43332 1.04023
1200.38488 1.04184
1198.33644 1.04343
1196.28800 1.04504
1194.23956 1.04673
1192.19112 1.04845
1190.14269 1.05010
1188.09425 1.05146
1186.04581 1.05253
1183.99737 1.05361
1181.94893 1.05474
1179.90049 1.05588
1177.85206 1.05705
1175.80362 1.05825
1173.75518 1.05954
1171.70674 1.06098
1169.65830 1.06232
1167.60986 1.06351
1165.56143 1.06462
1163.51299 1.06572
1161.46455 1.06702
1159.41611 1.06830
1157.36767 1.06931
1155.31923 1.07026
1153.27080 1.07145
1151.22236 1.07275
1149.17392 1.07397
1147.12548 1.07507
1145.07704 1.07614
1143.02860 1.07727
1140.98017 1.07857
1138.93173 1.07983
1136.88329 1.08093
1134.83485 1.08203
1132.78641 1.08295
1130.73797 1.08362
1128.68954 1.08447
1126.64110 1.08549
1124.59266 1.08647
1122.54422 1.08761
1120.49578 1.08907
1118.44734 1.09060
1116.39891 1.09175
1114.35047 1.09232
1112.30203 1.09224
1110.25359 1.09182
1108.20515 1.09154
1106.15671 1.09139
1104.10827 1.09118
1102.05984 1.09106
1100.01140 1.09128
1097.96296 1.09176
1095.91452 1.09248
1093.86608 1.09357
1091.81764 1.09495
1089.76921 1.09641
1087.72077 1.09806
1085.67233 1.09991
1083.62389 1.10173
1081.57545 1.10335
1079.52701 1.10492
1077.47858 1.10678
1075.43014 1.10878
1073.38170 1.11103
1071.33326 1.11362
1069.28482 1.11685
1067.23638 1.12097
1065.18795 1.12624
1063.13951 1.13347
1061.09107 1.14444
1059.04263 1.15985
1056.99419 1.16749
1054.94575 1.12770
1052.89732 1.04623
1050.84888 1.00010
1048.80044 1.01421
1046.75200 1.04631
1044.70356 1.06564
1042.65512 1.07564
1040.60669 1.08160
1038.55825 1.08564
1036.50981 1.08901
1034.46137 1.09195
1032.41293 1.09396
1030.36449 1.09545
1028.31606 1.09708
1026.26762 1.09891
1024.21918 1.10058
1022.17074 1.10236
1020.12230 1.10406
1018.07386 1.10547
1016.02543 1.10678
1013.97699 1.10793
1011.92855 1.10915
1009.88011 1.11055
1007.83167 1.11171
1005.78323 1.11238
1003.73480 1.11303
1001.68636 1.11376
999.63792 1.11448
997.58948 1.11516
995.54104 1.11562
993.49260 1.11575
991.44417 1.11595
989.39573 1.11643
987.34729 1.11699
985.29885 1.11747
983.25041 1.11795
981.20197 1.11892
979.15354 1.12037
977.10510 1.12182
975.05666 1.12306
973.00822 1.12452
970.95978 1.12603
968.91134 1.12738
966.86290 1.12867
964.81447 1.12993
962.76603 1.13112
960.71759 1.13213
958.66915 1.13325
956.62071 1.13456
954.57227 1.13586
952.52384 1.13715
950.47540 1.13861
948.42696 1.14002
946.37852 1.14125
944.33008 1.14270
942.28164 1.14432
940.23321 1.14578
938.18477 1.14718
936.13633 1.14859
934.08789 1.14994
932.03945 1.15123
929.99101 1.15250
927.94258 1.15405
925.89414 1.15575
923.84570 1.15730
921.79726 1.15877
919.74882 1.16038
917.70038 1.16218
915.65195 1.16395
913.60351 1.16539
911.55507 1.16635
909.50663 1.16744
907.45819 1.16937
905.40975 1.17189
903.36132 1.17429
901.31288 1.17657
899.26444 1.17874
897.21600 1.18077
895.16756 1.18331
893.11912 1.18641
891.07069 1.18921
889.02225 1.19157
886.97381 1.19401
884.92537 1.19645
882.87693 1.19900
880.82849 1.20243
878.78006 1.20720
876.73162 1.21244
874.68318 1.21683
872.63474 1.22080
870.58630 1.22626
868.53786 1.23378
866.48943 1.24231
864.44099 1.25119
862.39255 1.26083
860.34411 1.27246
858.29567 1.28658
856.24723 1.30272
854.19880 1.32007
852.15036 1.33278
850.10192 1.31429
848.05348 1.21148
846.00504 1.03083
843.95660 0.86037
841.90817 0.75580
839.85973 0.72515
837.81129 0.75806
835.76285 0.83173
833.71441 0.91178
831.66597 0.97321
829.61753 1.01429
827.56910 1.04080
825.52066 1.05485
823.47222 1.06112
821.42378 1.06862
819.37534 1.07975
817.32690 1.09010
815.27847 1.09812
813.23003 1.10511
811.18159 1.11139
809.13315 1.11684
807.08471 1.12188
805.03627 1.12649
802.98784 1.13044
800.93940 1.13427
798.89096 1.13779
796.84252 1.14047
794.79408 1.14256
792.74564 1.14497
790.69721 1.14822
788.64877 1.15143
786.60033 1.15397
784.55189 1.15636
782.50345 1.15850
780.45501 1.16040
778.40658 1.16293
776.35814 1.16553
774.30970 1.16728
772.26126 1.16816
770.21282 1.16930
768.16438 1.17192
766.11595 1.17461
764.06751 1.17611
762.01907 1.17830
759.97063 1.18203
757.92219 1.18478
755.87375 1.18606
753.82532 1.18749
751.77688 1.18916
749.72844 1.19131
747.68000 1.19383
745.63156 1.19612
743.58312 1.19880
741.53469 1.20188
739.48625 1.20418
737.43781 1.20540
735.38937 1.20633
733.34093 1.20809
731.29249 1.21070
729.24406 1.21326
727.19562 1.21587
725.14718 1.21831
723.09874 1.21993
721.05030 1.22168
719.00186 1.22456
716.95343 1.22840
714.90499 1.23284
712.85655 1.23703
710.80811 1.24132
708.75967 1.24694
706.71123 1.25431
704.66280 1.26367
702.61436 1.27326
700.56592 1.28111
698.51748 1.29029
696.46904 1.30316
694.42060 1.31821
692.37216 1.33596
690.32373 1.36010
688.27529 1.39699
686.22685 1.43032
684.17841 1.38285
682.12997 1.17694
680.08153 0.93348
678.03310 0.79950
675.98466 0.80351
673.93622 0.89299
671.88778 0.97922
669.83934 1.03134
667.79090 1.07522
665.74247 1.10245
663.69403 1.11600
661.64559 1.12947
659.59715 1.14186
657.54871 1.14920
655.50027 1.15273
653.45184 1.15879
651.40340 1.16796
649.35496 1.17466
647.30652 1.17941
645.25808 1.18391
643.20964 1.18554
641.16121 1.18484
639.11277 1.18322
637.06433 1.18290
635.01589 1.18792
632.96745 1.19578
630.91901 1.19989
628.87058 1.19967
626.82214 1.20029
624.77370 1.20083
622.72526 1.20045
620.67682 1.20403
618.62838 1.20916
616.57995 1.20901
614.53151 1.20665
612.48307 1.20608
610.43463 1.20583
608.38619 1.20703
606.33775 1.20312
604.28932 1.19496
602.24088 1.19336
600.19244 1.19788
598.14400 1.20697
