3996.50324 1.56115
3994.45480 1.56052
3992.40636 1.56033
3990.35792 1.56079
3988.30948 1.56080
3986.26104 1.56064
3984.21261 1.56074
3982.16417 1.56041
3980.11573 1.56001
3978.06729 1.55997
3976.01885 1.55939
3973.97041 1.55852
3971.92198 1.55897
3969.87354 1.56025
3967.82510 1.56058
3965.77666 1.55975
3963.72822 1.55888
3961.67978 1.55919
3959.63135 1.55979
3957.58291 1.56021
3955.53447 1.56094
3953.48603 1.56053
3951.43759 1.55938
3949.38915 1.55953
3947.34072 1.56053
3945.29228 1.56046
3943.24384 1.55986
3941.19540 1.55996
3939.14696 1.56012
3937.09852 1.56048
3935.05009 1.56093
3933.00165 1.56092
3930.95321 1.56137
3928.90477 1.56157
3926.85633 1.55983
3924.80789 1.55856
3922.75946 1.55952
3920.71102 1.55967
3918.66258 1.55886
3916.61414 1.56066
3914.56570 1.56466
3912.51726 1.56648
3910.46883 1.56578
3908.42039 1.56479
3906.37195 1.56413
3904.32351 1.56434
3902.27507 1.56479
3900.22663 1.56524
3898.17820 1.56759
3896.12976 1.56878
3894.08132 1.56714
3892.03288 1.56722
3889.98444 1.57075
3887.93600 1.57148
3885.88756 1.56975
3883.83913 1.56895
3881.79069 1.56842
3879.74225 1.56965
3877.69381 1.57053
3875.64537 1.56830
3873.59693 1.56610
3871.54850 1.56680
3869.50006 1.57094
3867.45162 1.57320
3865.40318 1.57122
3863.35474 1.57158
3861.30630 1.57496
3859.25787 1.57514
3857.20943 1.57174
3855.16099 1.56798
3853.11255 1.57003
3851.06411 1.57531
3849.01567 1.57685
3846.96724 1.57632
3844.91880 1.57518
3842.87036 1.57491
3840.82192 1.57469
3838.77348 1.57465
3836.72504 1.57678
3834.67661 1.57752
3832.62817 1.57717
3830.57973 1.57763
3828.53129 1.57755
3826.48285 1.57751
3824.43441 1.57778
3822.38598 1.57774
3820.33754 1.57941
3818.28910 1.58050
3816.24066 1.58116
3814.19222 1.58325
3812.14378 1.58284
3810.09535 1.57982
3808.04691 1.57722
3805.99847 1.57688
3803.95003 1.57680
3801.90159 1.57740
3799.85315 1.57934
3797.80472 1.58003
3795.75628 1.58196
3793.70784 1.58370
3791.65940 1.58277
3789.61096 1.58202
3787.56252 1.58242
3785.51409 1.58280
3783.46565 1.58301
3781.41721 1.58265
3779.36877 1.58283
3777.32033 1.58453
3775.27189 1.58647
3773.22346 1.58755
3771.17502 1.58716
3769.12658 1.58626
3767.07814 1.58546
3765.02970 1.58442
3762.98126 1.58318
3760.93283 1.58196
3758.88439 1.58159
3756.83595 1.58065
3754.78751 1.57816
3752.73907 1.57641
3750.69063 1.57758
3748.64219 1.57817
3746.59376 1.57678
3744.54532 1.57669
3742.49688 1.57746
3740.44844 1.57695
3738.40000 1.57537
3736.35156 1.57387
3734.30313 1.57555
3732.25469 1.57881
3730.20625 1.57903
3728.15781 1.57570
3726.10937 1.57180
3724.06093 1.57165
3722.01250 1.57454
3719.96406 1.57648
3717.91562 1.57640
3715.86718 1.57511
3713.81874 1.57269
3711.77030 1.57215
3709.72187 1.57594
3707.67343 1.57836
3705.62499 1.57869
3703.57655 1.57826
3701.52811 1.57816
3699.47967 1.57916
3697.43124 1.58053
3695.38280 1.58076
3693.33436 1.57854
3691.28592 1.57601
3689.23748 1.57812
3687.18904 1.58246
3685.14061 1.58311
3683.09217 1.58162
3681.04373 1.58098
3678.99529 1.58162
3676.94685 1.58246
3674.89841 1.58361
3672.84998 1.58189
3670.80154 1.57894
3668.75310 1.58061
3666.70466 1.58304
3664.65622 1.58274
3662.60778 1.58208
3660.55935 1.58166
3658.51091 1.58030
3656.46247 1.57962
3654.41403 1.58064
3652.36559 1.57968
3650.31715 1.57697
3648.26872 1.57768
3646.22028 1.57933
3644.17184 1.57890
3642.12340 1.57753
3640.07496 1.57589
3638.02652 1.57427
3635.97809 1.57247
3633.92965 1.57038
3631.88121 1.56786
3629.83277 1.56719
3627.78433 1.57339
3625.73589 1.57861
3623.68746 1.57960
3621.63902 1.57938
3619.59058 1.57986
3617.54214 1.58102
3615.49370 1.57955
3613.44526 1.57601
3611.39682 1.57273
3609.34839 1.57045
3607.29995 1.57215
3605.25151 1.57589
3603.20307 1.57604
3601.15463 1.57397
3599.10619 1.57384
3597.05776 1.57451
3595.00932 1.57390
3592.96088 1.57333
3590.91244 1.57295
3588.86400 1.57260
3586.81556 1.57407
3584.76713 1.57507
3582.71869 1.57462
3580.67025 1.57521
3578.62181 1.57621
3576.57337 1.57681
3574.52493 1.57751
3572.47650 1.57682
3570.42806 1.57473
3568.37962 1.57391
3566.33118 1.57613
3564.28274 1.57833
3562.23430 1.57926
3560.18587 1.58050
3558.13743 1.58189
3556.08899 1.58213
3554.04055 1.58138
3551.99211 1.58136
3549.94367 1.58173
3547.89524 1.58120
3545.84680 1.58135
3543.79836 1.58283
3541.74992 1.58317
3539.70148 1.58257
3537.65304 1.58313
3535.60461 1.58428
3533.55617 1.58461
3531.50773 1.58472
3529.45929 1.58440
3527.41085 1.58390
3525.36241 1.58446
3523.31398 1.58474
3521.26554 1.58441
3519.21710 1.58515
3517.16866 1.58633
3515.12022 1.58647
3513.07178 1.58555
3511.02335 1.58434
3508.97491 1.58422
3506.92647 1.58526
3504.87803 1.58620
3502.82959 1.58687
3500.78115 1.58736
3498.73272 1.58739
3496.68428 1.58722
3494.63584 1.58756
3492.58740 1.58854
3490.53896 1.58876
3488.49052 1.58772
3486.44209 1.58704
3484.39365 1.58649
3482.34521 1.58586
3480.29677 1.58733
3478.24833 1.59019
3476.19989 1.59155
3474.15146 1.59105
3472.10302 1.59089
3470.05458 1.59170
3468.00614 1.59210
3465.95770 1.59241
3463.90926 1.59324
3461.86082 1.59370
3459.81239 1.59404
3457.76395 1.59512
3455.71551 1.59594
3453.66707 1.59586
3451.61863 1.59558
3449.57019 1.59523
3447.52176 1.59514
3445.47332 1.59511
3443.42488 1.59430
3441.37644 1.59359
3439.32800 1.59338
3437.27956 1.59316
3435.23113 1.59363
3433.18269 1.59424
3431.13425 1.59407
3429.08581 1.59382
3427.03737 1.59337
3424.98893 1.59271
3422.94050 1.59290
3420.89206 1.59323
3418.84362 1.59220
3416.79518 1.59142
3414.74674 1.59254
3412.69830 1.59404
3410.64987 1.59485
3408.60143 1.59500
3406.55299 1.59410
3404.50455 1.59291
3402.45611 1.59237
3400.40767 1.59170
3398.35924 1.59022
3396.31080 1.58926
3394.26236 1.59002
3392.21392 1.59066
3390.16548 1.58931
3388.11704 1.58811
3386.06861 1.58877
3384.02017 1.58966
3381.97173 1.59014
3379.92329 1.59040
3377.87485 1.58976
3375.82641 1.58837
3373.77798 1.58699
3371.72954 1.58654
3369.68110 1.58667
3367.63266 1.58666
3365.58422 1.58662
3363.53578 1.58679
3361.48735 1.58751
3359.43891 1.58835
3357.39047 1.58841
3355.34203 1.58734
3353.29359 1.58644
3351.24515 1.58673
3349.19672 1.58733
3347.14828 1.58705
3345.09984 1.58556
3343.05140 1.58426
3341.00296 1.58421
3338.95452 1.58458
3336.90609 1.58499
3334.85765 1.58567
3332.80921 1.58634
3330.76077 1.58664
3328.71233 1.58630
3326.66389 1.58575
3324.61545 1.58595
3322.56702 1.58677
3320.51858 1.58698
3318.47014 1.58622
3316.42170 1.58570
3314.37326 1.58561
3312.32482 1.58491
3310.27639 1.58376
3308.22795 1.58337
3306.17951 1.58419
3304.13107 1.58512
3302.08263 1.58561
3300.03419 1.58586
3297.98576 1.58530
3295.93732 1.58380
3293.88888 1.58264
3291.84044 1.58234
3289.79200 1.58258
3287.74356 1.58340
3285.69513 1.58410
3283.64669 1.58394
3281.59825 1.58279
3279.54981 1.58145
3277.50137 1.58164
3275.45293 1.58274
3273.40450 1.58332
3271.35606 1.58382
3269.30762 1.58392
3267.25918 1.58344
3265.21074 1.58322
3263.16230 1.58340
3261.11387 1.58361
3259.06543 1.58397
3257.01699 1.58441
3254.96855 1.58422
3252.92011 1.58367
3250.87167 1.58321
3248.82324 1.58304
3246.77480 1.58321
3244.72636 1.58315
3242.67792 1.58269
3240.62948 1.58230
3238.58104 1.58253
3236.53261 1.58333
3234.48417 1.58448
3232.43573 1.58583
3230.38729 1.58638
3228.33885 1.58556
3226.29041 1.58431
3224.24198 1.58337
3222.19354 1.58284
3220.14510 1.58293
3218.09666 1.58316
3216.04822 1.58324
3213.99978 1.58373
3211.95135 1.58436
3209.90291 1.58477
3207.85447 1.58542
3205.80603 1.58655
3203.75759 1.58763
3201.70915 1.58800
3199.66072 1.58798
3197.61228 1.58784
3195.56384 1.58703
3193.51540 1.58589
3191.46696 1.58532
3189.41852 1.58530
3187.37008 1.58576
3185.32165 1.58668
3183.27321 1.58713
3181.22477 1.58686
3179.17633 1.58679
3177.12789 1.58724
3175.07945 1.58760
3173.03102 1.58739
3170.98258 1.58718
3168.93414 1.58764
3166.88570 1.58830
3164.83726 1.58902
3162.78882 1.59025
3160.74039 1.59059
3158.69195 1.58965
3156.64351 1.58954
3154.59507 1.59055
3152.54663 1.59104
3150.49819 1.59030
3148.44976 1.58911
3146.40132 1.58851
3144.35288 1.58888
3142.30444 1.58968
3140.25600 1.59022
3138.20756 1.59017
3136.15913 1.58952
3134.11069 1.58981
3132.06225 1.59159
3130.01381 1.59281
3127.96537 1.59278
3125.91693 1.59285
3123.86850 1.59371
3121.82006 1.59452
3119.77162 1.59442
3117.72318 1.59388
3115.67474 1.59370
3113.62630 1.59413
3111.57787 1.59448
3109.52943 1.59418
3107.48099 1.59401
3105.43255 1.59417
3103.38411 1.59426
3101.33567 1.59419
3099.28724 1.59433
3097.23880 1.59541
3095.19036 1.59685
3093.14192 1.59789
3091.09348 1.59865
3089.04504 1.59883
3086.99661 1.59852
3084.94817 1.59841
3082.89973 1.59871
3080.85129 1.59906
3078.80285 1.59880
3076.75441 1.59822
3074.70598 1.59824
3072.65754 1.59824
3070.60910 1.59761
3068.56066 1.59706
3066.51222 1.59661
3064.46378 1.59606
3062.41535 1.59584
3060.36691 1.59649
3058.31847 1.59768
3056.27003 1.59798
3054.22159 1.59733
3052.17315 1.59696
3050.12471 1.59686
3048.07628 1.59636
3046.02784 1.59570
3043.97940 1.59552
3041.93096 1.59582
3039.88252 1.59627
3037.83408 1.59704
3035.78565 1.59816
3033.73721 1.59867
3031.68877 1.59793
3029.64033 1.59669
3027.59189 1.59642
3025.54345 1.59719
3023.49502 1.59782
3021.44658 1.59773
3019.39814 1.59775
3017.34970 1.59865
3015.30126 1.59959
3013.25282 1.60032
3011.20439 1.60102
3009.15595 1.60097
3007.10751 1.60056
3005.05907 1.60075
3003.01063 1.60136
3000.96219 1.60185
2998.91376 1.60213
2996.86532 1.60200
2994.81688 1.60165
2992.76844 1.60197
2990.72000 1.60272
2988.67156 1.60298
2986.62313 1.60339
2984.57469 1.60418
2982.52625 1.60423
2980.47781 1.60366
2978.42937 1.60399
2976.38093 1.60515
2974.33250 1.60586
2972.28406 1.60600
2970.23562 1.60598
2968.18718 1.60625
2966.13874 1.60663
2964.09030 1.60665
2962.04187 1.60685
2959.99343 1.60744
2957.94499 1.60758
2955.89655 1.60745
2953.84811 1.60797
2951.79967 1.60853
2949.75124 1.60834
2947.70280 1.60804
2945.65436 1.60845
2943.60592 1.60874
2941.55748 1.60793
2939.50904 1.60706
2937.46061 1.60727
2935.41217 1.60807
2933.36373 1.60886
2931.31529 1.60952
2929.26685 1.61025
2927.21841 1.61093
2925.16998 1.61101
2923.12154 1.61076
2921.07310 1.61009
2919.02466 1.60863
2916.97622 1.60796
2914.92778 1.60919
2912.87934 1.61068
2910.83091 1.61103
2908.78247 1.61093
2906.73403 1.61109
2904.68559 1.61131
2902.63715 1.61153
2900.58871 1.61180
2898.54028 1.61186
2896.49184 1.61178
2894.44340 1.61180
2892.39496 1.61194
2890.34652 1.61265
2888.29808 1.61382
2886.24965 1.61423
2884.20121 1.61404
2882.15277 1.61409
2880.10433 1.61461
2878.05589 1.61533
2876.00745 1.61503
2873.95902 1.61423
2871.91058 1.61452
2869.86214 1.61501
2867.81370 1.61494
2865.76526 1.61511
2863.71682 1.61553
2861.66839 1.61580
2859.61995 1.61559
2857.57151 1.61477
2855.52307 1.61433
2853.47463 1.61494
2851.42619 1.61581
2849.37776 1.61650
2847.32932 1.61750
2845.28088 1.61805
2843.23244 1.61793
2841.18400 1.61822
2839.13556 1.61876
2837.08713 1.61923
2835.03869 1.61957
2832.99025 1.61987
2830.94181 1.62009
2828.89337 1.61974
2826.84493 1.61924
2824.79650 1.61883
2822.74806 1.61840
2820.69962 1.61819
2818.65118 1.61814
2816.60274 1.61820
2814.55430 1.61830
2812.50587 1.61869
2810.45743 1.61946
2808.40899 1.62000
2806.36055 1.62030
2804.31211 1.62056
2802.26367 1.62051
2800.21524 1.62011
2798.16680 1.61964
2796.11836 1.61973
2794.06992 1.62015
2792.02148 1.61974
2789.97304 1.61877
2787.92461 1.61909
2785.87617 1.62064
2783.82773 1.62136
2781.77929 1.62103
2779.73085 1.62047
2777.68241 1.61986
2775.63397 1.61930
2773.58554 1.61894
2771.53710 1.61914
2769.48866 1.61980
2767.44022 1.62016
2765.39178 1.62023
2763.34334 1.62059
2761.29491 1.62078
2759.24647 1.62041
2757.19803 1.61991
2755.14959 1.61932
2753.10115 1.61872
2751.05271 1.61898
2749.00428 1.62004
2746.95584 1.62051
2744.90740 1.61981
2742.85896 1.61869
2740.81052 1.61864
2738.76208 1.61948
2736.71365 1.61911
2734.66521 1.61749
2732.61677 1.61680
2730.56833 1.61782
2728.51989 1.61919
2726.47145 1.61960
2724.42302 1.61947
2722.37458 1.61953
2720.32614 1.61942
2718.27770 1.61911
2716.22926 1.61888
2714.18082 1.61825
2712.13239 1.61732
2710.08395 1.61679
2708.03551 1.61677
2705.98707 1.61712
2703.93863 1.61768
2701.89019 1.61817
2699.84176 1.61855
2697.79332 1.61876
2695.74488 1.61849
2693.69644 1.61784
2691.64800 1.61770
2689.59956 1.61853
2687.55113 1.61930
2685.50269 1.61931
2683.45425 1.61870
2681.40581 1.61787
2679.35737 1.61785
2677.30893 1.61846
2675.26050 1.61899
2673.21206 1.61973
2671.16362 1.61999
2669.11518 1.61931
2667.06674 1.61888
2665.01830 1.61938
2662.96987 1.61991
2660.92143 1.61985
2658.87299 1.62015
2656.82455 1.62080
2654.77611 1.62094
2652.72767 1.62081
2650.67924 1.62040
2648.63080 1.62007
2646.58236 1.62030
2644.53392 1.62010
2642.48548 1.61901
2640.43704 1.61827
2638.38860 1.61856
2636.34017 1.61909
2634.29173 1.61913
2632.24329 1.61871
2630.19485 1.61831
2628.14641 1.61861
2626.09797 1.61936
2624.04954 1.61986
2622.00110 1.62026
2619.95266 1.62030
2617.90422 1.61982
2615.85578 1.61949
2613.80734 1.61932
2611.75891 1.61941
2609.71047 1.62021
2607.66203 1.62068
2605.61359 1.61993
2603.56515 1.61914
2601.51671 1.61910
2599.46828 1.61930
2597.41984 1.61950
2595.37140 1.62001
2593.32296 1.62099
2591.27452 1.62170
2589.22608 1.62127
2587.17765 1.62013
2585.12921 1.61982
2583.08077 1.62054
2581.03233 1.62136
2578.98389 1.62206
2576.93545 1.62253
2574.88702 1.62276
2572.83858 1.62338
2570.79014 1.62402
2568.74170 1.62316
2566.69326 1.62160
2564.64482 1.62165
2562.59639 1.62344
2560.54795 1.62485
2558.49951 1.62511
2556.45107 1.62536
2554.40263 1.62589
2552.35419 1.62658
2550.30576 1.62707
2548.25732 1.62701
2546.20888 1.62696
2544.16044 1.62726
2542.11200 1.62790
2540.06356 1.62823
2538.01513 1.62783
2535.96669 1.62752
2533.91825 1.62780
2531.86981 1.62821
2529.82137 1.62861
2527.77293 1.62918
2525.72450 1.62947
2523.67606 1.62946
2521.62762 1.62987
2519.57918 1.63002
2517.53074 1.62942
2515.48230 1.62895
2513.43387 1.62906
2511.38543 1.62989
2509.33699 1.63072
2507.28855 1.63063
2505.24011 1.63030
2503.19167 1.63045
2501.14324 1.63106
2499.09480 1.63185
2497.04636 1.63235
2494.99792 1.63302
2492.94948 1.63382
2490.90104 1.63358
2488.85260 1.63296
2486.80417 1.63291
2484.75573 1.63292
2482.70729 1.63282
2480.65885 1.63282
2478.61041 1.63330
2476.56197 1.63450
2474.51354 1.63551
2472.46510 1.63580
2470.41666 1.63566
2468.36822 1.63494
2466.31978 1.63408
2464.27134 1.63414
2462.22291 1.63516
2460.17447 1.63606
2458.12603 1.63689
2456.07759 1.63771
2454.02915 1.63733
2451.98071 1.63639
2449.93228 1.63660
2447.88384 1.63763
2445.83540 1.63810
2443.78696 1.63853
2441.73852 1.63961
2439.69008 1.64049
2437.64165 1.64103
2435.59321 1.64152
2433.54477 1.64150
2431.49633 1.64160
2429.44789 1.64215
2427.39945 1.64178
2425.35102 1.64069
2423.30258 1.64018
2421.25414 1.64030
2419.20570 1.64037
2417.15726 1.64020
2415.10882 1.63977
2413.06039 1.63863
2411.01195 1.63707
2408.96351 1.63594
2406.91507 1.63559
2404.86663 1.63539
2402.81819 1.63481
2400.76976 1.63444
2398.72132 1.63443
2396.67288 1.63445
2394.62444 1.63413
2392.57600 1.63378
2390.52756 1.63431
2388.47913 1.63472
2386.43069 1.63440
2384.38225 1.63421
2382.33381 1.63343
2380.28537 1.63219
2378.23693 1.63180
2376.18850 1.63161
2374.14006 1.63127
2372.09162 1.63022
2370.04318 1.62616
2367.99474 1.62066
2365.94630 1.61808
2363.89787 1.61846
2361.84943 1.61896
2359.80099 1.61933
2357.75255 1.62179
2355.70411 1.62264
2353.65567 1.62153
2351.60723 1.62406
2349.55880 1.62711
2347.51036 1.62722
2345.46192 1.62540
2343.41348 1.62329
2341.36504 1.62264
2339.31660 1.62413
2337.26817 1.62542
2335.21973 1.62569
2333.17129 1.62643
2331.12285 1.62800
2329.07441 1.62925
2327.02597 1.62897
2324.97754 1.62731
2322.92910 1.62625
2320.88066 1.62703
2318.83222 1.62842
2316.78378 1.62983
2314.73534 1.63105
2312.68691 1.63108
2310.63847 1.62993
2308.59003 1.62961
2306.54159 1.63098
2304.49315 1.63215
2302.44471 1.63195
2300.39628 1.63121
2298.34784 1.63082
2296.29940 1.63111
2294.25096 1.63167
2292.20252 1.63173
2290.15408 1.63156
2288.10565 1.63139
2286.05721 1.63096
2284.00877 1.63121
2281.96033 1.63232
2279.91189 1.63242
2277.86345 1.63140
2275.81502 1.63111
2273.76658 1.63186
2271.71814 1.63298
2269.66970 1.63351
2267.62126 1.63317
2265.57282 1.63293
2263.52439 1.63280
2261.47595 1.63248
2259.42751 1.63211
2257.37907 1.63211
2255.33063 1.63278
2253.28219 1.63323
2251.23376 1.63285
2249.18532 1.63279
2247.13688 1.63374
2245.08844 1.63450
2243.04000 1.63470
2240.99156 1.63509
2238.94313 1.63551
2236.89469 1.63550
2234.84625 1.63527
2232.79781 1.63559
2230.74937 1.63648
2228.70093 1.63687
2226.65250 1.63644
2224.60406 1.63585
2222.55562 1.63552
2220.50718 1.63533
2218.45874 1.63536
2216.41030 1.63577
2214.36186 1.63600
2212.31343 1.63559
2210.26499 1.63492
2208.21655 1.63412
2206.16811 1.63353
2204.11967 1.63385
2202.07123 1.63461
2200.02280 1.63508
2197.97436 1.63496
2195.92592 1.63428
2193.87748 1.63424
2191.82904 1.63531
2189.78060 1.63616
2187.73217 1.63593
2185.68373 1.63499
2183.63529 1.63437
2181.58685 1.63463
2179.53841 1.63555
2177.48997 1.63660
2175.44154 1.63729
2173.39310 1.63752
2171.34466 1.63770
2169.29622 1.63848
2167.24778 1.63981
2165.19934 1.64064
2163.15091 1.64089
2161.10247 1.64162
2159.05403 1.64292
2157.00559 1.64439
2154.95715 1.64569
2152.90871 1.64600
2150.86028 1.64531
2148.81184 1.64459
2146.76340 1.64452
2144.71496 1.64528
2142.66652 1.64608
2140.61808 1.64565
2138.56965 1.64415
2136.52121 1.64283
2134.47277 1.64265
2132.42433 1.64343
2130.37589 1.64384
2128.32745 1.64381
2126.27902 1.64393
2124.23058 1.64360
2122.18214 1.64298
2120.13370 1.64312
2118.08526 1.64387
2116.03682 1.64456
2113.98839 1.64504
2111.93995 1.64565
2109.89151 1.64679
2107.84307 1.64840
2105.79463 1.65007
2103.74619 1.65172
2101.69776 1.65379
2099.64932 1.65558
2097.60088 1.65631
2095.55244 1.65587
2093.50400 1.65409
2091.45556 1.65236
2089.40713 1.65208
2087.35869 1.65235
2085.31025 1.65224
2083.26181 1.65223
2081.21337 1.65240
2079.16493 1.65273
2077.11649 1.65366
2075.06806 1.65491
2073.01962 1.65618
2070.97118 1.65714
2068.92274 1.65748
2066.87430 1.65777
2064.82586 1.65857
2062.77743 1.65971
2060.72899 1.66088
2058.68055 1.66199
2056.63211 1.66293
2054.58367 1.66320
2052.53523 1.66263
2050.48680 1.66208
2048.43836 1.66245
2046.38992 1.66343
2044.34148 1.66396
2042.29304 1.66375
2040.24460 1.66330
2038.19617 1.66259
2036.14773 1.66204
2034.09929 1.66221
2032.05085 1.66191
2030.00241 1.66072
2027.95397 1.65974
2025.90554 1.65881
2023.85710 1.65763
2021.80866 1.65642
2019.76022 1.65514
2017.71178 1.65429
2015.66334 1.65411
2013.61491 1.65405
2011.56647 1.65382
2009.51803 1.65364
2007.46959 1.65377
2005.42115 1.65386
2003.37271 1.65394
2001.32428 1.65451
1999.27584 1.65501
1997.22740 1.65512
1995.17896 1.65513
1993.13052 1.65474
1991.08208 1.65454
1989.03365 1.65508
1986.98521 1.65511
1984.93677 1.65441
1982.88833 1.65437
1980.83989 1.65514
1978.79145 1.65536
1976.74302 1.65464
1974.69458 1.65406
1972.64614 1.65368
1970.59770 1.65258
1968.54926 1.65105
1966.50082 1.65077
1964.45239 1.65175
1962.40395 1.65257
1960.35551 1.65291
1958.30707 1.65281
1956.25863 1.65241
1954.21019 1.65217
1952.16176 1.65238
1950.11332 1.65319
1948.06488 1.65408
1946.01644 1.65414
1943.96800 1.65406
1941.91956 1.65571
1939.87112 1.65807
1937.82269 1.65929
1935.77425 1.66031
1933.72581 1.66179
1931.67737 1.66304
1929.62893 1.66359
1927.58049 1.66348
1925.53206 1.66331
1923.48362 1.66399
1921.43518 1.66486
1919.38674 1.66459
1917.33830 1.66477
1915.28986 1.66651
1913.24143 1.66829
1911.19299 1.67006
1909.14455 1.67216
1907.09611 1.67361
1905.04767 1.67463
1902.99923 1.67617
1900.95080 1.67716
1898.90236 1.67684
1896.85392 1.67685
1894.80548 1.67819
1892.75704 1.67890
1890.70860 1.67864
1888.66017 1.67962
1886.61173 1.68088
1884.56329 1.68115
1882.51485 1.68155
1880.46641 1.68244
1878.41797 1.68316
1876.36954 1.68332
1874.32110 1.68350
1872.27266 1.68341
1870.22422 1.68249
1868.17578 1.68301
1866.12734 1.68571
1864.07891 1.68751
1862.03047 1.68805
1859.98203 1.68856
1857.93359 1.68954
1855.88515 1.69066
1853.83671 1.69177
1851.78828 1.69279
1849.73984 1.69364
1847.69140 1.69400
1845.64296 1.69408
1843.59452 1.69541
1841.54608 1.69705
1839.49765 1.69780
1837.44921 1.69882
1835.40077 1.70025
1833.35233 1.70094
1831.30389 1.70093
1829.25545 1.70174
1827.20702 1.70341
1825.15858 1.70536
1823.11014 1.70723
1821.06170 1.70833
1819.01326 1.70954
1816.96482 1.71066
1814.91639 1.71033
1812.86795 1.70926
1810.81951 1.70948
1808.77107 1.71114
1806.72263 1.71300
1804.67419 1.71461
1802.62575 1.71560
1800.57732 1.71707
1798.52888 1.71953
1796.48044 1.72122
1794.43200 1.72211
1792.38356 1.72372
1790.33512 1.72596
1788.28669 1.72738
1786.23825 1.72878
1784.18981 1.73022
1782.14137 1.73072
1780.09293 1.73163
1778.04449 1.73313
1775.99606 1.73325
1773.94762 1.73225
1771.89918 1.73355
1769.85074 1.73721
1767.80230 1.73948
1765.75386 1.74040
1763.70543 1.74064
1761.65699 1.74144
1759.60855 1.74431
1757.56011 1.74861
1755.51167 1.75251
1753.46323 1.75405
1751.41480 1.75466
1749.36636 1.75724
1747.31792 1.76040
1745.26948 1.76131
1743.22104 1.75909
1741.17260 1.75543
1739.12417 1.75422
1737.07573 1.75470
1735.02729 1.75360
1732.97885 1.75115
1730.93041 1.74814
1728.88197 1.74352
1726.83354 1.73902
1724.78510 1.73729
1722.73666 1.73870
1720.68822 1.74086
1718.63978 1.74346
1716.59134 1.74875
1714.54291 1.75350
1712.49447 1.75563
1710.44603 1.75688
1708.39759 1.75828
1706.34915 1.75946
1704.30071 1.75975
1702.25228 1.75999
1700.20384 1.76239
1698.15540 1.76587
1696.10696 1.76807
1694.05852 1.77092
1692.01008 1.77343
1689.96165 1.77494
1687.91321 1.77583
1685.86477 1.77678
1683.81633 1.77910
1681.76789 1.78238
1679.71945 1.78497
1677.67102 1.78635
1675.62258 1.78716
1673.57414 1.78833
1671.52570 1.78987
1669.47726 1.79264
1667.42882 1.79541
1665.38038 1.79665
1663.33195 1.79840
1661.28351 1.80162
1659.23507 1.80376
1657.18663 1.80389
1655.13819 1.80307
1653.08975 1.80510
1651.04132 1.80805
1648.99288 1.80811
1646.94444 1.81069
1644.89600 1.81667
1642.84756 1.81973
1640.79912 1.82129
1638.75069 1.82285
1636.70225 1.82536
1634.65381 1.82943
1632.60537 1.83154
1630.55693 1.83260
1628.50849 1.83423
1626.46006 1.83604
1624.41162 1.83780
1622.36318 1.84127
1620.31474 1.84542
1618.26630 1.85031
1616.21786 1.85540
1614.16943 1.85717
1612.12099 1.85774
1610.07255 1.85913
1608.02411 1.86296
1605.97567 1.86792
1603.92723 1.87167
1601.87880 1.87460
1599.83036 1.87776
1597.78192 1.88158
1595.73348 1.88584
1593.68504 1.88836
1591.63660 1.89072
1589.58817 1.89571
1587.53973 1.90142
1585.49129 1.90602
1583.44285 1.90985
1581.39441 1.91277
1579.34597 1.91399
1577.29754 1.91719
1575.24910 1.92542
1573.20066 1.93222
1571.15222 1.93744
1569.10378 1.94315
1567.05534 1.94619
1565.00691 1.94871
1562.95847 1.95209
1560.91003 1.95482
1558.86159 1.96183
1556.81315 1.97030
1554.76471 1.97560
1552.71628 1.98019
1550.66784 1.98545
1548.61940 1.99107
1546.57096 1.99513
1544.52252 1.99854
1542.47408 2.00547
1540.42565 2.01582
1538.37721 2.02196
1536.32877 2.02563
1534.28033 2.03133
1532.23189 2.04043
1530.18345 2.04556
1528.13501 2.04847
1526.08658 2.04908
1524.03814 2.04826
1521.98970 2.04592
1519.94126 2.04115
1517.89282 2.03130
1515.84438 2.01278
1513.79595 1.99055
1511.74751 1.96440
1509.69907 1.93450
1507.65063 1.87480
1505.60219 1.78711
1503.55375 1.73600
1501.50532 1.69141
1499.45688 1.63689
1497.40844 1.57090
1495.36000 1.50976
1493.31156 1.46822
1491.26312 1.42915
1489.21469 1.38016
1487.16625 1.33950
1485.11781 1.31200
1483.06937 1.28880
1481.02093 1.26653
1478.97249 1.24728
1476.92406 1.23054
1474.87562 1.21401
1472.82718 1.19659
1470.77874 1.18159
1468.73030 1.17130
1466.68186 1.16120
1464.63343 1.14940
1462.58499 1.13949
1460.53655 1.13229
1458.48811 1.12401
1456.43967 1.11339
1454.39123 1.10616
1452.34280 1.10094
1450.29436 1.09594
1448.24592 1.09128
1446.19748 1.08796
1444.14904 1.08613
1442.10060 1.08539
1440.05217 1.08574
1438.00373 1.08817
1435.95529 1.09369
1433.90685 1.09934
1431.85841 1.10452
1429.80997 1.11086
1427.76154 1.11664
1425.71310 1.12056
1423.66466 1.12308
1421.61622 1.12354
1419.56778 1.12104
1417.51934 1.11546
1415.47091 1.10891
1413.42247 1.10073
1411.37403 1.09016
1409.32559 1.07837
1407.27715 1.06661
1405.22871 1.05463
1403.18028 1.04430
1401.13184 1.03657
1399.08340 1.02973
1397.03496 1.02428
1394.98652 1.02103
1392.93808 1.01976
1390.88965 1.01974
1388.84121 1.02122
1386.79277 1.02544
1384.74433 1.03195
1382.69589 1.04014
1380.64745 1.05123
1378.59901 1.06522
1376.55058 1.08138
1374.50214 1.10123
1372.45370 1.12243
1370.40526 1.14060
1368.35682 1.15775
1366.30838 1.17341
1364.25995 1.18731
1362.21151 1.20251
1360.16307 1.21721
1358.11463 1.22959
1356.06619 1.24109
1354.01775 1.25212
1351.96932 1.26233
1349.92088 1.27220
1347.87244 1.28187
1345.82400 1.29099
1343.77556 1.29906
1341.72712 1.30614
1339.67869 1.31336
1337.63025 1.32079
1335.58181 1.32746
1333.53337 1.33368
1331.48493 1.33965
1329.43649 1.34525
1327.38806 1.35078
1325.33962 1.35613
1323.29118 1.36061
1321.24274 1.36414
1319.19430 1.36806
1317.14586 1.37255
1315.09743 1.37644
1313.04899 1.37947
1311.00055 1.38217
1308.95211 1.38469
1306.90367 1.38706
1304.85523 1.38943
1302.80680 1.39166
1300.75836 1.39360
1298.70992 1.39588
1296.66148 1.39902
1294.61304 1.40218
1292.56460 1.40500
1290.51617 1.40753
1288.46773 1.40990
1286.41929 1.41279
1284.37085 1.41588
1282.32241 1.41851
1280.27397 1.42122
1278.22554 1.42418
1276.17710 1.42676
1274.12866 1.42912
1272.08022 1.43169
1270.03178 1.43438
1267.98334 1.43704
1265.93491 1.43986
1263.88647 1.44291
1261.83803 1.44625
1259.78959 1.44951
1257.74115 1.45223
1255.69271 1.45478
1253.64428 1.45749
1251.59584 1.46015
1249.54740 1.46256
1247.49896 1.46483
1245.45052 1.46687
1243.40208 1.46897
1241.35364 1.47144
1239.30521 1.47396
1237.25677 1.47604
1235.20833 1.47764
1233.15989 1.47916
1231.11145 1.48072
1229.06301 1.48236
1227.01458 1.48430
1224.96614 1.48658
1222.91770 1.48849
1220.86926 1.48989
1218.82082 1.49155
1216.77238 1.49330
1214.72395 1.49445
1212.67551 1.49552
1210.62707 1.49692
1208.57863 1.49830
1206.53019 1.49993
1204.48175 1.50171
1202.43332 1.50313
1200.38488 1.50433
1198.33644 1.50553
1196.28800 1.50669
1194.23956 1.50790
1192.19112 1.50925
1190.14269 1.51065
1188.09425 1.51173
1186.04581 1.51262
1183.99737 1.51398
1181.94893 1.51564
1179.90049 1.51724
1177.85206 1.51879
1175.80362 1.51997
1173.75518 1.52080
1171.70674 1.52187
1169.65830 1.52304
1167.60986 1.52393
1165.56143 1.52479
1163.51299 1.52574
1161.46455 1.52688
1159.41611 1.52823
1157.36767 1.52948
1155.31923 1.53071
1153.27080 1.53182
1151.22236 1.53237
1149.17392 1.53282
1147.12548 1.53404
1145.07704 1.53568
1143.02860 1.53717
1140.98017 1.53819
1138.93173 1.53829
1136.88329 1.53861
1134.83485 1.53981
1132.78641 1.54060
1130.73797 1.54084
1128.68954 1.54164
1126.64110 1.54308
1124.59266 1.54438
1122.54422 1.54545
1120.49578 1.54689
1118.44734 1.54845
1116.39891 1.54894
1114.35047 1.54847
1112.30203 1.54809
1110.25359 1.54809
1108.20515 1.54828
1106.15671 1.54867
1104.10827 1.54918
1102.05984 1.54936
1100.01140 1.54921
1097.96296 1.54897
1095.91452 1.54923
1093.86608 1.55008
1091.81764 1.55133
1089.76921 1.55275
1087.72077 1.55399
1085.67233 1.55565
1083.62389 1.55817
1081.57545 1.56032
1079.52701 1.56188
1077.47858 1.56383
1075.43014 1.56565
1073.38170 1.56753
1071.33326 1.56966
1069.28482 1.57226
1067.23638 1.57562
1065.18795 1.58008
1063.13951 1.58679
1061.09107 1.59715
1059.04263 1.61281
1056.99419 1.62619
1054.94575 1.59022
1052.89732 1.49815
1050.84888 1.44214
1048.80044 1.45725
1046.75200 1.49470
1044.70356 1.51681
1042.65512 1.52790
1040.60669 1.53434
1038.55825 1.53853
1036.50981 1.54213
1034.46137 1.54609
1032.41293 1.54949
1030.36449 1.55157
1028.31606 1.55270
1026.26762 1.55369
1024.21918 1.55462
1022.17074 1.55581
1020.12230 1.55689
1018.07386 1.55797
1016.02543 1.55996
1013.97699 1.56232
1011.92855 1.56397
1009.88011 1.56507
1007.83167 1.56640
1005.78323 1.56756
1003.73480 1.56866
1001.68636 1.57055
999.63792 1.57286
997.58948 1.57372
995.54104 1.57330
993.49260 1.57315
991.44417 1.57341
989.39573 1.57364
987.34729 1.57359
985.29885 1.57392
983.25041 1.57506
981.20197 1.57671
979.15354 1.57865
977.10510 1.58032
975.05666 1.58072
973.00822 1.58038
970.95978 1.58077
968.91134 1.58228
966.86290 1.58399
964.81447 1.58519
962.76603 1.58627
960.71759 1.58765
958.66915 1.58941
956.62071 1.59093
954.57227 1.59178
952.52384 1.59266
950.47540 1.59428
948.42696 1.59616
946.37852 1.59750
944.33008 1.59785
942.28164 1.59859
940.23321 1.60042
938.18477 1.60197
936.13633 1.60327
934.08789 1.60439
932.03945 1.60488
929.99101 1.60536
927.94258 1.60595
925.89414 1.60676
923.84570 1.60913
921.79726 1.61165
919.74882 1.61214
917.70038 1.61256
915.65195 1.61450
913.60351 1.61657
911.55507 1.61773
909.50663 1.61856
907.45819 1.61932
905.40975 1.62060
903.36132 1.62350
901.31288 1.62718
899.26444 1.62976
897.21600 1.63076
895.16756 1.63132
893.11912 1.63326
891.07069 1.63629
889.02225 1.63870
886.97381 1.64059
884.92537 1.64282
882.87693 1.64611
880.82849 1.65047
878.78006 1.65475
876.73162 1.65841
874.68318 1.66238
872.63474 1.66634
870.58630 1.66967
868.53786 1.67444
866.48943 1.68216
864.44099 1.69216
862.39255 1.70328
860.34411 1.71488
858.29567 1.72712
856.24723 1.74150
854.19880 1.75854
852.15036 1.77236
850.10192 1.76124
848.05348 1.67378
846.00504 1.49492
843.95660 1.30814
841.90817 1.18453
839.85973 1.14081
837.81129 1.16919
835.76285 1.24679
833.71441 1.33449
831.66597 1.40125
829.61753 1.44580
827.56910 1.47620
825.52066 1.49369
823.47222 1.50147
821.42378 1.50910
819.37534 1.52036
817.32690 1.53115
815.27847 1.53918
813.23003 1.54604
811.18159 1.55245
809.13315 1.55711
807.08471 1.56022
805.03627 1.56428
802.98784 1.56916
800.93940 1.57292
798.89096 1.57590
796.84252 1.57923
794.79408 1.58244
792.74564 1.58456
790.69721 1.58653
788.64877 1.58888
786.60033 1.59104
784.55189 1.59270
782.50345 1.59429
780.45501 1.59674
778.40658 1.60018
776.35814 1.60422
774.30970 1.60783
772.26126 1.60971
770.21282 1.60977
768.16438 1.61017
766.11595 1.61182
764.06751 1.61303
762.01907 1.61228
759.97063 1.61132
757.92219 1.61435
755.87375 1.62127
753.82532 1.62660
751.77688 1.62832
749.72844 1.62937
747.68000 1.63047
745.63156 1.63142
743.58312 1.63210
741.53469 1.63253
739.48625 1.63379
737.43781 1.63632
735.38937 1.64058
733.34093 1.64545
731.29249 1.64729
729.24406 1.64576
727.19562 1.64516
725.14718 1.64749
723.09874 1.65034
721.05030 1.65232
719.00186 1.65507
716.95343 1.65876
714.90499 1.66196
712.85655 1.66354
710.80811 1.66623
708.75967 1.67333
706.71123 1.68282
704.66280 1.69065
702.61436 1.69735
700.56592 1.70620
698.51748 1.71694
696.46904 1.73156
694.42060 1.74866
692.37216 1.76475
690.32373 1.78573
688.27529 1.82017
686.22685 1.85506
684.17841 1.82117
682.12997 1.63305
680.08153 1.39130
678.03310 1.24950
675.98466 1.24436
673.93622 1.32910
671.88778 1.41773
669.83934 1.47458
667.79090 1.52361
665.74247 1.55065
663.69403 1.55876
661.64559 1.56927
659.59715 1.58330
657.54871 1.59068
655.50027 1.59198
653.45184 1.59688
651.40340 1.60720
649.35496 1.61372
647.30652 1.61481
645.25808 1.61705
643.20964 1.61484
641.16121 1.61224
639.11277 1.62475
637.06433 1.64251
635.01589 1.64668
632.96745 1.64003
630.91901 1.63422
628.87058 1.63630
626.82214 1.63902
624.77370 1.64192
622.72526 1.65306
620.67682 1.65529
618.62838 1.64275
616.57995 1.63405
614.53151 1.63610
612.48307 1.64724
610.43463 1.65988
608.38619 1.66086
606.33775 1.64666
604.28932 1.62113
602.24088 1.60577
600.19244 1.61843
598.14400 1.63703
