3996.50324 2.34345
3994.45480 2.34745
3992.40636 2.34880
3990.35792 2.35177
3988.30948 2.36099
3986.26104 2.36854
3984.21261 2.36929
3982.16417 2.36512
3980.11573 2.35950
3978.06729 2.36275
3976.01885 2.36570
3973.97041 2.35326
3971.92198 2.34275
3969.87354 2.34644
3967.82510 2.35900
3965.77666 2.36714
3963.72822 2.36116
3961.67978 2.35634
3959.63135 2.36367
3957.58291 2.36975
3955.53447 2.36254
3953.48603 2.34363
3951.43759 2.33113
3949.38915 2.34094
3947.34072 2.34853
3945.29228 2.33826
3943.24384 2.34418
3941.19540 2.36156
3939.14696 2.36312
3937.09852 2.35929
3935.05009 2.34659
3933.00165 2.33429
3930.95321 2.34872
3928.90477 2.36415
3926.85633 2.34963
3924.80789 2.33679
3922.75946 2.34979
3920.71102 2.35823
3918.66258 2.35234
3916.61414 2.34858
3914.56570 2.34874
3912.51726 2.35595
3910.46883 2.37304
3908.42039 2.37851
3906.37195 2.35936
3904.32351 2.34609
3902.27507 2.36078
3900.22663 2.37166
3898.17820 2.37980
3896.12976 2.39700
3894.08132 2.40102
3892.03288 2.39480
3889.98444 2.39531
3887.93600 2.39059
3885.88756 2.38882
3883.83913 2.39677
3881.79069 2.40344
3879.74225 2.41028
3877.69381 2.40350
3875.64537 2.39538
3873.59693 2.40343
3871.54850 2.41306
3869.50006 2.41515
3867.45162 2.40194
3865.40318 2.38880
3863.35474 2.40515
3861.30630 2.41987
3859.25787 2.40421
3857.20943 2.38936
3855.16099 2.40475
3853.11255 2.46601
3851.06411 2.50373
3849.01567 2.48779
3846.96724 2.45040
3844.91880 2.41068
3842.87036 2.39785
3840.82192 2.41369
3838.77348 2.40625
3836.72504 2.39482
3834.67661 2.41555
3832.62817 2.43719
3830.57973 2.45838
3828.53129 2.48449
3826.48285 2.49780
3824.43441 2.48847
3822.38598 2.47096
3820.33754 2.46150
3818.28910 2.45689
3816.24066 2.45058
3814.19222 2.44599
3812.14378 2.43975
3810.09535 2.42663
3808.04691 2.41236
3805.99847 2.40677
3803.95003 2.39716
3801.90159 2.39184
3799.85315 2.41471
3797.80472 2.43196
3795.75628 2.44146
3793.70784 2.45879
3791.65940 2.46961
3789.61096 2.46933
3787.56252 2.46345
3785.51409 2.45656
3783.46565 2.46098
3781.41721 2.47818
3779.36877 2.49074
3777.32033 2.48856
3775.27189 2.48640
3773.22346 2.48583
3771.17502 2.48591
3769.12658 2.49271
3767.07814 2.50250
3765.02970 2.50538
3762.98126 2.49605
3760.93283 2.48388
3758.88439 2.47257
3756.83595 2.46699
3754.78751 2.46976
3752.73907 2.47999
3750.69063 2.49267
3748.64219 2.46821
3746.59376 2.43417
3744.54532 2.42286
3742.49688 2.41611
3740.44844 2.40353
3738.40000 2.40340
3736.35156 2.41491
3734.30313 2.42153
3732.25469 2.43384
3730.20625 2.43415
3728.15781 2.41824
3726.10937 2.40604
3724.06093 2.40216
3722.01250 2.40605
3719.96406 2.41350
3717.91562 2.41892
3715.86718 2.42560
3713.81874 2.43139
3711.77030 2.42134
3709.72187 2.41288
3707.67343 2.42606
3705.62499 2.42647
3703.57655 2.41216
3701.52811 2.41277
3699.47967 2.43221
3697.43124 2.45180
3695.38280 2.45912
3693.33436 2.44692
3691.28592 2.42827
3689.23748 2.42563
3687.18904 2.43383
3685.14061 2.43514
3683.09217 2.42834
3681.04373 2.42426
3678.99529 2.42884
3676.94685 2.42652
3674.89841 2.42273
3672.84998 2.42753
3670.80154 2.42383
3668.75310 2.42465
3666.70466 2.43333
3664.65622 2.42947
3662.60778 2.41481
3660.55935 2.40446
3658.51091 2.39962
3656.46247 2.41176
3654.41403 2.45370
3652.36559 2.49965
3650.31715 2.51351
3648.26872 2.45718
3646.22028 2.41652
3644.17184 2.41241
3642.12340 2.42119
3640.07496 2.43155
3638.02652 2.43235
3635.97809 2.42623
3633.92965 2.41882
3631.88121 2.40599
3629.83277 2.40034
3627.78433 2.43813
3625.73589 2.46862
3623.68746 2.45768
3621.63902 2.43623
3619.59058 2.43301
3617.54214 2.44577
3615.49370 2.44192
3613.44526 2.42647
3611.39682 2.41882
3609.34839 2.41135
3607.29995 2.40765
3605.25151 2.41391
3603.20307 2.41010
3601.15463 2.39500
3599.10619 2.39849
3597.05776 2.41840
3595.00932 2.42357
3592.96088 2.42866
3590.91244 2.43859
3588.86400 2.43746
3586.81556 2.43435
3584.76713 2.42782
3582.71869 2.41639
3580.67025 2.40202
3578.62181 2.38928
3576.57337 2.39410
3574.52493 2.41565
3572.47650 2.43309
3570.42806 2.43536
3568.37962 2.43069
3566.33118 2.44126
3564.28274 2.46020
3562.23430 2.46420
3560.18587 2.46311
3558.13743 2.46012
3556.08899 2.45535
3554.04055 2.45085
3551.99211 2.43959
3549.94367 2.43709
3547.89524 2.44807
3545.84680 2.44477
3543.79836 2.43172
3541.74992 2.42981
3539.70148 2.43428
3537.65304 2.44345
3535.60461 2.45116
3533.55617 2.45288
3531.50773 2.44837
3529.45929 2.44014
3527.41085 2.44498
3525.36241 2.45763
3523.31398 2.46135
3521.26554 2.46276
3519.21710 2.46519
3517.16866 2.46511
3515.12022 2.45576
3513.07178 2.43342
3511.02335 2.42212
3508.97491 2.43825
3506.92647 2.46162
3504.87803 2.47004
3502.82959 2.46554
3500.78115 2.47056
3498.73272 2.48446
3496.68428 2.48389
3494.63584 2.46960
3492.58740 2.46622
3490.53896 2.48341
3488.49052 2.49705
3486.44209 2.48884
3484.39365 2.47562
3482.34521 2.45850
3480.29677 2.44741
3478.24833 2.46523
3476.19989 2.49086
3474.15146 2.48915
3472.10302 2.46869
3470.05458 2.45835
3468.00614 2.46151
3465.95770 2.47681
3463.90926 2.50516
3461.86082 2.52190
3459.81239 2.52036
3457.76395 2.52423
3455.71551 2.53195
3453.66707 2.53128
3451.61863 2.52956
3449.57019 2.53381
3447.52176 2.53210
3445.47332 2.51262
3443.42488 2.49393
3441.37644 2.49529
3439.32800 2.50199
3437.27956 2.50511
3435.23113 2.51806
3433.18269 2.52368
3431.13425 2.51063
3429.08581 2.50244
3427.03737 2.50402
3424.98893 2.50164
3422.94050 2.49610
3420.89206 2.50147
3418.84362 2.51463
3416.79518 2.51764
3414.74674 2.50853
3412.69830 2.50776
3410.64987 2.51443
3408.60143 2.50964
3406.55299 2.49941
3404.50455 2.49226
3402.45611 2.49141
3400.40767 2.49178
3398.35924 2.49084
3396.31080 2.49652
3394.26236 2.50356
3392.21392 2.50229
3390.16548 2.49583
3388.11704 2.49290
3386.06861 2.49249
3384.02017 2.48722
3381.97173 2.48168
3379.92329 2.48872
3377.87485 2.49467
3375.82641 2.48504
3373.77798 2.48879
3371.72954 2.51651
3369.68110 2.53704
3367.63266 2.53203
3365.58422 2.50852
3363.53578 2.48768
3361.48735 2.48122
3359.43891 2.48070
3357.39047 2.48289
3355.34203 2.48485
3353.29359 2.48604
3351.24515 2.49333
3349.19672 2.50501
3347.14828 2.51253
3345.09984 2.50897
3343.05140 2.49332
3341.00296 2.47632
3338.95452 2.46959
3336.90609 2.46781
3334.85765 2.46630
3332.80921 2.47171
3330.76077 2.48241
3328.71233 2.49404
3326.66389 2.50507
3324.61545 2.50139
3322.56702 2.48911
3320.51858 2.48912
3318.47014 2.48624
3316.42170 2.46174
3314.37326 2.43442
3312.32482 2.43220
3310.27639 2.45377
3308.22795 2.47881
3306.17951 2.50018
3304.13107 2.50772
3302.08263 2.48807
3300.03419 2.46094
3297.98576 2.45332
3295.93732 2.46572
3293.88888 2.48270
3291.84044 2.48782
3289.79200 2.47363
3287.74356 2.45306
3285.69513 2.44654
3283.64669 2.45442
3281.59825 2.45974
3279.54981 2.45272
3277.50137 2.44015
3275.45293 2.43671
3273.40450 2.44272
3271.35606 2.44122
3269.30762 2.43427
3267.25918 2.43686
3265.21074 2.44533
3263.16230 2.45349
3261.11387 2.45743
3259.06543 2.45386
3257.01699 2.44833
3254.96855 2.44469
3252.92011 2.44092
3250.87167 2.43617
3248.82324 2.43154
3246.77480 2.43320
3244.72636 2.45101
3242.67792 2.47158
3240.62948 2.47201
3238.58104 2.45701
3236.53261 2.44280
3234.48417 2.43398
3232.43573 2.42953
3230.38729 2.43430
3228.33885 2.44409
3226.29041 2.45208
3224.24198 2.46519
3222.19354 2.48034
3220.14510 2.47970
3218.09666 2.46732
3216.04822 2.46388
3213.99978 2.47199
3211.95135 2.47983
3209.90291 2.47765
3207.85447 2.47016
3205.80603 2.46662
3203.75759 2.46519
3201.70915 2.46809
3199.66072 2.47787
3197.61228 2.48057
3195.56384 2.46858
3193.51540 2.45915
3191.46696 2.46221
3189.41852 2.46260
3187.37008 2.45804
3185.32165 2.46448
3183.27321 2.48219
3181.22477 2.49903
3179.17633 2.50037
3177.12789 2.48546
3175.07945 2.47320
3173.03102 2.47108
3170.98258 2.46885
3168.93414 2.46273
3166.88570 2.46697
3164.83726 2.48378
3162.78882 2.48619
3160.74039 2.46700
3158.69195 2.45280
3156.64351 2.45482
3154.59507 2.46304
3152.54663 2.47378
3150.49819 2.48642
3148.44976 2.48932
3146.40132 2.48828
3144.35288 2.49584
3142.30444 2.49664
3140.25600 2.48759
3138.20756 2.48839
3136.15913 2.49737
3134.11069 2.50102
3132.06225 2.49362
3130.01381 2.48293
3127.96537 2.48548
3125.91693 2.49798
3123.86850 2.50435
3121.82006 2.49999
3119.77162 2.49139
3117.72318 2.48990
3115.67474 2.49504
3113.62630 2.49405
3111.57787 2.48852
3109.52943 2.49354
3107.48099 2.51373
3105.43255 2.53255
3103.38411 2.53169
3101.33567 2.52183
3099.28724 2.51623
3097.23880 2.51069
3095.19036 2.50437
3093.14192 2.49938
3091.09348 2.49834
3089.04504 2.50930
3086.99661 2.52168
3084.94817 2.51784
3082.89973 2.51741
3080.85129 2.53523
3078.80285 2.54902
3076.75441 2.53989
3074.70598 2.52425
3072.65754 2.52102
3070.60910 2.52088
3068.56066 2.51689
3066.51222 2.52029
3064.46378 2.53000
3062.41535 2.52909
3060.36691 2.51879
3058.31847 2.51130
3056.27003 2.50443
3054.22159 2.49961
3052.17315 2.50143
3050.12471 2.50673
3048.07628 2.51115
3046.02784 2.51248
3043.97940 2.50863
3041.93096 2.50167
3039.88252 2.50299
3037.83408 2.50718
3035.78565 2.50197
3033.73721 2.49524
3031.68877 2.49487
3029.64033 2.50226
3027.59189 2.51414
3025.54345 2.52468
3023.49502 2.52836
3021.44658 2.52256
3019.39814 2.51721
3017.34970 2.52423
3015.30126 2.53553
3013.25282 2.53734
3011.20439 2.54072
3009.15595 2.54612
3007.10751 2.53082
3005.05907 2.51074
3003.01063 2.51322
3000.96219 2.52193
2998.91376 2.52621
2996.86532 2.53563
2994.81688 2.53810
2992.76844 2.53015
2990.72000 2.53012
2988.67156 2.54089
2986.62313 2.54617
2984.57469 2.54473
2982.52625 2.54900
2980.47781 2.54962
2978.42937 2.54197
2976.38093 2.53964
2974.33250 2.53943
2972.28406 2.53925
2970.23562 2.54766
2968.18718 2.55733
2966.13874 2.55920
2964.09030 2.55631
2962.04187 2.55059
2959.99343 2.54283
2957.94499 2.53946
2955.89655 2.54643
2953.84811 2.55366
2951.79967 2.55271
2949.75124 2.54952
2947.70280 2.54469
2945.65436 2.54364
2943.60592 2.54485
2941.55748 2.53321
2939.50904 2.51492
2937.46061 2.51205
2935.41217 2.53164
2933.36373 2.55220
2931.31529 2.55171
2929.26685 2.54629
2927.21841 2.55716
2925.16998 2.56670
2923.12154 2.56024
2921.07310 2.55900
2919.02466 2.56814
2916.97622 2.57684
2914.92778 2.57348
2912.87934 2.55504
2910.83091 2.54587
2908.78247 2.56006
2906.73403 2.57824
2904.68559 2.56815
2902.63715 2.54174
2900.58871 2.53590
2898.54028 2.54595
2896.49184 2.55497
2894.44340 2.56238
2892.39496 2.56641
2890.34652 2.56107
2888.29808 2.54986
2886.24965 2.54848
2884.20121 2.56001
2882.15277 2.57365
2880.10433 2.58267
2878.05589 2.58120
2876.00745 2.57361
2873.95902 2.57682
2871.91058 2.58262
2869.86214 2.58301
2867.81370 2.58492
2865.76526 2.58030
2863.71682 2.58097
2861.66839 2.59320
2859.61995 2.59032
2857.57151 2.57165
2855.52307 2.56004
2853.47463 2.55419
2851.42619 2.54421
2849.37776 2.54424
2847.32932 2.56165
2845.28088 2.57471
2843.23244 2.57067
2841.18400 2.55814
2839.13556 2.54762
2837.08713 2.54436
2835.03869 2.54849
2832.99025 2.55776
2830.94181 2.56658
2828.89337 2.57234
2826.84493 2.57416
2824.79650 2.58166
2822.74806 2.59491
2820.69962 2.59068
2818.65118 2.57693
2816.60274 2.57378
2814.55430 2.57665
2812.50587 2.57528
2810.45743 2.57098
2808.40899 2.56413
2806.36055 2.54941
2804.31211 2.54600
2802.26367 2.56915
2800.21524 2.60086
2798.16680 2.61522
2796.11836 2.59927
2794.06992 2.56752
2792.02148 2.54949
2789.97304 2.55079
2787.92461 2.54992
2785.87617 2.54541
2783.82773 2.55350
2781.77929 2.56310
2779.73085 2.56530
2777.68241 2.56931
2775.63397 2.56930
2773.58554 2.56071
2771.53710 2.55728
2769.48866 2.56065
2767.44022 2.56133
2765.39178 2.56501
2763.34334 2.56895
2761.29491 2.57061
2759.24647 2.58206
2757.19803 2.59002
2755.14959 2.58466
2753.10115 2.58148
2751.05271 2.58518
2749.00428 2.59108
2746.95584 2.59261
2744.90740 2.58632
2742.85896 2.57551
2740.81052 2.57103
2738.76208 2.57637
2736.71365 2.58159
2734.66521 2.58743
2732.61677 2.59019
2730.56833 2.57766
2728.51989 2.56354
2726.47145 2.56421
2724.42302 2.57217
2722.37458 2.57416
2720.32614 2.57286
2718.27770 2.58131
2716.22926 2.58879
2714.18082 2.57949
2712.13239 2.56926
2710.08395 2.57496
2708.03551 2.58966
2705.98707 2.59515
2703.93863 2.59117
2701.89019 2.59163
2699.84176 2.60741
2697.79332 2.61835
2695.74488 2.59752
2693.69644 2.57483
2691.64800 2.57676
2689.59956 2.59301
2687.55113 2.60536
2685.50269 2.59977
2683.45425 2.57908
2681.40581 2.56280
2679.35737 2.56105
2677.30893 2.56599
2675.26050 2.56645
2673.21206 2.56569
2671.16362 2.57091
2669.11518 2.58089
2667.06674 2.59676
2665.01830 2.60512
2662.96987 2.59146
2660.92143 2.56956
2658.87299 2.56371
2656.82455 2.57755
2654.77611 2.58449
2652.72767 2.57581
2650.67924 2.57426
2648.63080 2.57841
2646.58236 2.57000
2644.53392 2.55947
2642.48548 2.56410
2640.43704 2.58523
2638.38860 2.60004
2636.34017 2.59129
2634.29173 2.58250
2632.24329 2.58044
2630.19485 2.57379
2628.14641 2.56662
2626.09797 2.56075
2624.04954 2.55712
2622.00110 2.56225
2619.95266 2.57304
2617.90422 2.57616
2615.85578 2.57136
2613.80734 2.57434
2611.75891 2.58586
2609.71047 2.59731
2607.66203 2.60292
2605.61359 2.59221
2603.56515 2.57884
2601.51671 2.58195
2599.46828 2.59031
2597.41984 2.58934
2595.37140 2.58305
2593.32296 2.57781
2591.27452 2.57376
2589.22608 2.57275
2587.17765 2.58014
2585.12921 2.59145
2583.08077 2.59175
2581.03233 2.57843
2578.98389 2.56720
2576.93545 2.57180
2574.88702 2.58534
2572.83858 2.59381
2570.79014 2.59227
2568.74170 2.58653
2566.69326 2.58607
2564.64482 2.59175
2562.59639 2.59964
2560.54795 2.60285
2558.49951 2.60162
2556.45107 2.60307
2554.40263 2.60232
2552.35419 2.59043
2550.30576 2.58240
2548.25732 2.58910
2546.20888 2.59147
2544.16044 2.58913
2542.11200 2.59782
2540.06356 2.61206
2538.01513 2.61702
2535.96669 2.60865
2533.91825 2.60290
2531.86981 2.60650
2529.82137 2.61051
2527.77293 2.61629
2525.72450 2.61469
2523.67606 2.59742
2521.62762 2.58659
2519.57918 2.58951
2517.53074 2.59443
2515.48230 2.60401
2513.43387 2.61309
2511.38543 2.60545
2509.33699 2.59207
2507.28855 2.59124
2505.24011 2.59580
2503.19167 2.59078
2501.14324 2.58015
2499.09480 2.57284
2497.04636 2.57559
2494.99792 2.59499
2492.94948 2.61577
2490.90104 2.62009
2488.85260 2.61386
2486.80417 2.60497
2484.75573 2.59350
2482.70729 2.58076
2480.65885 2.57384
2478.61041 2.57892
2476.56197 2.59767
2474.51354 2.61804
2472.46510 2.61691
2470.41666 2.60096
2468.36822 2.59637
2466.31978 2.60168
2464.27134 2.60452
2462.22291 2.60341
2460.17447 2.59615
2458.12603 2.58866
2456.07759 2.59198
2454.02915 2.59912
2451.98071 2.59815
2449.93228 2.59868
2447.88384 2.60839
2445.83540 2.61951
2443.78696 2.62344
2441.73852 2.61424
2439.69008 2.60859
2437.64165 2.61824
2435.59321 2.61909
2433.54477 2.60655
2431.49633 2.59780
2429.44789 2.59305
2427.39945 2.59237
2425.35102 2.59426
2423.30258 2.59539
2421.25414 2.60605
2419.20570 2.63002
2417.15726 2.64805
2415.10882 2.65180
2413.06039 2.65159
2411.01195 2.64585
2408.96351 2.63820
2406.91507 2.63412
2404.86663 2.62245
2402.81819 2.60566
2400.76976 2.59812
2398.72132 2.59758
2396.67288 2.59907
2394.62444 2.60615
2392.57600 2.61728
2390.52756 2.62214
2388.47913 2.61090
2386.43069 2.59636
2384.38225 2.59165
2382.33381 2.58719
2380.28537 2.58687
2378.23693 2.59766
2376.18850 2.59942
2374.14006 2.58743
2372.09162 2.58788
2370.04318 2.61352
2367.99474 2.64361
2365.94630 2.62483
2363.89787 2.55952
2361.84943 2.52793
2359.80099 2.56065
2357.75255 2.63376
2355.70411 2.68182
2353.65567 2.67468
2351.60723 2.63511
2349.55880 2.58952
2347.51036 2.57224
2345.46192 2.60775
2343.41348 2.65017
2341.36504 2.60716
2339.31660 2.54823
2337.26817 2.52604
2335.21973 2.54581
2333.17129 2.60712
2331.12285 2.64371
2329.07441 2.60647
2327.02597 2.56702
2324.97754 2.59231
2322.92910 2.65653
2320.88066 2.65427
2318.83222 2.58942
2316.78378 2.54863
2314.73534 2.55371
2312.68691 2.57987
2310.63847 2.59640
2308.59003 2.59625
2306.54159 2.59565
2304.49315 2.61029
2302.44471 2.62425
2300.39628 2.61896
2298.34784 2.60152
2296.29940 2.58552
2294.25096 2.58283
2292.20252 2.58615
2290.15408 2.58245
2288.10565 2.57613
2286.05721 2.57859
2284.00877 2.59128
2281.96033 2.59628
2279.91189 2.58222
2277.86345 2.57024
2275.81502 2.57513
2273.76658 2.57701
2271.71814 2.56450
2269.66970 2.55485
2267.62126 2.55810
2265.57282 2.56804
2263.52439 2.57706
2261.47595 2.58133
2259.42751 2.58129
2257.37907 2.57467
2255.33063 2.56095
2253.28219 2.55363
2251.23376 2.55784
2249.18532 2.56512
2247.13688 2.57260
2245.08844 2.58302
2243.04000 2.58758
2240.99156 2.58188
2238.94313 2.58362
2236.89469 2.59577
2234.84625 2.60172
2232.79781 2.59929
2230.74937 2.59628
2228.70093 2.58786
2226.65250 2.58076
2224.60406 2.58462
2222.55562 2.58470
2220.50718 2.58115
2218.45874 2.58291
2216.41030 2.57959
2214.36186 2.57152
2212.31343 2.57138
2210.26499 2.57698
2208.21655 2.57699
2206.16811 2.57202
2204.11967 2.56927
2202.07123 2.56733
2200.02280 2.56437
2197.97436 2.56384
2195.92592 2.56169
2193.87748 2.55575
2191.82904 2.56138
2189.78060 2.57604
2187.73217 2.57835
2185.68373 2.57923
2183.63529 2.58680
2181.58685 2.58391
2179.53841 2.56934
2177.48997 2.55928
2175.44154 2.55783
2173.39310 2.55365
2171.34466 2.54954
2169.29622 2.55539
2167.24778 2.57096
2165.19934 2.59028
2163.15091 2.60757
2161.10247 2.61620
2159.05403 2.61361
2157.00559 2.61689
2154.95715 2.62857
2152.90871 2.62547
2150.86028 2.61120
2148.81184 2.61145
2146.76340 2.62191
2144.71496 2.61986
2142.66652 2.60390
2140.61808 2.58850
2138.56965 2.58074
2136.52121 2.57898
2134.47277 2.58505
2132.42433 2.58993
2130.37589 2.58363
2128.32745 2.57853
2126.27902 2.58132
2124.23058 2.58679
2122.18214 2.58905
2120.13370 2.58228
2118.08526 2.57886
2116.03682 2.59504
2113.98839 2.61439
2111.93995 2.61197
2109.89151 2.59702
2107.84307 2.59472
2105.79463 2.61017
2103.74619 2.62665
2101.69776 2.63541
2099.64932 2.63779
2097.60088 2.63022
2095.55244 2.61719
2093.50400 2.60887
2091.45556 2.60857
2089.40713 2.61494
2087.35869 2.61988
2085.31025 2.61918
2083.26181 2.61965
2081.21337 2.62337
2079.16493 2.62559
2077.11649 2.62380
2075.06806 2.61838
2073.01962 2.61240
2070.97118 2.61726
2068.92274 2.63844
2066.87430 2.65726
2064.82586 2.65453
2062.77743 2.64196
2060.72899 2.63818
2058.68055 2.64838
2056.63211 2.66091
2054.58367 2.65685
2052.53523 2.65144
2050.48680 2.66119
2048.43836 2.66693
2046.38992 2.66073
2044.34148 2.65648
2042.29304 2.65621
2040.24460 2.65739
2038.19617 2.66319
2036.14773 2.66231
2034.09929 2.64683
2032.05085 2.63252
2030.00241 2.62746
2027.95397 2.62702
2025.90554 2.62523
2023.85710 2.61825
2021.80866 2.61323
2019.76022 2.61197
2017.71178 2.60305
2015.66334 2.59464
2013.61491 2.59854
2011.56647 2.60135
2009.51803 2.59740
2007.46959 2.59521
2005.42115 2.59911
2003.37271 2.61253
2001.32428 2.62609
1999.27584 2.62326
1997.22740 2.60597
1995.17896 2.58959
1993.13052 2.58675
1991.08208 2.59130
1989.03365 2.58751
1986.98521 2.57757
1984.93677 2.57304
1982.88833 2.57348
1980.83989 2.57314
1978.79145 2.57545
1976.74302 2.57655
1974.69458 2.57323
1972.64614 2.57102
1970.59770 2.57292
1968.54926 2.57762
1966.50082 2.57550
1964.45239 2.56860
1962.40395 2.56927
1960.35551 2.57299
1958.30707 2.56719
1956.25863 2.55743
1954.21019 2.55826
1952.16176 2.56855
1950.11332 2.57542
1948.06488 2.57679
1946.01644 2.57905
1943.96800 2.57746
1941.91956 2.57409
1939.87112 2.57772
1937.82269 2.57809
1935.77425 2.57157
1933.72581 2.57472
1931.67737 2.58373
1929.62893 2.57571
1927.58049 2.56583
1925.53206 2.57491
1923.48362 2.58742
1921.43518 2.59276
1919.38674 2.59878
1917.33830 2.60165
1915.28986 2.60099
1913.24143 2.60807
1911.19299 2.62066
1909.14455 2.62516
1907.09611 2.61877
1905.04767 2.60500
1902.99923 2.59505
1900.95080 2.59768
1898.90236 2.60313
1896.85392 2.60887
1894.80548 2.61425
1892.75704 2.61438
1890.70860 2.61487
1888.66017 2.61347
1886.61173 2.60784
1884.56329 2.60782
1882.51485 2.62025
1880.46641 2.64122
1878.41797 2.65415
1876.36954 2.64487
1874.32110 2.62878
1872.27266 2.62835
1870.22422 2.64340
1868.17578 2.66180
1866.12734 2.66717
1864.07891 2.65797
1862.03047 2.64861
1859.98203 2.64998
1857.93359 2.65493
1855.88515 2.65703
1853.83671 2.66491
1851.78828 2.66933
1849.73984 2.66724
1847.69140 2.67714
1845.64296 2.68844
1843.59452 2.68377
1841.54608 2.67269
1839.49765 2.66454
1837.44921 2.66894
1835.40077 2.68256
1833.35233 2.68593
1831.30389 2.68040
1829.25545 2.68312
1827.20702 2.69364
1825.15858 2.70005
1823.11014 2.70111
1821.06170 2.70012
1819.01326 2.70007
1816.96482 2.70628
1814.91639 2.70683
1812.86795 2.69874
1810.81951 2.70003
1808.77107 2.70445
1806.72263 2.70505
1804.67419 2.70296
1802.62575 2.70105
1800.57732 2.70641
1798.52888 2.70382
1796.48044 2.69000
1794.43200 2.68370
1792.38356 2.70061
1790.33512 2.73584
1788.28669 2.75346
1786.23825 2.74707
1784.18981 2.74629
1782.14137 2.76525
1780.09293 2.78302
1778.04449 2.78095
1775.99606 2.76780
1773.94762 2.75252
1771.89918 2.72718
1769.85074 2.71965
1767.80230 2.73297
1765.75386 2.73787
1763.70543 2.73627
1761.65699 2.74363
1759.60855 2.75743
1757.56011 2.75188
1755.51167 2.73677
1753.46323 2.74218
1751.41480 2.75192
1749.36636 2.74696
1747.31792 2.75303
1745.26948 2.77044
1743.22104 2.77607
1741.17260 2.75963
1739.12417 2.73813
1737.07573 2.73208
1735.02729 2.75141
1732.97885 2.79412
1730.93041 2.78870
1728.88197 2.75231
1726.83354 2.73370
1724.78510 2.73167
1722.73666 2.73862
1720.68822 2.76064
1718.63978 2.78076
1716.59134 2.76042
1714.54291 2.75095
1712.49447 2.76848
1710.44603 2.77176
1708.39759 2.76060
1706.34915 2.75743
1704.30071 2.75852
1702.25228 2.76456
1700.20384 2.79196
1698.15540 2.81144
1696.10696 2.82134
1694.05852 2.82569
1692.01008 2.80475
1689.96165 2.78334
1687.91321 2.78528
1685.86477 2.80028
1683.81633 2.80794
1681.76789 2.79563
1679.71945 2.78456
1677.67102 2.78352
1675.62258 2.78636
1673.57414 2.79598
1671.52570 2.81279
1669.47726 2.82515
1667.42882 2.82972
1665.38038 2.81903
1663.33195 2.79226
1661.28351 2.78304
1659.23507 2.79655
1657.18663 2.80154
1655.13819 2.78522
1653.08975 2.76376
1651.04132 2.77307
1648.99288 2.78108
1646.94444 2.78689
1644.89600 2.79231
1642.84756 2.78539
1640.79912 2.77788
1638.75069 2.78763
1636.70225 2.81003
1634.65381 2.80676
1632.60537 2.79245
1630.55693 2.78630
1628.50849 2.79287
1626.46006 2.81324
1624.41162 2.81809
1622.36318 2.81052
1620.31474 2.80893
1618.26630 2.81241
1616.21786 2.84958
1614.16943 2.89309
1612.12099 2.89816
1610.07255 2.88979
1608.02411 2.88359
1605.97567 2.87435
1603.92723 2.87259
1601.87880 2.89060
1599.83036 2.90664
1597.78192 2.90147
1595.73348 2.89985
1593.68504 2.92340
1591.63660 2.94842
1589.58817 2.95152
1587.53973 2.95285
1585.49129 2.95996
1583.44285 2.95097
1581.39441 2.93144
1579.34597 2.92706
1577.29754 2.93406
1575.24910 2.92339
1573.20066 2.93300
1571.15222 2.98286
1569.10378 3.00857
1567.05534 2.97505
1565.00691 2.95796
1562.95847 2.96929
1560.91003 2.96398
1558.86159 2.89993
1556.81315 2.87653
1554.76471 2.87858
1552.71628 2.89150
1550.66784 2.94312
1548.61940 3.00074
1546.57096 3.01438
1544.52252 3.00501
1542.47408 3.04524
1540.42565 3.16242
1538.37721 3.14766
1536.32877 3.10436
1534.28033 3.08941
1532.23189 3.03263
1530.18345 2.98361
1528.13501 2.98806
1526.08658 3.02249
1524.03814 3.05709
1521.98970 3.06904
1519.94126 3.08006
1517.89282 3.11817
1515.84438 3.08685
1513.79595 2.99191
1511.74751 2.92149
1509.69907 2.88820
1507.65063 2.85345
1505.60219 2.75855
1503.55375 2.69208
1501.50532 2.65200
1499.45688 2.60592
1497.40844 2.53228
1495.36000 2.46643
1493.31156 2.43410
1491.26312 2.40231
1489.21469 2.35483
1487.16625 2.31943
1485.11781 2.29916
1483.06937 2.28285
1481.02093 2.26551
1478.97249 2.24817
1476.92406 2.23578
1474.87562 2.22953
1472.82718 2.21900
1470.77874 2.20020
1468.73030 2.18581
1466.68186 2.17477
1464.63343 2.16582
1462.58499 2.15846
1460.53655 2.15067
1458.48811 2.14427
1456.43967 2.14048
1454.39123 2.13417
1452.34280 2.12790
1450.29436 2.12320
1448.24592 2.11864
1446.19748 2.11502
1444.14904 2.11405
1442.10060 2.11491
1440.05217 2.11408
1438.00373 2.11048
1435.95529 2.11317
1433.90685 2.12392
1431.85841 2.13263
1429.80997 2.13880
1427.76154 2.14197
1425.71310 2.14221
1423.66466 2.14098
1421.61622 2.13703
1419.56778 2.12997
1417.51934 2.12284
1415.47091 2.11965
1413.42247 2.11786
1411.37403 2.11119
1409.32559 2.09703
1407.27715 2.08262
1405.22871 2.07242
1403.18028 2.06522
1401.13184 2.05865
1399.08340 2.04983
1397.03496 2.04037
1394.98652 2.03505
1392.93808 2.03332
1390.88965 2.03152
1388.84121 2.03138
1386.79277 2.03687
1384.74433 2.04557
1382.69589 2.05568
1380.64745 2.07027
1378.59901 2.08842
1376.55058 2.10662
1374.50214 2.12539
1372.45370 2.14519
1370.40526 2.16388
1368.35682 2.18144
1366.30838 2.19614
1364.25995 2.20962
1362.21151 2.22940
1360.16307 2.24948
1358.11463 2.25926
1356.06619 2.26465
1354.01775 2.27215
1351.96932 2.28129
1349.92088 2.29226
1347.87244 2.30419
1345.82400 2.31404
1343.77556 2.31908
1341.72712 2.32229
1339.67869 2.33001
1337.63025 2.33906
1335.58181 2.34362
1333.53337 2.34749
1331.48493 2.35636
1329.43649 2.36819
1327.38806 2.37729
1325.33962 2.38503
1323.29118 2.39205
1321.24274 2.39463
1319.19430 2.39305
1317.14586 2.39077
1315.09743 2.39268
1313.04899 2.40080
1311.00055 2.40709
1308.95211 2.40706
1306.90367 2.40691
1304.85523 2.40757
1302.80680 2.40794
1300.75836 2.41597
1298.70992 2.43364
1296.66148 2.44599
1294.61304 2.44613
1292.56460 2.44445
1290.51617 2.44381
1288.46773 2.44179
1286.41929 2.44198
1284.37085 2.44320
1282.32241 2.44347
1280.27397 2.44509
1278.22554 2.44456
1276.17710 2.44508
1274.12866 2.45473
1272.08022 2.46456
1270.03178 2.46056
1267.98334 2.45286
1265.93491 2.45717
1263.88647 2.46684
1261.83803 2.47209
1259.78959 2.47505
1257.74115 2.47836
1255.69271 2.48192
1253.64428 2.48733
1251.59584 2.49371
1249.54740 2.49734
1247.49896 2.50041
1245.45052 2.50384
1243.40208 2.50581
1241.35364 2.50624
1239.30521 2.50386
1237.25677 2.50147
1235.20833 2.50243
1233.15989 2.50430
1231.11145 2.50646
1229.06301 2.50979
1227.01458 2.51214
1224.96614 2.51092
1222.91770 2.50796
1220.86926 2.51181
1218.82082 2.52356
1216.77238 2.53573
1214.72395 2.54246
1212.67551 2.53931
1210.62707 2.53222
1208.57863 2.53017
1206.53019 2.53234
1204.48175 2.53148
1202.43332 2.52408
1200.38488 2.51976
1198.33644 2.52453
1196.28800 2.52647
1194.23956 2.52713
1192.19112 2.54065
1190.14269 2.55275
1188.09425 2.55026
1186.04581 2.54526
1183.99737 2.54632
1181.94893 2.55077
1179.90049 2.55208
1177.85206 2.55275
1175.80362 2.55446
1173.75518 2.55218
1171.70674 2.54718
1169.65830 2.54858
1167.60986 2.55817
1165.56143 2.56496
1163.51299 2.56059
1161.46455 2.55193
1159.41611 2.55292
1157.36767 2.56364
1155.31923 2.57417
1153.27080 2.57472
1151.22236 2.56615
1149.17392 2.56199
1147.12548 2.56602
1145.07704 2.57105
1143.02860 2.57696
1140.98017 2.58289
1138.93173 2.57827
1136.88329 2.57351
1134.83485 2.57920
1132.78641 2.57869
1130.73797 2.57241
1128.68954 2.57460
1126.64110 2.58265
1124.59266 2.59129
1122.54422 2.59603
1120.49578 2.59133
1118.44734 2.57920
1116.39891 2.57121
1114.35047 2.57353
1112.30203 2.57907
1110.25359 2.58978
1108.20515 2.60438
1106.15671 2.60353
1104.10827 2.58442
1102.05984 2.57033
1100.01140 2.57963
1097.96296 2.60345
1095.91452 2.61153
1093.86608 2.59166
1091.81764 2.57899
1089.76921 2.59218
1087.72077 2.60156
1085.67233 2.59972
1083.62389 2.60276
1081.57545 2.60457
1079.52701 2.60360
1077.47858 2.60781
1075.43014 2.61887
1073.38170 2.63228
1071.33326 2.63928
1069.28482 2.63660
1067.23638 2.62630
1065.18795 2.62256
1063.13951 2.63745
1061.09107 2.66254
1059.04263 2.67758
1056.99419 2.66764
1054.94575 2.61715
1052.89732 2.53612
1050.84888 2.49512
1048.80044 2.52081
1046.75200 2.55795
1044.70356 2.56154
1042.65512 2.55600
1040.60669 2.57340
1038.55825 2.60183
1036.50981 2.60725
1034.46137 2.59839
1032.41293 2.59988
1030.36449 2.60285
1028.31606 2.60038
1026.26762 2.59833
1024.21918 2.60042
1022.17074 2.62039
1020.12230 2.65248
1018.07386 2.65479
1016.02543 2.62217
1013.97699 2.60774
1011.92855 2.62551
1009.88011 2.63798
1007.83167 2.63291
1005.78323 2.62390
1003.73480 2.61205
1001.68636 2.60861
999.63792 2.61630
997.58948 2.61937
995.54104 2.62232
993.49260 2.62414
991.44417 2.62368
989.39573 2.64065
987.34729 2.67286
985.29885 2.68870
983.25041 2.67803
981.20197 2.66585
979.15354 2.65291
977.10510 2.63366
975.05666 2.62412
973.00822 2.63093
970.95978 2.65176
968.91134 2.67606
966.86290 2.68826
964.81447 2.68677
962.76603 2.68110
960.71759 2.68144
958.66915 2.67869
956.62071 2.66744
954.57227 2.67532
952.52384 2.69915
950.47540 2.70083
948.42696 2.68512
946.37852 2.67269
944.33008 2.67055
942.28164 2.68046
940.23321 2.68101
938.18477 2.66907
936.13633 2.67677
934.08789 2.70288
932.03945 2.70704
929.99101 2.69353
927.94258 2.69901
925.89414 2.70395
923.84570 2.68284
921.79726 2.67519
919.74882 2.69490
917.70038 2.69501
915.65195 2.68183
913.60351 2.68872
911.55507 2.69131
909.50663 2.69049
907.45819 2.71601
905.40975 2.75374
903.36132 2.75719
901.31288 2.73473
899.26444 2.73538
897.21600 2.74193
895.16756 2.72265
893.11912 2.70878
891.07069 2.71738
889.02225 2.71099
886.97381 2.69608
884.92537 2.72169
882.87693 2.76002
880.82849 2.75326
878.78006 2.73792
876.73162 2.76208
874.68318 2.80671
872.63474 2.82651
870.58630 2.80538
868.53786 2.76737
866.48943 2.75881
864.44099 2.78964
862.39255 2.81221
860.34411 2.81696
858.29567 2.83627
856.24723 2.84386
854.19880 2.83737
852.15036 2.84783
850.10192 2.86444
848.05348 2.83992
846.00504 2.70524
843.95660 2.52046
841.90817 2.38992
839.85973 2.34614
837.81129 2.37928
835.76285 2.45973
833.71441 2.54640
831.66597 2.60071
829.61753 2.62116
827.56910 2.64598
825.52066 2.69547
823.47222 2.72368
821.42378 2.70631
819.37534 2.70828
817.32690 2.75912
815.27847 2.81202
813.23003 2.80649
811.18159 2.73313
809.13315 2.66328
807.08471 2.65947
805.03627 2.69191
802.98784 2.71358
800.93940 2.72490
798.89096 2.73760
796.84252 2.76654
794.79408 2.79133
792.74564 2.78234
790.69721 2.76296
788.64877 2.76534
786.60033 2.78791
784.55189 2.81534
782.50345 2.80574
780.45501 2.73458
778.40658 2.66890
776.35814 2.65626
774.30970 2.69988
772.26126 2.79275
770.21282 2.83001
768.16438 2.76734
766.11595 2.75889
764.06751 2.80763
762.01907 2.84100
759.97063 2.86502
757.92219 2.86480
755.87375 2.86713
753.82532 2.88863
751.77688 2.84410
749.72844 2.78640
747.68000 2.82198
745.63156 2.85230
743.58312 2.79683
741.53469 2.74700
739.48625 2.75229
737.43781 2.82084
735.38937 2.89813
733.34093 2.92665
731.29249 2.88840
729.24406 2.83863
727.19562 2.82821
725.14718 2.80610
723.09874 2.80367
721.05030 2.87532
719.00186 2.90726
716.95343 2.82372
714.90499 2.78553
712.85655 2.84612
710.80811 2.87651
708.75967 2.83743
706.71123 2.82926
704.66280 2.81698
702.61436 2.81857
700.56592 2.93565
698.51748 3.12666
696.46904 3.20136
694.42060 3.06191
692.37216 2.89263
690.32373 2.87965
688.27529 2.98920
686.22685 3.04770
684.17841 2.90512
682.12997 2.65657
680.08153 2.47311
678.03310 2.37891
675.98466 2.36331
673.93622 2.38830
671.88778 2.41698
669.83934 2.46100
667.79090 2.53307
665.74247 2.61718
663.69403 2.70189
661.64559 2.74753
659.59715 2.69137
657.54871 2.61366
655.50027 2.65370
653.45184 2.82360
651.40340 2.80091
649.35496 2.61938
647.30652 2.56785
645.25808 2.60067
643.20964 2.67905
641.16121 2.89619
639.11277 3.12884
637.06433 2.95631
635.01589 2.66032
632.96745 2.45647
630.91901 2.41905
628.87058 2.42817
626.82214 2.31704
624.77370 2.22975
622.72526 2.24975
620.67682 2.40078
618.62838 2.89225
616.57995 5.00000
614.53151 5.00000
612.48307 5.00000
610.43463 5.00000
608.38619 5.00000
606.33775 3.71024
604.28932 2.97514
602.24088 2.93959
600.19244 3.26131
598.14400 5.00000
