3996.50324 1.57216
3994.45480 1.57284
3992.40636 1.57272
3990.35792 1.57188
3988.30948 1.57084
3986.26104 1.56973
3984.21261 1.56950
3982.16417 1.57085
3980.11573 1.57209
3978.06729 1.57151
3976.01885 1.57082
3973.97041 1.57208
3971.92198 1.57324
3969.87354 1.57263
3967.82510 1.57217
3965.77666 1.57264
3963.72822 1.57280
3961.67978 1.57318
3959.63135 1.57413
3957.58291 1.57420
3955.53447 1.57360
3953.48603 1.57299
3951.43759 1.57175
3949.38915 1.57114
3947.34072 1.57225
3945.29228 1.57234
3943.24384 1.57171
3941.19540 1.57278
3939.14696 1.57395
3937.09852 1.57436
3935.05009 1.57413
3933.00165 1.57351
3930.95321 1.57476
3928.90477 1.57768
3926.85633 1.57987
3924.80789 1.58074
3922.75946 1.58020
3920.71102 1.57899
3918.66258 1.57861
3916.61414 1.58031
3914.56570 1.58297
3912.51726 1.58380
3910.46883 1.58290
3908.42039 1.58211
3906.37195 1.58160
3904.32351 1.58106
3902.27507 1.58251
3900.22663 1.58693
3898.17820 1.59166
3896.12976 1.59309
3894.08132 1.59082
3892.03288 1.58940
3889.98444 1.59169
3887.93600 1.59233
3885.88756 1.59146
3883.83913 1.59227
3881.79069 1.59301
3879.74225 1.59540
3877.69381 1.59801
3875.64537 1.59717
3873.59693 1.59506
3871.54850 1.59381
3869.50006 1.59434
3867.45162 1.59469
3865.40318 1.59411
3863.35474 1.59678
3861.30630 1.60033
3859.25787 1.59996
3857.20943 1.59673
3855.16099 1.59407
3853.11255 1.59723
3851.06411 1.60195
3849.01567 1.60216
3846.96724 1.60021
3844.91880 1.59820
3842.87036 1.59736
3840.82192 1.59736
3838.77348 1.59826
3836.72504 1.60043
3834.67661 1.60153
3832.62817 1.60169
3830.57973 1.60262
3828.53129 1.60350
3826.48285 1.60465
3824.43441 1.60549
3822.38598 1.60350
3820.33754 1.60258
3818.28910 1.60537
3816.24066 1.60854
3814.19222 1.61057
3812.14378 1.61019
3810.09535 1.60853
3808.04691 1.60791
3805.99847 1.60907
3803.95003 1.60747
3801.90159 1.60522
3799.85315 1.60741
3797.80472 1.60944
3795.75628 1.61093
3793.70784 1.61194
3791.65940 1.61098
3789.61096 1.60965
3787.56252 1.60991
3785.51409 1.61097
3783.46565 1.61043
3781.41721 1.60878
3779.36877 1.60885
3777.32033 1.61076
3775.27189 1.61212
3773.22346 1.61202
3771.17502 1.61114
3769.12658 1.61183
3767.07814 1.61347
3765.02970 1.61398
3762.98126 1.61312
3760.93283 1.61156
3758.88439 1.61199
3756.83595 1.61411
3754.78751 1.61395
3752.73907 1.61134
3750.69063 1.60925
3748.64219 1.60882
3746.59376 1.60802
3744.54532 1.60802
3742.49688 1.60960
3740.44844 1.61007
3738.40000 1.60808
3736.35156 1.60446
3734.30313 1.60341
3732.25469 1.60596
3730.20625 1.60708
3728.15781 1.60607
3726.10937 1.60625
3724.06093 1.60788
3722.01250 1.60875
3719.96406 1.60956
3717.91562 1.60975
3715.86718 1.60854
3713.81874 1.60630
3711.77030 1.60586
3709.72187 1.61058
3707.67343 1.61494
3705.62499 1.61612
3703.57655 1.61585
3701.52811 1.61552
3699.47967 1.61479
3697.43124 1.61422
3695.38280 1.61472
3693.33436 1.61470
3691.28592 1.61338
3689.23748 1.61416
3687.18904 1.61732
3685.14061 1.61884
3683.09217 1.61822
3681.04373 1.61609
3678.99529 1.61391
3676.94685 1.61360
3674.89841 1.61695
3672.84998 1.61881
3670.80154 1.61930
3668.75310 1.62142
3666.70466 1.62119
3664.65622 1.61956
3662.60778 1.61859
3660.55935 1.61743
3658.51091 1.61671
3656.46247 1.61842
3654.41403 1.62098
3652.36559 1.62158
3650.31715 1.62022
3648.26872 1.61907
3646.22028 1.62064
3644.17184 1.62187
3642.12340 1.62163
3640.07496 1.62089
3638.02652 1.61946
3635.97809 1.61698
3633.92965 1.61482
3631.88121 1.61258
3629.83277 1.61075
3627.78433 1.61506
3625.73589 1.62069
3623.68746 1.62271
3621.63902 1.62265
3619.59058 1.62394
3617.54214 1.62621
3615.49370 1.62457
3613.44526 1.62131
3611.39682 1.61957
3609.34839 1.61932
3607.29995 1.62073
3605.25151 1.62158
3603.20307 1.62021
3601.15463 1.61931
3599.10619 1.62091
3597.05776 1.62237
3595.00932 1.62323
3592.96088 1.62480
3590.91244 1.62441
3588.86400 1.62217
3586.81556 1.62434
3584.76713 1.62937
3582.71869 1.63066
3580.67025 1.62992
3578.62181 1.62973
3576.57337 1.62981
3574.52493 1.62959
3572.47650 1.62909
3570.42806 1.62789
3568.37962 1.62633
3566.33118 1.62797
3564.28274 1.63231
3562.23430 1.63558
3560.18587 1.63749
3558.13743 1.63764
3556.08899 1.63753
3554.04055 1.63843
3551.99211 1.63874
3549.94367 1.63772
3547.89524 1.63761
3545.84680 1.64009
3543.79836 1.64333
3541.74992 1.64514
3539.70148 1.64509
3537.65304 1.64384
3535.60461 1.64318
3533.55617 1.64346
3531.50773 1.64386
3529.45929 1.64473
3527.41085 1.64582
3525.36241 1.64593
3523.31398 1.64692
3521.26554 1.64950
3519.21710 1.65134
3517.16866 1.65227
3515.12022 1.65246
3513.07178 1.65166
3511.02335 1.65175
3508.97491 1.65374
3506.92647 1.65501
3504.87803 1.65457
3502.82959 1.65475
3500.78115 1.65645
3498.73272 1.65846
3496.68428 1.66014
3494.63584 1.66092
3492.58740 1.66045
3490.53896 1.65984
3488.49052 1.66052
3486.44209 1.66183
3484.39365 1.66215
3482.34521 1.66237
3480.29677 1.66374
3478.24833 1.66496
3476.19989 1.66617
3474.15146 1.66865
3472.10302 1.67095
3470.05458 1.67198
3468.00614 1.67253
3465.95770 1.67301
3463.90926 1.67409
3461.86082 1.67571
3459.81239 1.67703
3457.76395 1.67785
3455.71551 1.67914
3453.66707 1.68145
3451.61863 1.68237
3449.57019 1.68122
3447.52176 1.68077
3445.47332 1.68142
3443.42488 1.68161
3441.37644 1.68112
3439.32800 1.67938
3437.27956 1.67710
3435.23113 1.67727
3433.18269 1.67940
3431.13425 1.68062
3429.08581 1.68073
3427.03737 1.68046
3424.98893 1.68007
3422.94050 1.67979
3420.89206 1.67953
3418.84362 1.67915
3416.79518 1.67909
3414.74674 1.67988
3412.69830 1.68075
3410.64987 1.68077
3408.60143 1.68020
3406.55299 1.67995
3404.50455 1.68040
3402.45611 1.68105
3400.40767 1.68194
3398.35924 1.68309
3396.31080 1.68341
3394.26236 1.68252
3392.21392 1.68195
3390.16548 1.68248
3388.11704 1.68275
3386.06861 1.68252
3384.02017 1.68322
3381.97173 1.68407
3379.92329 1.68287
3377.87485 1.68108
3375.82641 1.68129
3373.77798 1.68327
3371.72954 1.68544
3369.68110 1.68615
3367.63266 1.68481
3365.58422 1.68264
3363.53578 1.68139
3361.48735 1.68113
3359.43891 1.68121
3357.39047 1.68195
3355.34203 1.68221
3353.29359 1.68172
3351.24515 1.68260
3349.19672 1.68434
3347.14828 1.68542
3345.09984 1.68618
3343.05140 1.68625
3341.00296 1.68546
3338.95452 1.68522
3336.90609 1.68623
3334.85765 1.68674
3332.80921 1.68576
3330.76077 1.68509
3328.71233 1.68607
3326.66389 1.68732
3324.61545 1.68716
3322.56702 1.68661
3320.51858 1.68679
3318.47014 1.68689
3316.42170 1.68711
3314.37326 1.68811
3312.32482 1.68864
3310.27639 1.68858
3308.22795 1.68931
3306.17951 1.69004
3304.13107 1.69011
3302.08263 1.69040
3300.03419 1.69063
3297.98576 1.69031
3295.93732 1.69006
3293.88888 1.69080
3291.84044 1.69228
3289.79200 1.69269
3287.74356 1.69234
3285.69513 1.69294
3283.64669 1.69364
3281.59825 1.69278
3279.54981 1.69146
3277.50137 1.69151
3275.45293 1.69209
3273.40450 1.69195
3271.35606 1.69174
3269.30762 1.69269
3267.25918 1.69424
3265.21074 1.69470
3263.16230 1.69497
3261.11387 1.69580
3259.06543 1.69571
3257.01699 1.69466
3254.96855 1.69375
3252.92011 1.69460
3250.87167 1.69709
3248.82324 1.69864
3246.77480 1.69889
3244.72636 1.69878
3242.67792 1.69904
3240.62948 1.70006
3238.58104 1.69997
3236.53261 1.69826
3234.48417 1.69771
3232.43573 1.69902
3230.38729 1.70042
3228.33885 1.70104
3226.29041 1.70086
3224.24198 1.70032
3222.19354 1.70008
3220.14510 1.70069
3218.09666 1.70164
3216.04822 1.70170
3213.99978 1.70102
3211.95135 1.70057
3209.90291 1.70111
3207.85447 1.70221
3205.80603 1.70253
3203.75759 1.70237
3201.70915 1.70275
3199.66072 1.70286
3197.61228 1.70296
3195.56384 1.70431
3193.51540 1.70498
3191.46696 1.70423
3189.41852 1.70409
3187.37008 1.70403
3185.32165 1.70326
3183.27321 1.70292
3181.22477 1.70352
3179.17633 1.70509
3177.12789 1.70644
3175.07945 1.70599
3173.03102 1.70506
3170.98258 1.70577
3168.93414 1.70731
3166.88570 1.70709
3164.83726 1.70516
3162.78882 1.70389
3160.74039 1.70395
3158.69195 1.70489
3156.64351 1.70649
3154.59507 1.70802
3152.54663 1.70845
3150.49819 1.70779
3148.44976 1.70727
3146.40132 1.70820
3144.35288 1.71016
3142.30444 1.71096
3140.25600 1.71033
3138.20756 1.70975
3136.15913 1.70949
3134.11069 1.70922
3132.06225 1.70917
3130.01381 1.70911
3127.96537 1.70879
3125.91693 1.70922
3123.86850 1.71079
3121.82006 1.71314
3119.77162 1.71564
3117.72318 1.71647
3115.67474 1.71562
3113.62630 1.71549
3111.57787 1.71631
3109.52943 1.71685
3107.48099 1.71747
3105.43255 1.71876
3103.38411 1.72026
3101.33567 1.72156
3099.28724 1.72233
3097.23880 1.72268
3095.19036 1.72349
3093.14192 1.72469
3091.09348 1.72553
3089.04504 1.72577
3086.99661 1.72573
3084.94817 1.72598
3082.89973 1.72642
3080.85129 1.72652
3078.80285 1.72712
3076.75441 1.72826
3074.70598 1.72814
3072.65754 1.72710
3070.60910 1.72701
3068.56066 1.72755
3066.51222 1.72753
3064.46378 1.72736
3062.41535 1.72790
3060.36691 1.72859
3058.31847 1.72831
3056.27003 1.72750
3054.22159 1.72738
3052.17315 1.72773
3050.12471 1.72797
3048.07628 1.72830
3046.02784 1.72838
3043.97940 1.72782
3041.93096 1.72735
3039.88252 1.72848
3037.83408 1.73150
3035.78565 1.73384
3033.73721 1.73340
3031.68877 1.73173
3029.64033 1.73063
3027.59189 1.73034
3025.54345 1.73061
3023.49502 1.73096
3021.44658 1.73225
3019.39814 1.73516
3017.34970 1.73781
3015.30126 1.73915
3013.25282 1.73980
3011.20439 1.73970
3009.15595 1.73925
3007.10751 1.73927
3005.05907 1.74027
3003.01063 1.74212
3000.96219 1.74318
2998.91376 1.74288
2996.86532 1.74287
2994.81688 1.74340
2992.76844 1.74346
2990.72000 1.74373
2988.67156 1.74521
2986.62313 1.74721
2984.57469 1.74898
2982.52625 1.75077
2980.47781 1.75269
2978.42937 1.75421
2976.38093 1.75534
2974.33250 1.75680
2972.28406 1.75850
2970.23562 1.75976
2968.18718 1.76009
2966.13874 1.76037
2964.09030 1.76150
2962.04187 1.76274
2959.99343 1.76374
2957.94499 1.76478
2955.89655 1.76642
2953.84811 1.76839
2951.79967 1.76957
2949.75124 1.77017
2947.70280 1.77081
2945.65436 1.77122
2943.60592 1.77186
2941.55748 1.77333
2939.50904 1.77503
2937.46061 1.77665
2935.41217 1.77914
2933.36373 1.78254
2931.31529 1.78473
2929.26685 1.78533
2927.21841 1.78657
2925.16998 1.78867
2923.12154 1.79037
2921.07310 1.79200
2919.02466 1.79414
2916.97622 1.79545
2914.92778 1.79421
2912.87934 1.79120
2910.83091 1.78935
2908.78247 1.78972
2906.73403 1.79072
2904.68559 1.79148
2902.63715 1.79207
2900.58871 1.79225
2898.54028 1.79194
2896.49184 1.79139
2894.44340 1.79180
2892.39496 1.79407
2890.34652 1.79591
2888.29808 1.79543
2886.24965 1.79439
2884.20121 1.79473
2882.15277 1.79622
2880.10433 1.79765
2878.05589 1.79895
2876.00745 1.80099
2873.95902 1.80381
2871.91058 1.80589
2869.86214 1.80648
2867.81370 1.80777
2865.76526 1.81075
2863.71682 1.81347
2861.66839 1.81529
2859.61995 1.81728
2857.57151 1.81985
2855.52307 1.82273
2853.47463 1.82646
2851.42619 1.83082
2849.37776 1.83374
2847.32932 1.83507
2845.28088 1.83574
2843.23244 1.83590
2841.18400 1.83708
2839.13556 1.83916
2837.08713 1.84102
2835.03869 1.84395
2832.99025 1.84697
2830.94181 1.84833
2828.89337 1.84899
2826.84493 1.84978
2824.79650 1.85111
2822.74806 1.85282
2820.69962 1.85441
2818.65118 1.85609
2816.60274 1.85819
2814.55430 1.86027
2812.50587 1.86142
2810.45743 1.86157
2808.40899 1.86185
2806.36055 1.86257
2804.31211 1.86256
2802.26367 1.86179
2800.21524 1.86157
2798.16680 1.86222
2796.11836 1.86350
2794.06992 1.86514
2792.02148 1.86611
2789.97304 1.86659
2787.92461 1.86692
2785.87617 1.86616
2783.82773 1.86542
2781.77929 1.86590
2779.73085 1.86679
2777.68241 1.86801
2775.63397 1.86952
2773.58554 1.87022
2771.53710 1.86903
2769.48866 1.86601
2767.44022 1.86397
2765.39178 1.86500
2763.34334 1.86667
2761.29491 1.86719
2759.24647 1.86895
2757.19803 1.87255
2755.14959 1.87541
2753.10115 1.87687
2751.05271 1.87843
2749.00428 1.88076
2746.95584 1.88247
2744.90740 1.88218
2742.85896 1.88115
2740.81052 1.88102
2738.76208 1.88119
2736.71365 1.88060
2734.66521 1.87822
2732.61677 1.87416
2730.56833 1.87055
2728.51989 1.86732
2726.47145 1.86257
2724.42302 1.85729
2722.37458 1.85391
2720.32614 1.85236
2718.27770 1.85064
2716.22926 1.84809
2714.18082 1.84556
2712.13239 1.84340
2710.08395 1.84123
2708.03551 1.83882
2705.98707 1.83656
2703.93863 1.83506
2701.89019 1.83292
2699.84176 1.83091
2697.79332 1.83161
2695.74488 1.83211
2693.69644 1.83003
2691.64800 1.82811
2689.59956 1.82769
2687.55113 1.82777
2685.50269 1.82808
2683.45425 1.82901
2681.40581 1.82996
2679.35737 1.83016
2677.30893 1.83009
2675.26050 1.83026
2673.21206 1.83017
2671.16362 1.82972
2669.11518 1.82908
2667.06674 1.82841
2665.01830 1.82795
2662.96987 1.82732
2660.92143 1.82606
2658.87299 1.82474
2656.82455 1.82442
2654.77611 1.82532
2652.72767 1.82655
2650.67924 1.82667
2648.63080 1.82547
2646.58236 1.82461
2644.53392 1.82510
2642.48548 1.82598
2640.43704 1.82657
2638.38860 1.82686
2636.34017 1.82678
2634.29173 1.82679
2632.24329 1.82735
2630.19485 1.82848
2628.14641 1.82921
2626.09797 1.82935
2624.04954 1.82963
2622.00110 1.82935
2619.95266 1.82883
2617.90422 1.82936
2615.85578 1.83075
2613.80734 1.83214
2611.75891 1.83270
2609.71047 1.83186
2607.66203 1.83113
2605.61359 1.83250
2603.56515 1.83481
2601.51671 1.83642
2599.46828 1.83674
2597.41984 1.83564
2595.37140 1.83526
2593.32296 1.83623
2591.27452 1.83664
2589.22608 1.83653
2587.17765 1.83673
2585.12921 1.83689
2583.08077 1.83648
2581.03233 1.83638
2578.98389 1.83761
2576.93545 1.83888
2574.88702 1.83952
2572.83858 1.84047
2570.79014 1.84171
2568.74170 1.84289
2566.69326 1.84408
2564.64482 1.84500
2562.59639 1.84583
2560.54795 1.84689
2558.49951 1.84785
2556.45107 1.84900
2554.40263 1.85069
2552.35419 1.85246
2550.30576 1.85451
2548.25732 1.85734
2546.20888 1.86039
2544.16044 1.86244
2542.11200 1.86388
2540.06356 1.86648
2538.01513 1.86918
2535.96669 1.87074
2533.91825 1.87302
2531.86981 1.87651
2529.82137 1.87953
2527.77293 1.88074
2525.72450 1.88119
2523.67606 1.88275
2521.62762 1.88520
2519.57918 1.88747
2517.53074 1.88812
2515.48230 1.88746
2513.43387 1.88787
2511.38543 1.89026
2509.33699 1.89300
2507.28855 1.89397
2505.24011 1.89394
2503.19167 1.89454
2501.14324 1.89570
2499.09480 1.89671
2497.04636 1.89699
2494.99792 1.89745
2492.94948 1.89930
2490.90104 1.90205
2488.85260 1.90535
2486.80417 1.90928
2484.75573 1.91264
2482.70729 1.91545
2480.65885 1.91841
2478.61041 1.92024
2476.56197 1.92180
2474.51354 1.92520
2472.46510 1.92851
2470.41666 1.92937
2468.36822 1.92978
2466.31978 1.93149
2464.27134 1.93380
2462.22291 1.93582
2460.17447 1.93760
2458.12603 1.94039
2456.07759 1.94352
2454.02915 1.94570
2451.98071 1.94856
2449.93228 1.95230
2447.88384 1.95486
2445.83540 1.95707
2443.78696 1.96085
2441.73852 1.96622
2439.69008 1.97257
2437.64165 1.97971
2435.59321 1.98724
2433.54477 1.99428
2431.49633 2.00141
2429.44789 2.01026
2427.39945 2.02054
2425.35102 2.03125
2423.30258 2.04206
2421.25414 2.05219
2419.20570 2.06155
2417.15726 2.06828
2415.10882 2.07142
2413.06039 2.07451
2411.01195 2.07690
2408.96351 2.07450
2406.91507 2.06702
2404.86663 2.05692
2402.81819 2.04595
2400.76976 2.03326
2398.72132 2.01837
2396.67288 2.00358
2394.62444 1.99105
2392.57600 1.98055
2390.52756 1.97212
2388.47913 1.96531
2386.43069 1.95829
2384.38225 1.95237
2382.33381 1.94864
2380.28537 1.94395
2378.23693 1.93861
2376.18850 1.93646
2374.14006 1.93571
2372.09162 1.93304
2370.04318 1.92885
2367.99474 1.92520
2365.94630 1.92386
2363.89787 1.92117
2361.84943 1.91981
2359.80099 1.92778
2357.75255 1.93285
2355.70411 1.92695
2353.65567 1.92200
2351.60723 1.91852
2349.55880 1.91073
2347.51036 1.90224
2345.46192 1.89952
2343.41348 1.90020
2341.36504 1.89823
2339.31660 1.90106
2337.26817 1.90964
2335.21973 1.91418
2333.17129 1.91331
2331.12285 1.91244
2329.07441 1.91036
2327.02597 1.90732
2324.97754 1.90452
2322.92910 1.90023
2320.88066 1.89785
2318.83222 1.89954
2316.78378 1.90079
2314.73534 1.89926
2312.68691 1.89769
2310.63847 1.89694
2308.59003 1.89681
2306.54159 1.89801
2304.49315 1.89836
2302.44471 1.89691
2300.39628 1.89618
2298.34784 1.89696
2296.29940 1.89724
2294.25096 1.89721
2292.20252 1.89832
2290.15408 1.89857
2288.10565 1.89736
2286.05721 1.89717
2284.00877 1.89776
2281.96033 1.89772
2279.91189 1.89818
2277.86345 1.90029
2275.81502 1.90228
2273.76658 1.90211
2271.71814 1.90121
2269.66970 1.90169
2267.62126 1.90327
2265.57282 1.90550
2263.52439 1.90784
2261.47595 1.90871
2259.42751 1.90668
2257.37907 1.90411
2255.33063 1.90476
2253.28219 1.90752
2251.23376 1.91026
2249.18532 1.91278
2247.13688 1.91413
2245.08844 1.91373
2243.04000 1.91219
2240.99156 1.91106
2238.94313 1.91153
2236.89469 1.91291
2234.84625 1.91491
2232.79781 1.91705
2230.74937 1.91756
2228.70093 1.91691
2226.65250 1.91696
2224.60406 1.91786
2222.55562 1.91875
2220.50718 1.91834
2218.45874 1.91733
2216.41030 1.91785
2214.36186 1.91963
2212.31343 1.92082
2210.26499 1.92011
2208.21655 1.91873
2206.16811 1.91894
2204.11967 1.92006
2202.07123 1.92056
2200.02280 1.92023
2197.97436 1.92063
2195.92592 1.92288
2193.87748 1.92453
2191.82904 1.92346
2189.78060 1.92098
2187.73217 1.91946
2185.68373 1.92021
2183.63529 1.92238
2181.58685 1.92427
2179.53841 1.92529
2177.48997 1.92588
2175.44154 1.92680
2173.39310 1.92871
2171.34466 1.93103
2169.29622 1.93289
2167.24778 1.93425
2165.19934 1.93535
2163.15091 1.93665
2161.10247 1.93739
2159.05403 1.93730
2157.00559 1.93905
2154.95715 1.94247
2152.90871 1.94416
2150.86028 1.94490
2148.81184 1.94656
2146.76340 1.94761
2144.71496 1.94771
2142.66652 1.94759
2140.61808 1.94683
2138.56965 1.94626
2136.52121 1.94682
2134.47277 1.94753
2132.42433 1.94799
2130.37589 1.94944
2128.32745 1.95188
2126.27902 1.95355
2124.23058 1.95451
2122.18214 1.95637
2120.13370 1.95841
2118.08526 1.95921
2116.03682 1.96047
2113.98839 1.96336
2111.93995 1.96575
2109.89151 1.96756
2107.84307 1.96997
2105.79463 1.97236
2103.74619 1.97484
2101.69776 1.97706
2099.64932 1.97863
2097.60088 1.98033
2095.55244 1.98164
2093.50400 1.98155
2091.45556 1.98020
2089.40713 1.98059
2087.35869 1.98455
2085.31025 1.98796
2083.26181 1.98881
2081.21337 1.98909
2079.16493 1.98841
2077.11649 1.98778
2075.06806 1.98969
2073.01962 1.99346
2070.97118 1.99753
2068.92274 2.00034
2066.87430 2.00032
2064.82586 2.00016
2062.77743 2.00371
2060.72899 2.00835
2058.68055 2.01014
2056.63211 2.01089
2054.58367 2.01306
2052.53523 2.01604
2050.48680 2.01800
2048.43836 2.01795
2046.38992 2.01664
2044.34148 2.01462
2042.29304 2.01304
2040.24460 2.01342
2038.19617 2.01404
2036.14773 2.01228
2034.09929 2.00882
2032.05085 2.00597
2030.00241 2.00440
2027.95397 2.00362
2025.90554 2.00261
2023.85710 2.00122
2021.80866 1.99998
2019.76022 1.99806
2017.71178 1.99633
2015.66334 1.99761
2013.61491 2.00065
2011.56647 2.00182
2009.51803 2.00017
2007.46959 1.99815
2005.42115 1.99927
2003.37271 2.00262
2001.32428 2.00359
1999.27584 2.00177
1997.22740 2.00052
1995.17896 2.00027
1993.13052 2.00041
1991.08208 2.00287
1989.03365 2.00622
1986.98521 2.00764
1984.93677 2.00829
1982.88833 2.00828
1980.83989 2.00718
1978.79145 2.00664
1976.74302 2.00706
1974.69458 2.00700
1972.64614 2.00600
1970.59770 2.00478
1968.54926 2.00378
1966.50082 2.00367
1964.45239 2.00408
1962.40395 2.00429
1960.35551 2.00421
1958.30707 2.00388
1956.25863 2.00467
1954.21019 2.00678
1952.16176 2.00795
1950.11332 2.00773
1948.06488 2.00829
1946.01644 2.01007
1943.96800 2.01133
1941.91956 2.01146
1939.87112 2.01157
1937.82269 2.01346
1935.77425 2.01712
1933.72581 2.01971
1931.67737 2.01969
1929.62893 2.01917
1927.58049 2.01983
1925.53206 2.02109
1923.48362 2.02286
1921.43518 2.02386
1919.38674 2.02339
1917.33830 2.02397
1915.28986 2.02625
1913.24143 2.02792
1911.19299 2.02834
1909.14455 2.03027
1907.09611 2.03430
1905.04767 2.03785
1902.99923 2.04025
1900.95080 2.04124
1898.90236 2.04083
1896.85392 2.04051
1894.80548 2.04129
1892.75704 2.04177
1890.70860 2.04090
1888.66017 2.04075
1886.61173 2.04248
1884.56329 2.04456
1882.51485 2.04631
1880.46641 2.04741
1878.41797 2.04794
1876.36954 2.04874
1874.32110 2.04900
1872.27266 2.04709
1870.22422 2.04462
1868.17578 2.04482
1866.12734 2.04684
1864.07891 2.04922
1862.03047 2.05263
1859.98203 2.05640
1857.93359 2.05831
1855.88515 2.05822
1853.83671 2.05896
1851.78828 2.06172
1849.73984 2.06491
1847.69140 2.06671
1845.64296 2.06631
1843.59452 2.06770
1841.54608 2.07259
1839.49765 2.07671
1837.44921 2.07960
1835.40077 2.08050
1833.35233 2.07922
1831.30389 2.07949
1829.25545 2.08388
1827.20702 2.08851
1825.15858 2.09227
1823.11014 2.09712
1821.06170 2.10145
1819.01326 2.10498
1816.96482 2.10873
1814.91639 2.11190
1812.86795 2.11389
1810.81951 2.11722
1808.77107 2.12220
1806.72263 2.12536
1804.67419 2.12557
1802.62575 2.12490
1800.57732 2.12700
1798.52888 2.13250
1796.48044 2.13845
1794.43200 2.14294
1792.38356 2.14686
1790.33512 2.15219
1788.28669 2.15808
1786.23825 2.16213
1784.18981 2.16293
1782.14137 2.16174
1780.09293 2.16222
1778.04449 2.16613
1775.99606 2.16884
1773.94762 2.16819
1771.89918 2.16704
1769.85074 2.16724
1767.80230 2.17068
1765.75386 2.17567
1763.70543 2.17659
1761.65699 2.17609
1759.60855 2.17941
1757.56011 2.18496
1755.51167 2.19178
1753.46323 2.20135
1751.41480 2.22104
1749.36636 2.25378
1747.31792 2.28436
1745.26948 2.30592
1743.22104 2.31976
1741.17260 2.32414
1739.12417 2.32212
1737.07573 2.31980
1735.02729 2.32220
1732.97885 2.33551
1730.93041 2.34453
1728.88197 2.34090
1726.83354 2.32489
1724.78510 2.29479
1722.73666 2.25908
1720.68822 2.23389
1718.63978 2.21932
1716.59134 2.20911
1714.54291 2.20553
1712.49447 2.20632
1710.44603 2.20724
1708.39759 2.20919
1706.34915 2.21382
1704.30071 2.21799
1702.25228 2.21840
1700.20384 2.21818
1698.15540 2.21879
1696.10696 2.22075
1694.05852 2.22603
1692.01008 2.23026
1689.96165 2.23425
1687.91321 2.23753
1685.86477 2.23514
1683.81633 2.23389
1681.76789 2.24262
1679.71945 2.24968
1677.67102 2.25280
1675.62258 2.25504
1673.57414 2.25809
1671.52570 2.26147
1669.47726 2.27102
1667.42882 2.28174
1665.38038 2.28385
1663.33195 2.28444
1661.28351 2.29010
1659.23507 2.29505
1657.18663 2.29685
1655.13819 2.29946
1653.08975 2.30751
1651.04132 2.31148
1648.99288 2.30974
1646.94444 2.31385
1644.89600 2.32575
1642.84756 2.33334
1640.79912 2.33745
1638.75069 2.34026
1636.70225 2.34499
1634.65381 2.35800
1632.60537 2.36866
1630.55693 2.37277
1628.50849 2.37652
1626.46006 2.38228
1624.41162 2.38962
1622.36318 2.40161
1620.31474 2.41099
1618.26630 2.41448
1616.21786 2.42113
1614.16943 2.43288
1612.12099 2.44164
1610.07255 2.44733
1608.02411 2.45350
1605.97567 2.45922
1603.92723 2.46332
1601.87880 2.46972
1599.83036 2.47812
1597.78192 2.48550
1595.73348 2.49144
1593.68504 2.49370
1591.63660 2.49615
1589.58817 2.50580
1587.53973 2.51931
1585.49129 2.52936
1583.44285 2.53538
1581.39441 2.54278
1579.34597 2.55416
1577.29754 2.56724
1575.24910 2.57867
1573.20066 2.59081
1571.15222 2.60614
1569.10378 2.61989
1567.05534 2.62454
1565.00691 2.62276
1562.95847 2.61691
1560.91003 2.60273
1558.86159 2.59654
1556.81315 2.63049
1554.76471 2.64257
1552.71628 2.63534
1550.66784 2.63636
1548.61940 2.64991
1546.57096 2.65961
1544.52252 2.65344
1542.47408 2.63134
1540.42565 2.62783
1538.37721 2.65990
1536.32877 2.67310
1534.28033 2.67629
1532.23189 2.69215
1530.18345 2.70973
1528.13501 2.71747
1526.08658 2.71810
1524.03814 2.71882
1521.98970 2.72872
1519.94126 2.74393
1517.89282 2.75036
1515.84438 2.75539
1513.79595 2.75972
1511.74751 2.75567
1509.69907 2.74196
1507.65063 2.69922
1505.60219 2.63316
1503.55375 2.59799
1501.50532 2.57260
1499.45688 2.54073
1497.40844 2.49371
1495.36000 2.44538
1493.31156 2.40930
1491.26312 2.37172
1489.21469 2.32688
1487.16625 2.29121
1485.11781 2.26481
1483.06937 2.24198
1481.02093 2.22106
1478.97249 2.20162
1476.92406 2.18321
1474.87562 2.16734
1472.82718 2.15298
1470.77874 2.13927
1468.73030 2.12865
1466.68186 2.11756
1464.63343 2.10454
1462.58499 2.09330
1460.53655 2.08463
1458.48811 2.07595
1456.43967 2.06701
1454.39123 2.06023
1452.34280 2.05426
1450.29436 2.04882
1448.24592 2.04430
1446.19748 2.04048
1444.14904 2.03767
1442.10060 2.03690
1440.05217 2.03701
1438.00373 2.03823
1435.95529 2.04451
1433.90685 2.05101
1431.85841 2.05465
1429.80997 2.06055
1427.76154 2.06751
1425.71310 2.07157
1423.66466 2.07338
1421.61622 2.07257
1419.56778 2.06873
1417.51934 2.06341
1415.47091 2.05727
1413.42247 2.04859
1411.37403 2.03836
1409.32559 2.02815
1407.27715 2.01773
1405.22871 2.00632
1403.18028 1.99467
1401.13184 1.98353
1399.08340 1.97208
1397.03496 1.96248
1394.98652 1.95804
1392.93808 1.95865
1390.88965 1.96005
1388.84121 1.96156
1386.79277 1.96674
1384.74433 1.97429
1382.69589 1.98190
1380.64745 1.99235
1378.59901 2.00617
1376.55058 2.02165
1374.50214 2.04000
1372.45370 2.06021
1370.40526 2.07688
1368.35682 2.08970
1366.30838 2.09924
1364.25995 2.10581
1362.21151 2.11334
1360.16307 2.12367
1358.11463 2.13381
1356.06619 2.14239
1354.01775 2.15004
1351.96932 2.15706
1349.92088 2.16342
1347.87244 2.16995
1345.82400 2.17720
1343.77556 2.18398
1341.72712 2.18913
1339.67869 2.19449
1337.63025 2.20132
1335.58181 2.20693
1333.53337 2.21182
1331.48493 2.21857
1329.43649 2.22622
1327.38806 2.23141
1325.33962 2.23441
1323.29118 2.23749
1321.24274 2.23913
1319.19430 2.23930
1317.14586 2.24107
1315.09743 2.24508
1313.04899 2.24886
1311.00055 2.24992
1308.95211 2.24974
1306.90367 2.25034
1304.85523 2.25036
1302.80680 2.24893
1300.75836 2.24736
1298.70992 2.24768
1296.66148 2.24976
1294.61304 2.25114
1292.56460 2.25264
1290.51617 2.25419
1288.46773 2.25346
1286.41929 2.25191
1284.37085 2.25132
1282.32241 2.25101
1280.27397 2.25092
1278.22554 2.25225
1276.17710 2.25289
1274.12866 2.25120
1272.08022 2.25035
1270.03178 2.25093
1267.98334 2.25119
1265.93491 2.25178
1263.88647 2.25135
1261.83803 2.24895
1259.78959 2.24874
1257.74115 2.25053
1255.69271 2.24964
1253.64428 2.24635
1251.59584 2.24220
1249.54740 2.23739
1247.49896 2.23322
1245.45052 2.23049
1243.40208 2.22909
1241.35364 2.22788
1239.30521 2.22493
1237.25677 2.22169
1235.20833 2.22059
1233.15989 2.22049
1231.11145 2.21937
1229.06301 2.21829
1227.01458 2.21888
1224.96614 2.21981
1222.91770 2.22131
1220.86926 2.22495
1218.82082 2.22922
1216.77238 2.23152
1214.72395 2.23251
1212.67551 2.23487
1210.62707 2.23770
1208.57863 2.23918
1206.53019 2.23972
1204.48175 2.24013
1202.43332 2.23974
1200.38488 2.23735
1198.33644 2.23391
1196.28800 2.23000
1194.23956 2.22570
1192.19112 2.22199
1190.14269 2.22057
1188.09425 2.22184
1186.04581 2.22256
1183.99737 2.22157
1181.94893 2.22150
1179.90049 2.22225
1177.85206 2.22038
1175.80362 2.21624
1173.75518 2.21376
1171.70674 2.21405
1169.65830 2.21562
1167.60986 2.21569
1165.56143 2.21463
1163.51299 2.21514
1161.46455 2.21552
1159.41611 2.21485
1157.36767 2.21598
1155.31923 2.21914
1153.27080 2.22189
1151.22236 2.22256
1149.17392 2.22163
1147.12548 2.22223
1145.07704 2.22578
1143.02860 2.22990
1140.98017 2.23278
1138.93173 2.23523
1136.88329 2.23968
1134.83485 2.24562
1132.78641 2.24888
1130.73797 2.24802
1128.68954 2.24758
1126.64110 2.25023
1124.59266 2.25321
1122.54422 2.25643
1120.49578 2.26180
1118.44734 2.27009
1116.39891 2.28063
1114.35047 2.29092
1112.30203 2.30038
1110.25359 2.30707
1108.20515 2.30804
1106.15671 2.30655
1104.10827 2.30593
1102.05984 2.30453
1100.01140 2.29961
1097.96296 2.29098
1095.91452 2.28087
1093.86608 2.27091
1091.81764 2.26381
1089.76921 2.26003
1087.72077 2.25690
1085.67233 2.25294
1083.62389 2.24970
1081.57545 2.24901
1079.52701 2.24928
1077.47858 2.24912
1075.43014 2.24760
1073.38170 2.24671
1071.33326 2.25074
1069.28482 2.25845
1067.23638 2.26594
1065.18795 2.27237
1063.13951 2.27893
1061.09107 2.29200
1059.04263 2.32039
1056.99419 2.35845
1054.94575 2.36504
1052.89732 2.31394
1050.84888 2.26167
1048.80044 2.24473
1046.75200 2.24269
1044.70356 2.24198
1042.65512 2.24284
1040.60669 2.24359
1038.55825 2.24674
1036.50981 2.25224
1034.46137 2.25437
1032.41293 2.25320
1030.36449 2.25391
1028.31606 2.25582
1026.26762 2.25841
1024.21918 2.26319
1022.17074 2.26819
1020.12230 2.27183
1018.07386 2.27620
1016.02543 2.28227
1013.97699 2.28703
1011.92855 2.29074
1009.88011 2.29735
1007.83167 2.30544
1005.78323 2.31026
1003.73480 2.31307
1001.68636 2.31696
999.63792 2.32079
997.58948 2.32533
995.54104 2.33173
993.49260 2.33684
991.44417 2.33815
989.39573 2.33597
987.34729 2.33043
985.29885 2.32333
983.25041 2.31968
981.20197 2.31626
979.15354 2.30805
977.10510 2.29951
975.05666 2.29598
973.00822 2.30260
970.95978 2.31434
968.91134 2.31595
966.86290 2.30854
964.81447 2.30376
962.76603 2.30418
960.71759 2.30850
958.66915 2.31412
956.62071 2.31620
954.57227 2.31363
952.52384 2.31219
950.47540 2.31630
948.42696 2.32117
946.37852 2.32277
944.33008 2.32452
942.28164 2.32523
940.23321 2.32159
938.18477 2.32195
936.13633 2.32969
934.08789 2.33703
932.03945 2.34275
929.99101 2.34791
927.94258 2.34991
925.89414 2.34758
923.84570 2.34592
921.79726 2.34953
919.74882 2.35524
917.70038 2.36037
915.65195 2.36302
913.60351 2.36201
911.55507 2.36298
909.50663 2.36771
907.45819 2.36907
905.40975 2.36582
903.36132 2.36391
901.31288 2.36685
899.26444 2.37529
897.21600 2.38689
895.16756 2.39405
893.11912 2.39151
891.07069 2.38474
889.02225 2.38055
886.97381 2.37952
884.92537 2.37928
882.87693 2.37954
880.82849 2.38295
878.78006 2.39113
876.73162 2.40468
874.68318 2.41805
872.63474 2.42398
870.58630 2.42924
868.53786 2.44037
866.48943 2.45184
864.44099 2.46013
862.39255 2.46765
860.34411 2.47879
858.29567 2.49473
856.24723 2.50423
854.19880 2.50819
852.15036 2.52156
850.10192 2.52741
848.05348 2.48423
846.00504 2.37382
843.95660 2.23278
841.90817 2.12138
839.85973 2.07313
837.81129 2.09140
835.76285 2.15383
833.71441 2.21707
831.66597 2.25519
829.61753 2.28080
827.56910 2.30817
825.52066 2.33165
823.47222 2.34041
821.42378 2.33477
819.37534 2.31728
817.32690 2.30124
815.27847 2.30235
813.23003 2.31523
811.18159 2.32669
809.13315 2.33426
807.08471 2.34191
805.03627 2.35159
802.98784 2.36361
800.93940 2.36829
798.89096 2.36379
796.84252 2.36531
794.79408 2.37512
792.74564 2.38948
790.69721 2.40460
788.64877 2.40413
786.60033 2.38906
784.55189 2.38439
782.50345 2.39819
780.45501 2.41875
778.40658 2.42648
776.35814 2.41672
774.30970 2.41029
772.26126 2.41265
770.21282 2.41386
768.16438 2.41845
766.11595 2.42955
764.06751 2.43524
762.01907 2.43496
759.97063 2.43213
757.92219 2.42685
755.87375 2.43202
753.82532 2.44200
751.77688 2.44261
749.72844 2.44549
747.68000 2.45356
745.63156 2.46112
743.58312 2.46564
741.53469 2.46282
739.48625 2.46259
737.43781 2.46897
735.38937 2.47620
733.34093 2.48616
731.29249 2.49543
729.24406 2.49067
727.19562 2.48744
725.14718 2.50752
723.09874 2.52049
721.05030 2.51163
719.00186 2.51339
716.95343 2.51503
714.90499 2.49671
712.85655 2.48613
710.80811 2.49297
708.75967 2.50045
706.71123 2.50730
704.66280 2.52700
702.61436 2.55758
700.56592 2.55906
698.51748 2.53039
696.46904 2.51239
694.42060 2.51959
692.37216 2.56826
690.32373 2.65543
688.27529 2.72486
686.22685 2.75072
684.17841 2.69949
682.12997 2.51068
680.08153 2.28660
678.03310 2.15203
675.98466 2.14714
673.93622 2.22889
671.88778 2.29448
669.83934 2.29482
667.79090 2.28106
665.74247 2.31505
663.69403 2.36307
661.64559 2.39531
659.59715 2.38472
657.54871 2.36115
655.50027 2.36900
653.45184 2.38801
651.40340 2.38058
649.35496 2.35861
647.30652 2.36768
645.25808 2.41593
643.20964 2.45416
641.16121 2.44931
639.11277 2.43985
637.06433 2.46039
635.01589 2.45832
632.96745 2.39075
630.91901 2.32867
628.87058 2.34276
626.82214 2.44049
624.77370 2.52373
622.72526 2.48081
620.67682 2.37696
618.62838 2.31323
616.57995 2.31370
614.53151 2.31350
612.48307 2.28832
610.43463 2.32215
608.38619 2.39719
606.33775 2.33176
604.28932 2.24388
602.24088 2.26238
600.19244 2.35829
598.14400 2.49222
