3996.50324 2.13478
3994.45480 2.13299
3992.40636 2.12888
3990.35792 2.12579
3988.30948 2.12653
3986.26104 2.12510
3984.21261 2.11776
3982.16417 2.11138
3980.11573 2.11024
3978.06729 2.11174
3976.01885 2.11234
3973.97041 2.11243
3971.92198 2.11482
3969.87354 2.11614
3967.82510 2.11362
3965.77666 2.11103
3963.72822 2.11080
3961.67978 2.11255
3959.63135 2.11215
3957.58291 2.10920
3955.53447 2.10845
3953.48603 2.10800
3951.43759 2.10621
3949.38915 2.10670
3947.34072 2.10749
3945.29228 2.10293
3943.24384 2.09834
3941.19540 2.10116
3939.14696 2.10791
3937.09852 2.11337
3935.05009 2.11279
3933.00165 2.10907
3930.95321 2.10965
3928.90477 2.10759
3926.85633 2.10202
3924.80789 2.10637
3922.75946 2.11710
3920.71102 2.12100
3918.66258 2.12440
3916.61414 2.13119
3914.56570 2.13425
3912.51726 2.13525
3910.46883 2.13658
3908.42039 2.13463
3906.37195 2.13169
3904.32351 2.13390
3902.27507 2.14266
3900.22663 2.15448
3898.17820 2.16254
3896.12976 2.16007
3894.08132 2.15083
3892.03288 2.15263
3889.98444 2.16594
3887.93600 2.16649
3885.88756 2.16409
3883.83913 2.16690
3881.79069 2.16585
3879.74225 2.17442
3877.69381 2.18329
3875.64537 2.17763
3873.59693 2.16754
3871.54850 2.16673
3869.50006 2.18139
3867.45162 2.18796
3865.40318 2.18486
3863.35474 2.19295
3861.30630 2.20005
3859.25787 2.19458
3857.20943 2.18102
3855.16099 2.16961
3853.11255 2.19727
3851.06411 2.23286
3849.01567 2.22640
3846.96724 2.20741
3844.91880 2.19657
3842.87036 2.20018
3840.82192 2.20905
3838.77348 2.21666
3836.72504 2.22447
3834.67661 2.22644
3832.62817 2.22612
3830.57973 2.22774
3828.53129 2.22638
3826.48285 2.22341
3824.43441 2.21900
3822.38598 2.21268
3820.33754 2.21748
3818.28910 2.22239
3816.24066 2.22856
3814.19222 2.24469
3812.14378 2.24735
3810.09535 2.23749
3808.04691 2.23338
3805.99847 2.24344
3803.95003 2.24621
3801.90159 2.24581
3799.85315 2.25166
3797.80472 2.25005
3795.75628 2.25484
3793.70784 2.26226
3791.65940 2.26074
3789.61096 2.25375
3787.56252 2.24493
3785.51409 2.24041
3783.46565 2.24036
3781.41721 2.24187
3779.36877 2.25285
3777.32033 2.26764
3775.27189 2.27035
3773.22346 2.26478
3771.17502 2.25861
3769.12658 2.25863
3767.07814 2.26202
3765.02970 2.26394
3762.98126 2.26159
3760.93283 2.25183
3758.88439 2.24408
3756.83595 2.24430
3754.78751 2.24071
3752.73907 2.22748
3750.69063 2.22480
3748.64219 2.23690
3746.59376 2.23631
3744.54532 2.23967
3742.49688 2.24293
3740.44844 2.22720
3738.40000 2.20673
3736.35156 2.19683
3734.30313 2.20205
3732.25469 2.20615
3730.20625 2.19865
3728.15781 2.18365
3726.10937 2.17394
3724.06093 2.17780
3722.01250 2.18353
3719.96406 2.18072
3717.91562 2.17177
3715.86718 2.16134
3713.81874 2.15312
3711.77030 2.15686
3709.72187 2.17213
3707.67343 2.17912
3705.62499 2.17693
3703.57655 2.17174
3701.52811 2.16979
3699.47967 2.17138
3697.43124 2.17605
3695.38280 2.17952
3693.33436 2.17428
3691.28592 2.16644
3689.23748 2.17001
3687.18904 2.17573
3685.14061 2.16867
3683.09217 2.15619
3681.04373 2.14585
3678.99529 2.13963
3676.94685 2.14180
3674.89841 2.15986
3672.84998 2.16426
3670.80154 2.15692
3668.75310 2.16084
3666.70466 2.16222
3664.65622 2.15749
3662.60778 2.15284
3660.55935 2.14561
3658.51091 2.13889
3656.46247 2.14489
3654.41403 2.15231
3652.36559 2.13909
3650.31715 2.12251
3648.26872 2.13335
3646.22028 2.14399
3644.17184 2.14145
3642.12340 2.13622
3640.07496 2.13206
3638.02652 2.12931
3635.97809 2.12529
3633.92965 2.12044
3631.88121 2.11527
3629.83277 2.11825
3627.78433 2.14285
3625.73589 2.15639
3623.68746 2.15626
3621.63902 2.15783
3619.59058 2.16253
3617.54214 2.16121
3615.49370 2.14879
3613.44526 2.13696
3611.39682 2.13266
3609.34839 2.13060
3607.29995 2.13218
3605.25151 2.13260
3603.20307 2.12836
3601.15463 2.12660
3599.10619 2.12520
3597.05776 2.12143
3595.00932 2.12496
3592.96088 2.13264
3590.91244 2.13106
3588.86400 2.12806
3586.81556 2.13944
3584.76713 2.14928
3582.71869 2.14519
3580.67025 2.13919
3578.62181 2.13914
3576.57337 2.14216
3574.52493 2.14438
3572.47650 2.14492
3570.42806 2.14277
3568.37962 2.14277
3566.33118 2.15299
3564.28274 2.16100
3562.23430 2.16205
3560.18587 2.16378
3558.13743 2.16612
3556.08899 2.16651
3554.04055 2.16501
3551.99211 2.16538
3549.94367 2.16771
3547.89524 2.16999
3545.84680 2.17348
3543.79836 2.17761
3541.74992 2.18249
3539.70148 2.18619
3537.65304 2.18582
3535.60461 2.18361
3533.55617 2.18305
3531.50773 2.18395
3529.45929 2.18550
3527.41085 2.18656
3525.36241 2.18885
3523.31398 2.19697
3521.26554 2.20680
3519.21710 2.21364
3517.16866 2.21794
3515.12022 2.21871
3513.07178 2.21727
3511.02335 2.21756
3508.97491 2.22064
3506.92647 2.22308
3504.87803 2.22583
3502.82959 2.22961
3500.78115 2.22906
3498.73272 2.22547
3496.68428 2.22329
3494.63584 2.22522
3492.58740 2.22984
3490.53896 2.23074
3488.49052 2.22950
3486.44209 2.23320
3484.39365 2.23884
3482.34521 2.23998
3480.29677 2.24091
3478.24833 2.24861
3476.19989 2.25798
3474.15146 2.26155
3472.10302 2.26410
3470.05458 2.27324
3468.00614 2.28393
3465.95770 2.28957
3463.90926 2.29734
3461.86082 2.31159
3459.81239 2.32339
3457.76395 2.32749
3455.71551 2.32830
3453.66707 2.33194
3451.61863 2.33926
3449.57019 2.34412
3447.52176 2.34532
3445.47332 2.34377
3443.42488 2.33602
3441.37644 2.32514
3439.32800 2.31659
3437.27956 2.31380
3435.23113 2.31403
3433.18269 2.31105
3431.13425 2.30570
3429.08581 2.29924
3427.03737 2.29346
3424.98893 2.29149
3422.94050 2.29160
3420.89206 2.28952
3418.84362 2.28388
3416.79518 2.27693
3414.74674 2.27114
3412.69830 2.26718
3410.64987 2.26228
3408.60143 2.25733
3406.55299 2.25692
3404.50455 2.26051
3402.45611 2.26397
3400.40767 2.26462
3398.35924 2.26318
3396.31080 2.26068
3394.26236 2.25604
3392.21392 2.25093
3390.16548 2.24959
3388.11704 2.25063
3386.06861 2.24990
3384.02017 2.24727
3381.97173 2.24246
3379.92329 2.23455
3377.87485 2.22646
3375.82641 2.22410
3373.77798 2.22901
3371.72954 2.23161
3369.68110 2.22586
3367.63266 2.21979
3365.58422 2.21651
3363.53578 2.21369
3361.48735 2.21346
3359.43891 2.21561
3357.39047 2.21673
3355.34203 2.21597
3353.29359 2.21528
3351.24515 2.21200
3349.19672 2.20582
3347.14828 2.20289
3345.09984 2.20247
3343.05140 2.20113
3341.00296 2.20039
3338.95452 2.20043
3336.90609 2.19748
3334.85765 2.19176
3332.80921 2.19018
3330.76077 2.19333
3328.71233 2.19345
3326.66389 2.18939
3324.61545 2.18815
3322.56702 2.18886
3320.51858 2.18667
3318.47014 2.18467
3316.42170 2.18437
3314.37326 2.18284
3312.32482 2.18084
3310.27639 2.18173
3308.22795 2.18349
3306.17951 2.17965
3304.13107 2.17391
3302.08263 2.17445
3300.03419 2.17829
3297.98576 2.17855
3295.93732 2.17546
3293.88888 2.17314
3291.84044 2.17438
3289.79200 2.17591
3287.74356 2.17125
3285.69513 2.16658
3283.64669 2.17102
3281.59825 2.17712
3279.54981 2.17703
3277.50137 2.17318
3275.45293 2.16920
3273.40450 2.16877
3271.35606 2.17024
3269.30762 2.16997
3267.25918 2.17006
3265.21074 2.17161
3263.16230 2.17314
3261.11387 2.17395
3259.06543 2.17222
3257.01699 2.16808
3254.96855 2.16642
3252.92011 2.16991
3250.87167 2.17433
3248.82324 2.17480
3246.77480 2.17247
3244.72636 2.17128
3242.67792 2.17309
3240.62948 2.17751
3238.58104 2.18223
3236.53261 2.18589
3234.48417 2.18631
3232.43573 2.18180
3230.38729 2.18024
3228.33885 2.18426
3226.29041 2.18670
3224.24198 2.18847
3222.19354 2.19161
3220.14510 2.19429
3218.09666 2.19549
3216.04822 2.19452
3213.99978 2.19189
3211.95135 2.19027
3209.90291 2.19297
3207.85447 2.19479
3205.80603 2.19214
3203.75759 2.19265
3201.70915 2.19898
3199.66072 2.20666
3197.61228 2.21067
3195.56384 2.20819
3193.51540 2.20385
3191.46696 2.20260
3189.41852 2.20158
3187.37008 2.20030
3185.32165 2.20311
3183.27321 2.20840
3181.22477 2.21275
3179.17633 2.21630
3177.12789 2.21805
3175.07945 2.21701
3173.03102 2.21562
3170.98258 2.21667
3168.93414 2.21945
3166.88570 2.22202
3164.83726 2.22316
3162.78882 2.22327
3160.74039 2.22504
3158.69195 2.22777
3156.64351 2.23023
3154.59507 2.23328
3152.54663 2.23423
3150.49819 2.23357
3148.44976 2.23623
3146.40132 2.24135
3144.35288 2.24425
3142.30444 2.24523
3140.25600 2.24758
3138.20756 2.25058
3136.15913 2.25120
3134.11069 2.24991
3132.06225 2.25023
3130.01381 2.25490
3127.96537 2.26228
3125.91693 2.26794
3123.86850 2.27171
3121.82006 2.27716
3119.77162 2.28320
3117.72318 2.28451
3115.67474 2.28333
3113.62630 2.28648
3111.57787 2.29518
3109.52943 2.30617
3107.48099 2.31450
3105.43255 2.32047
3103.38411 2.32772
3101.33567 2.33512
3099.28724 2.33921
3097.23880 2.34300
3095.19036 2.35186
3093.14192 2.36259
3091.09348 2.37061
3089.04504 2.37342
3086.99661 2.37032
3084.94817 2.36787
3082.89973 2.36882
3080.85129 2.36927
3078.80285 2.37031
3076.75441 2.37179
3074.70598 2.36786
3072.65754 2.36049
3070.60910 2.35762
3068.56066 2.36078
3066.51222 2.36276
3064.46378 2.35747
3062.41535 2.35043
3060.36691 2.34891
3058.31847 2.35313
3056.27003 2.35581
3054.22159 2.34993
3052.17315 2.34074
3050.12471 2.33595
3048.07628 2.33780
3046.02784 2.34247
3043.97940 2.34286
3041.93096 2.33905
3039.88252 2.33685
3037.83408 2.34010
3035.78565 2.34581
3033.73721 2.34901
3031.68877 2.35080
3029.64033 2.35333
3027.59189 2.35711
3025.54345 2.36102
3023.49502 2.36447
3021.44658 2.36990
3019.39814 2.37611
3017.34970 2.38137
3015.30126 2.38632
3013.25282 2.38791
3011.20439 2.38749
3009.15595 2.39138
3007.10751 2.39746
3005.05907 2.40164
3003.01063 2.40723
3000.96219 2.41592
2998.91376 2.42484
2996.86532 2.43145
2994.81688 2.43540
2992.76844 2.44021
2990.72000 2.44808
2988.67156 2.45618
2986.62313 2.46257
2984.57469 2.46719
2982.52625 2.47018
2980.47781 2.47452
2978.42937 2.48275
2976.38093 2.49077
2974.33250 2.49269
2972.28406 2.49231
2970.23562 2.49814
2968.18718 2.50941
2966.13874 2.51713
2964.09030 2.51725
2962.04187 2.51547
2959.99343 2.51921
2957.94499 2.52631
2955.89655 2.52778
2953.84811 2.52758
2951.79967 2.53318
2949.75124 2.54064
2947.70280 2.54505
2945.65436 2.54583
2943.60592 2.54727
2941.55748 2.55163
2939.50904 2.55499
2937.46061 2.55620
2935.41217 2.55853
2933.36373 2.56143
2931.31529 2.56567
2929.26685 2.57746
2927.21841 2.58921
2925.16998 2.58850
2923.12154 2.58448
2921.07310 2.58464
2919.02466 2.58229
2916.97622 2.57673
2914.92778 2.57296
2912.87934 2.57437
2910.83091 2.57717
2908.78247 2.57675
2906.73403 2.57898
2904.68559 2.58406
2902.63715 2.58721
2900.58871 2.58912
2898.54028 2.59352
2896.49184 2.59983
2894.44340 2.59981
2892.39496 2.59758
2890.34652 2.59935
2888.29808 2.60061
2886.24965 2.60245
2884.20121 2.60767
2882.15277 2.61384
2880.10433 2.61588
2878.05589 2.61424
2876.00745 2.61984
2873.95902 2.63704
2871.91058 2.65090
2869.86214 2.65233
2867.81370 2.65849
2865.76526 2.67331
2863.71682 2.67739
2861.66839 2.67556
2859.61995 2.68370
2857.57151 2.70074
2855.52307 2.72558
2853.47463 2.75238
2851.42619 2.76688
2849.37776 2.76475
2847.32932 2.75478
2845.28088 2.74747
2843.23244 2.74558
2841.18400 2.74730
2839.13556 2.75661
2837.08713 2.77189
2835.03869 2.78279
2832.99025 2.78772
2830.94181 2.78981
2828.89337 2.79165
2826.84493 2.79275
2824.79650 2.79386
2822.74806 2.80156
2820.69962 2.81670
2818.65118 2.83350
2816.60274 2.84157
2814.55430 2.83127
2812.50587 2.81534
2810.45743 2.81175
2808.40899 2.81209
2806.36055 2.80966
2804.31211 2.81720
2802.26367 2.83465
2800.21524 2.84922
2798.16680 2.85727
2796.11836 2.85709
2794.06992 2.84530
2792.02148 2.83131
2789.97304 2.83103
2787.92461 2.84447
2785.87617 2.85395
2783.82773 2.84790
2781.77929 2.83963
2779.73085 2.84526
2777.68241 2.85901
2775.63397 2.86631
2773.58554 2.86193
2771.53710 2.85418
2769.48866 2.84607
2767.44022 2.83850
2765.39178 2.83664
2763.34334 2.83525
2761.29491 2.83750
2759.24647 2.84629
2757.19803 2.85262
2755.14959 2.85579
2753.10115 2.86057
2751.05271 2.86907
2749.00428 2.88146
2746.95584 2.89006
2744.90740 2.88578
2742.85896 2.87713
2740.81052 2.87595
2738.76208 2.88121
2736.71365 2.88608
2734.66521 2.88701
2732.61677 2.88337
2730.56833 2.88184
2728.51989 2.88976
2726.47145 2.89961
2724.42302 2.89983
2722.37458 2.89223
2720.32614 2.88760
2718.27770 2.89299
2716.22926 2.90468
2714.18082 2.90476
2712.13239 2.88968
2710.08395 2.87539
2708.03551 2.86673
2705.98707 2.85614
2703.93863 2.84350
2701.89019 2.84043
2699.84176 2.84347
2697.79332 2.84354
2695.74488 2.84537
2693.69644 2.84472
2691.64800 2.83310
2689.59956 2.81970
2687.55113 2.81721
2685.50269 2.82818
2683.45425 2.84147
2681.40581 2.83968
2679.35737 2.82542
2677.30893 2.81840
2675.26050 2.82117
2673.21206 2.81755
2671.16362 2.80952
2669.11518 2.80555
2667.06674 2.79756
2665.01830 2.78530
2662.96987 2.77696
2660.92143 2.77704
2658.87299 2.78332
2656.82455 2.77809
2654.77611 2.75744
2652.72767 2.74491
2650.67924 2.74575
2648.63080 2.74585
2646.58236 2.73801
2644.53392 2.72155
2642.48548 2.70434
2640.43704 2.69630
2638.38860 2.69707
2636.34017 2.69596
2634.29173 2.68149
2632.24329 2.66328
2630.19485 2.65741
2628.14641 2.66036
2626.09797 2.66204
2624.04954 2.65834
2622.00110 2.65590
2619.95266 2.66248
2617.90422 2.67197
2615.85578 2.67508
2613.80734 2.67435
2611.75891 2.67655
2609.71047 2.67884
2607.66203 2.67308
2605.61359 2.65944
2603.56515 2.65179
2601.51671 2.65546
2599.46828 2.65879
2597.41984 2.65677
2595.37140 2.65215
2593.32296 2.64698
2591.27452 2.64496
2589.22608 2.64447
2587.17765 2.64510
2585.12921 2.65079
2583.08077 2.65469
2581.03233 2.65208
2578.98389 2.64852
2576.93545 2.64849
2574.88702 2.65268
2572.83858 2.65810
2570.79014 2.65741
2568.74170 2.64757
2566.69326 2.64077
2564.64482 2.64252
2562.59639 2.64506
2560.54795 2.64607
2558.49951 2.64943
2556.45107 2.65596
2554.40263 2.66334
2552.35419 2.66980
2550.30576 2.67462
2548.25732 2.67779
2546.20888 2.67642
2544.16044 2.67363
2542.11200 2.67970
2540.06356 2.69483
2538.01513 2.71245
2535.96669 2.72628
2533.91825 2.72952
2531.86981 2.72914
2529.82137 2.72935
2527.77293 2.72406
2525.72450 2.72169
2523.67606 2.73168
2521.62762 2.74918
2519.57918 2.75702
2517.53074 2.75666
2515.48230 2.76787
2513.43387 2.77782
2511.38543 2.77301
2509.33699 2.77044
2507.28855 2.76895
2505.24011 2.76147
2503.19167 2.76076
2501.14324 2.76840
2499.09480 2.77758
2497.04636 2.78903
2494.99792 2.79671
2492.94948 2.79507
2490.90104 2.79260
2488.85260 2.79707
2486.80417 2.80533
2484.75573 2.80928
2482.70729 2.81144
2480.65885 2.81646
2478.61041 2.82239
2476.56197 2.83450
2474.51354 2.84988
2472.46510 2.85899
2470.41666 2.85887
2468.36822 2.85251
2466.31978 2.85348
2464.27134 2.86113
2462.22291 2.86106
2460.17447 2.85415
2458.12603 2.85091
2456.07759 2.85518
2454.02915 2.86036
2451.98071 2.86302
2449.93228 2.87412
2447.88384 2.89014
2445.83540 2.88626
2443.78696 2.86873
2441.73852 2.86787
2439.69008 2.88333
2437.64165 2.89809
2435.59321 2.90401
2433.54477 2.89974
2431.49633 2.90510
2429.44789 2.93583
2427.39945 2.97206
2425.35102 2.98681
2423.30258 2.98565
2421.25414 2.98459
2419.20570 2.98062
2417.15726 2.97531
2415.10882 2.97460
2413.06039 2.97692
2411.01195 2.98171
2408.96351 2.97780
2406.91507 2.96588
2404.86663 2.95754
2402.81819 2.94376
2400.76976 2.92465
2398.72132 2.91105
2396.67288 2.89961
2394.62444 2.88929
2392.57600 2.88624
2390.52756 2.88455
2388.47913 2.87895
2386.43069 2.87469
2384.38225 2.86128
2382.33381 2.82722
2380.28537 2.79324
2378.23693 2.78676
2376.18850 2.80436
2374.14006 2.81560
2372.09162 2.81846
2370.04318 2.83588
2367.99474 2.84632
2365.94630 2.82357
2363.89787 2.79998
2361.84943 2.81256
2359.80099 2.82280
2357.75255 2.79698
2355.70411 2.76953
2353.65567 2.74809
2351.60723 2.72852
2349.55880 2.69816
2347.51036 2.66904
2345.46192 2.66911
2343.41348 2.69123
2341.36504 2.67754
2339.31660 2.63573
2337.26817 2.60960
2335.21973 2.59717
2333.17129 2.58719
2331.12285 2.58328
2329.07441 2.58197
2327.02597 2.57230
2324.97754 2.55588
2322.92910 2.54141
2320.88066 2.53783
2318.83222 2.54526
2316.78378 2.54642
2314.73534 2.54031
2312.68691 2.53940
2310.63847 2.53939
2308.59003 2.53708
2306.54159 2.53679
2304.49315 2.53419
2302.44471 2.52440
2300.39628 2.51148
2298.34784 2.50200
2296.29940 2.49709
2294.25096 2.49227
2292.20252 2.48568
2290.15408 2.48265
2288.10565 2.48241
2286.05721 2.47805
2284.00877 2.47104
2281.96033 2.46371
2279.91189 2.45768
2277.86345 2.45713
2275.81502 2.45815
2273.76658 2.45486
2271.71814 2.44943
2269.66970 2.44589
2267.62126 2.44526
2265.57282 2.44536
2263.52439 2.44472
2261.47595 2.44526
2259.42751 2.44697
2257.37907 2.44673
2255.33063 2.44486
2253.28219 2.44558
2251.23376 2.44967
2249.18532 2.45181
2247.13688 2.44817
2245.08844 2.44271
2243.04000 2.44027
2240.99156 2.44217
2238.94313 2.44469
2236.89469 2.44490
2234.84625 2.44743
2232.79781 2.45056
2230.74937 2.44909
2228.70093 2.44483
2226.65250 2.44059
2224.60406 2.43956
2222.55562 2.44058
2220.50718 2.44069
2218.45874 2.44096
2216.41030 2.44108
2214.36186 2.43788
2212.31343 2.43057
2210.26499 2.42351
2208.21655 2.41835
2206.16811 2.41488
2204.11967 2.41555
2202.07123 2.41771
2200.02280 2.41668
2197.97436 2.41260
2195.92592 2.40895
2193.87748 2.40919
2191.82904 2.41394
2189.78060 2.41879
2187.73217 2.42143
2185.68373 2.42561
2183.63529 2.42610
2181.58685 2.42096
2179.53841 2.41986
2177.48997 2.42312
2175.44154 2.42556
2173.39310 2.42787
2171.34466 2.43506
2169.29622 2.44572
2167.24778 2.45533
2165.19934 2.46853
2163.15091 2.48463
2161.10247 2.49539
2159.05403 2.50060
2157.00559 2.50413
2154.95715 2.50827
2152.90871 2.51337
2150.86028 2.51587
2148.81184 2.51268
2146.76340 2.50370
2144.71496 2.49255
2142.66652 2.48323
2140.61808 2.47454
2138.56965 2.46645
2136.52121 2.45998
2134.47277 2.45533
2132.42433 2.45451
2130.37589 2.45503
2128.32745 2.45375
2126.27902 2.45245
2124.23058 2.45147
2122.18214 2.44908
2120.13370 2.44685
2118.08526 2.44862
2116.03682 2.45500
2113.98839 2.46190
2111.93995 2.46530
2109.89151 2.46876
2107.84307 2.48062
2105.79463 2.50483
2103.74619 2.53899
2101.69776 2.57456
2099.64932 2.60087
2097.60088 2.61110
2095.55244 2.59991
2093.50400 2.57114
2091.45556 2.54466
2089.40713 2.53305
2087.35869 2.53050
2085.31025 2.52738
2083.26181 2.52209
2081.21337 2.52399
2079.16493 2.53787
2077.11649 2.55520
2075.06806 2.56840
2073.01962 2.57687
2070.97118 2.58606
2068.92274 2.59984
2066.87430 2.61601
2064.82586 2.63096
2062.77743 2.64534
2060.72899 2.66249
2058.68055 2.67182
2056.63211 2.66581
2054.58367 2.65792
2052.53523 2.65726
2050.48680 2.65803
2048.43836 2.65663
2046.38992 2.65482
2044.34148 2.64759
2042.29304 2.63095
2040.24460 2.60918
2038.19617 2.59183
2036.14773 2.57900
2034.09929 2.55966
2032.05085 2.53460
2030.00241 2.51575
2027.95397 2.50662
2025.90554 2.49983
2023.85710 2.49145
2021.80866 2.48179
2019.76022 2.46937
2017.71178 2.45855
2015.66334 2.45406
2013.61491 2.45243
2011.56647 2.45030
2009.51803 2.44752
2007.46959 2.44353
2005.42115 2.43920
2003.37271 2.43622
2001.32428 2.43395
1999.27584 2.43195
1997.22740 2.42974
1995.17896 2.42700
1993.13052 2.42536
1991.08208 2.42262
1989.03365 2.41642
1986.98521 2.41114
1984.93677 2.40929
1982.88833 2.40722
1980.83989 2.39971
1978.79145 2.39004
1976.74302 2.38422
1974.69458 2.38027
1972.64614 2.37745
1970.59770 2.37550
1968.54926 2.37192
1966.50082 2.36817
1964.45239 2.36496
1962.40395 2.36072
1960.35551 2.35750
1958.30707 2.35766
1956.25863 2.36059
1954.21019 2.36378
1952.16176 2.36342
1950.11332 2.36133
1948.06488 2.36225
1946.01644 2.36652
1943.96800 2.37394
1941.91956 2.38455
1939.87112 2.39274
1937.82269 2.39524
1935.77425 2.39863
1933.72581 2.40785
1931.67737 2.41672
1929.62893 2.41895
1927.58049 2.41811
1925.53206 2.42051
1923.48362 2.42885
1921.43518 2.43687
1919.38674 2.44027
1917.33830 2.44517
1915.28986 2.45196
1913.24143 2.45910
1911.19299 2.46787
1909.14455 2.47909
1907.09611 2.49091
1905.04767 2.49724
1902.99923 2.49974
1900.95080 2.50417
1898.90236 2.51146
1896.85392 2.52202
1894.80548 2.53206
1892.75704 2.53468
1890.70860 2.53293
1888.66017 2.53517
1886.61173 2.54103
1884.56329 2.54384
1882.51485 2.54410
1880.46641 2.54671
1878.41797 2.55127
1876.36954 2.55279
1874.32110 2.54992
1872.27266 2.54359
1870.22422 2.54047
1868.17578 2.55545
1866.12734 2.57490
1864.07891 2.57907
1862.03047 2.57909
1859.98203 2.58698
1857.93359 2.59986
1855.88515 2.60802
1853.83671 2.61257
1851.78828 2.61583
1849.73984 2.61661
1847.69140 2.61690
1845.64296 2.61842
1843.59452 2.62499
1841.54608 2.63377
1839.49765 2.64345
1837.44921 2.65581
1835.40077 2.66335
1833.35233 2.66241
1831.30389 2.66724
1829.25545 2.68698
1827.20702 2.70074
1825.15858 2.70898
1823.11014 2.71752
1821.06170 2.71704
1819.01326 2.71426
1816.96482 2.71548
1814.91639 2.72078
1812.86795 2.72885
1810.81951 2.73387
1808.77107 2.73865
1806.72263 2.75124
1804.67419 2.76464
1802.62575 2.77718
1800.57732 2.79805
1798.52888 2.82408
1796.48044 2.85022
1794.43200 2.87837
1792.38356 2.91765
1790.33512 2.95382
1788.28669 2.95767
1786.23825 2.95298
1784.18981 2.95919
1782.14137 2.96580
1780.09293 2.97368
1778.04449 2.98695
1775.99606 2.99729
1773.94762 3.00294
1771.89918 3.01258
1769.85074 3.03120
1767.80230 3.03824
1765.75386 3.01862
1763.70543 2.98968
1761.65699 2.98472
1759.60855 3.01758
1757.56011 3.06961
1755.51167 3.11269
1753.46323 3.13119
1751.41480 3.14188
1749.36636 3.14836
1747.31792 3.16104
1745.26948 3.18550
1743.22104 3.19707
1741.17260 3.20096
1739.12417 3.20158
1737.07573 3.15662
1735.02729 3.10394
1732.97885 3.14651
1730.93041 3.21193
1728.88197 3.19960
1726.83354 3.17794
1724.78510 3.18436
1722.73666 3.19280
1720.68822 3.18279
1718.63978 3.18000
1716.59134 3.19363
1714.54291 3.17800
1712.49447 3.15367
1710.44603 3.15245
1708.39759 3.16828
1706.34915 3.17486
1704.30071 3.18262
1702.25228 3.20168
1700.20384 3.21380
1698.15540 3.22516
1696.10696 3.23157
1694.05852 3.21857
1692.01008 3.20736
1689.96165 3.21942
1687.91321 3.24917
1685.86477 3.27841
1683.81633 3.28635
1681.76789 3.26995
1679.71945 3.27094
1677.67102 3.27056
1675.62258 3.24541
1673.57414 3.21078
1671.52570 3.19007
1669.47726 3.21324
1667.42882 3.27727
1665.38038 3.29923
1663.33195 3.27808
1661.28351 3.25554
1659.23507 3.22891
1657.18663 3.20054
1655.13819 3.19632
1653.08975 3.26010
1651.04132 3.31253
1648.99288 3.30638
1646.94444 3.32502
1644.89600 3.36444
1642.84756 3.34562
1640.79912 3.29467
1638.75069 3.24655
1636.70225 3.20242
1634.65381 3.20490
1632.60537 3.25735
1630.55693 3.28619
1628.50849 3.27123
1626.46006 3.25545
1624.41162 3.28158
1622.36318 3.32137
1620.31474 3.32326
1618.26630 3.33878
1616.21786 3.38546
1614.16943 3.36273
1612.12099 3.31864
1610.07255 3.31504
1608.02411 3.32888
1605.97567 3.33057
1603.92723 3.34294
1601.87880 3.35610
1599.83036 3.35899
1597.78192 3.36687
1595.73348 3.36202
1593.68504 3.33279
1591.63660 3.31604
1589.58817 3.33041
1587.53973 3.33920
1585.49129 3.33203
1583.44285 3.34133
1581.39441 3.35750
1579.34597 3.33231
1577.29754 3.28049
1575.24910 3.29247
1573.20066 3.33325
1571.15222 3.31534
1569.10378 3.27236
1567.05534 3.27115
1565.00691 3.29750
1562.95847 3.32180
1560.91003 3.32770
1558.86159 3.30556
1556.81315 3.28650
1554.76471 3.28691
1552.71628 3.29004
1550.66784 3.29710
1548.61940 3.30034
1546.57096 3.29667
1544.52252 3.30949
1542.47408 3.29246
1540.42565 3.26566
1538.37721 3.36579
1536.32877 3.40803
1534.28033 3.36873
1532.23189 3.33370
1530.18345 3.30510
1528.13501 3.27236
1526.08658 3.27333
1524.03814 3.31059
1521.98970 3.34095
1519.94126 3.32609
1517.89282 3.27436
1515.84438 3.24632
1513.79595 3.25402
1511.74751 3.24804
1509.69907 3.23042
1507.65063 3.24258
1505.60219 3.20385
1503.55375 3.13573
1501.50532 3.09282
1499.45688 3.05968
1497.40844 3.03639
1495.36000 3.01549
1493.31156 2.98888
1491.26312 2.96571
1489.21469 2.94687
1487.16625 2.92870
1485.11781 2.91702
1483.06937 2.90498
1481.02093 2.88667
1478.97249 2.87219
1476.92406 2.85818
1474.87562 2.83252
1472.82718 2.81293
1470.77874 2.81788
1468.73030 2.81838
1466.68186 2.80602
1464.63343 2.79643
1462.58499 2.79653
1460.53655 2.79980
1458.48811 2.81262
1456.43967 2.82150
1454.39123 2.79452
1452.34280 2.76617
1450.29436 2.75439
1448.24592 2.75401
1446.19748 2.75106
1444.14904 2.74751
1442.10060 2.74677
1440.05217 2.74193
1438.00373 2.73310
1435.95529 2.72888
1433.90685 2.72895
1431.85841 2.72844
1429.80997 2.73205
1427.76154 2.74184
1425.71310 2.75090
1423.66466 2.75929
1421.61622 2.76912
1419.56778 2.77661
1417.51934 2.76838
1415.47091 2.74423
1413.42247 2.71641
1411.37403 2.69360
1409.32559 2.67966
1407.27715 2.66461
1405.22871 2.64519
1403.18028 2.62971
1401.13184 2.61563
1399.08340 2.60045
1397.03496 2.59068
1394.98652 2.58894
1392.93808 2.59078
1390.88965 2.59065
1388.84121 2.59275
1386.79277 2.60495
1384.74433 2.62077
1382.69589 2.63588
1380.64745 2.65724
1378.59901 2.68077
1376.55058 2.69501
1374.50214 2.70282
1372.45370 2.71411
1370.40526 2.72901
1368.35682 2.74811
1366.30838 2.76479
1364.25995 2.77082
1362.21151 2.77369
1360.16307 2.78003
1358.11463 2.78334
1356.06619 2.78702
1354.01775 2.80088
1351.96932 2.82019
1349.92088 2.82935
1347.87244 2.82517
1345.82400 2.82874
1343.77556 2.84223
1341.72712 2.84816
1339.67869 2.85113
1337.63025 2.86055
1335.58181 2.87311
1333.53337 2.88347
1331.48493 2.88982
1329.43649 2.89393
1327.38806 2.89256
1325.33962 2.88923
1323.29118 2.89248
1321.24274 2.89857
1319.19430 2.89988
1317.14586 2.89461
1315.09743 2.89308
1313.04899 2.90274
1311.00055 2.91267
1308.95211 2.91862
1306.90367 2.92573
1304.85523 2.93114
1302.80680 2.93416
1300.75836 2.93767
1298.70992 2.93549
1296.66148 2.92846
1294.61304 2.93146
1292.56460 2.94026
1290.51617 2.94319
1288.46773 2.94697
1286.41929 2.95249
1284.37085 2.95899
1282.32241 2.96849
1280.27397 2.96981
1278.22554 2.96394
1276.17710 2.96345
1274.12866 2.97173
1272.08022 2.98964
1270.03178 3.00748
1267.98334 3.00706
1265.93491 2.98888
1263.88647 2.97107
1261.83803 2.96344
1259.78959 2.96973
1257.74115 2.99012
1255.69271 3.00401
1253.64428 3.00200
1251.59584 2.99929
1249.54740 2.99901
1247.49896 3.00299
1245.45052 3.01105
1243.40208 3.01268
1241.35364 3.00959
1239.30521 3.00223
1237.25677 2.99116
1235.20833 2.98826
1233.15989 2.99381
1231.11145 3.00265
1229.06301 3.00830
1227.01458 3.00942
1224.96614 3.01414
1222.91770 3.02317
1220.86926 3.02937
1218.82082 3.02074
1216.77238 3.01101
1214.72395 3.01734
1212.67551 3.01696
1210.62707 3.00192
1208.57863 3.00100
1206.53019 3.01879
1204.48175 3.03620
1202.43332 3.04703
1200.38488 3.05243
1198.33644 3.04762
1196.28800 3.03121
1194.23956 3.01670
1192.19112 3.01603
1190.14269 3.03102
1188.09425 3.04519
1186.04581 3.04319
1183.99737 3.04438
1181.94893 3.05104
1179.90049 3.04617
1177.85206 3.03425
1175.80362 3.02771
1173.75518 3.03429
1171.70674 3.04514
1169.65830 3.03936
1167.60986 3.02933
1165.56143 3.04216
1163.51299 3.05715
1161.46455 3.05144
1159.41611 3.04655
1157.36767 3.04209
1155.31923 3.02443
1153.27080 3.01127
1151.22236 3.01119
1149.17392 3.01300
1147.12548 3.01204
1145.07704 3.01501
1143.02860 3.03099
1140.98017 3.04815
1138.93173 3.04915
1136.88329 3.04586
1134.83485 3.04374
1132.78641 3.02544
1130.73797 3.00511
1128.68954 3.01908
1126.64110 3.06000
1124.59266 3.07355
1122.54422 3.05176
1120.49578 3.04402
1118.44734 3.05747
1116.39891 3.07399
1114.35047 3.09076
1112.30203 3.09086
1110.25359 3.06962
1108.20515 3.05082
1106.15671 3.04581
1104.10827 3.04453
1102.05984 3.04467
1100.01140 3.06107
1097.96296 3.07853
1095.91452 3.08440
1093.86608 3.09879
1091.81764 3.10908
1089.76921 3.09477
1087.72077 3.06443
1085.67233 3.04002
1083.62389 3.04420
1081.57545 3.06027
1079.52701 3.06262
1077.47858 3.07435
1075.43014 3.10213
1073.38170 3.11310
1071.33326 3.11540
1069.28482 3.13015
1067.23638 3.12939
1065.18795 3.09449
1063.13951 3.05058
1061.09107 3.03717
1059.04263 3.06024
1056.99419 3.08066
1054.94575 3.07174
1052.89732 3.02581
1050.84888 2.98267
1048.80044 2.99269
1046.75200 3.02627
1044.70356 3.03074
1042.65512 3.02388
1040.60669 3.02356
1038.55825 3.00949
1036.50981 2.98947
1034.46137 2.98632
1032.41293 2.98717
1030.36449 2.97391
1028.31606 2.95769
1026.26762 2.94374
1024.21918 2.92112
1022.17074 2.89316
1020.12230 2.88041
1018.07386 2.89682
1016.02543 2.91831
1013.97699 2.91572
1011.92855 2.90693
1009.88011 2.91946
1007.83167 2.95741
1005.78323 2.99102
1003.73480 3.00076
1001.68636 3.01117
999.63792 3.02504
997.58948 3.03215
995.54104 3.03139
993.49260 3.02339
991.44417 3.02304
989.39573 3.02118
987.34729 2.99759
985.29885 2.96535
983.25041 2.94397
981.20197 2.94227
979.15354 2.94673
977.10510 2.93506
975.05666 2.92386
973.00822 2.93001
970.95978 2.93542
968.91134 2.93847
966.86290 2.96070
964.81447 2.99146
962.76603 3.00395
960.71759 3.00794
958.66915 3.01816
956.62071 3.03840
954.57227 3.06922
952.52384 3.10000
950.47540 3.11101
948.42696 3.09712
946.37852 3.08322
944.33008 3.07820
942.28164 3.06242
940.23321 3.03747
938.18477 3.03238
936.13633 3.05495
934.08789 3.08587
932.03945 3.11244
929.99101 3.14336
927.94258 3.15793
925.89414 3.14523
923.84570 3.14875
921.79726 3.16930
919.74882 3.18044
917.70038 3.17022
915.65195 3.14136
913.60351 3.11059
911.55507 3.10499
909.50663 3.13089
907.45819 3.14580
905.40975 3.12966
903.36132 3.11229
901.31288 3.12118
899.26444 3.14721
897.21600 3.15875
895.16756 3.15458
893.11912 3.16011
891.07069 3.17830
889.02225 3.17617
886.97381 3.13778
884.92537 3.08739
882.87693 3.06445
880.82849 3.08846
878.78006 3.12590
876.73162 3.15452
874.68318 3.19701
872.63474 3.21471
870.58630 3.19934
868.53786 3.18558
866.48943 3.16050
864.44099 3.16010
862.39255 3.19569
860.34411 3.21369
858.29567 3.19704
856.24723 3.16908
854.19880 3.17234
852.15036 3.23575
850.10192 3.25346
848.05348 3.14948
846.00504 3.05303
843.95660 2.98125
841.90817 2.91479
839.85973 2.88678
837.81129 2.90337
835.76285 2.94816
833.71441 2.99348
831.66597 3.01804
829.61753 3.03926
827.56910 3.07082
825.52066 3.12658
823.47222 3.19827
821.42378 3.20211
819.37534 3.13708
817.32690 3.11323
815.27847 3.15445
813.23003 3.19870
811.18159 3.21163
809.13315 3.20536
807.08471 3.18366
805.03627 3.15487
802.98784 3.12946
800.93940 3.13139
798.89096 3.18048
796.84252 3.23969
794.79408 3.24390
792.74564 3.20454
790.69721 3.17080
788.64877 3.18067
786.60033 3.22555
784.55189 3.23142
782.50345 3.20685
780.45501 3.18640
778.40658 3.16506
776.35814 3.18982
774.30970 3.23824
772.26126 3.25541
770.21282 3.28583
768.16438 3.33707
766.11595 3.34267
764.06751 3.29655
762.01907 3.28107
759.97063 3.26818
757.92219 3.22983
755.87375 3.25769
753.82532 3.33138
751.77688 3.34907
749.72844 3.34391
747.68000 3.35422
745.63156 3.28724
743.58312 3.14272
741.53469 3.07344
739.48625 3.12726
737.43781 3.23718
735.38937 3.33269
733.34093 3.37913
731.29249 3.34116
729.24406 3.30322
727.19562 3.30375
725.14718 3.23209
723.09874 3.11545
721.05030 3.06854
719.00186 3.09909
716.95343 3.13377
714.90499 3.12250
712.85655 3.13002
710.80811 3.18747
708.75967 3.26810
706.71123 3.38660
704.66280 3.41820
702.61436 3.41264
700.56592 3.55443
698.51748 3.42919
696.46904 3.12215
694.42060 3.01947
692.37216 3.05763
690.32373 3.11894
688.27529 3.26170
686.22685 3.53201
684.17841 3.43939
682.12997 3.16656
680.08153 3.06080
678.03310 3.07168
675.98466 3.21021
673.93622 3.62442
671.88778 4.63175
669.83934 3.71754
667.79090 3.02410
665.74247 2.77340
663.69403 2.66889
661.64559 2.60616
659.59715 2.59202
657.54871 2.62432
655.50027 2.69671
653.45184 2.80210
651.40340 2.97041
649.35496 3.18941
647.30652 3.16842
645.25808 3.07167
643.20964 3.11840
641.16121 3.19359
639.11277 3.15980
637.06433 2.90249
635.01589 2.70657
632.96745 2.69661
630.91901 2.76944
628.87058 2.91840
626.82214 3.35995
624.77370 3.47802
622.72526 2.92850
620.67682 2.73978
618.62838 2.71365
616.57995 2.71533
614.53151 2.81280
612.48307 3.05183
610.43463 3.22689
608.38619 3.18000
606.33775 2.84708
604.28932 2.60909
602.24088 2.61814
600.19244 2.81331
598.14400 3.38424
