3996.50324 1.62717
3994.45480 1.62645
3992.40636 1.62533
3990.35792 1.62505
3988.30948 1.62471
3986.26104 1.62446
3984.21261 1.62532
3982.16417 1.62595
3980.11573 1.62506
3978.06729 1.62383
3976.01885 1.62273
3973.97041 1.62168
3971.92198 1.62147
3969.87354 1.62181
3967.82510 1.62160
3965.77666 1.62080
3963.72822 1.62020
3961.67978 1.61976
3959.63135 1.61829
3957.58291 1.61780
3955.53447 1.61919
3953.48603 1.61925
3951.43759 1.61806
3949.38915 1.61842
3947.34072 1.62023
3945.29228 1.61953
3943.24384 1.61923
3941.19540 1.62308
3939.14696 1.62546
3937.09852 1.62475
3935.05009 1.62265
3933.00165 1.62169
3930.95321 1.62520
3928.90477 1.62849
3926.85633 1.62743
3924.80789 1.62690
3922.75946 1.62800
3920.71102 1.62613
3918.66258 1.62526
3916.61414 1.62966
3914.56570 1.63271
3912.51726 1.63114
3910.46883 1.62899
3908.42039 1.62652
3906.37195 1.62403
3904.32351 1.62845
3902.27507 1.63834
3900.22663 1.64300
3898.17820 1.64516
3896.12976 1.64530
3894.08132 1.64191
3892.03288 1.64295
3889.98444 1.64873
3887.93600 1.64748
3885.88756 1.64628
3883.83913 1.64990
3881.79069 1.65000
3879.74225 1.65350
3877.69381 1.65650
3875.64537 1.65319
3873.59693 1.65080
3871.54850 1.65184
3869.50006 1.65756
3867.45162 1.65970
3865.40318 1.65663
3863.35474 1.66003
3861.30630 1.66513
3859.25787 1.66205
3857.20943 1.65282
3855.16099 1.64636
3853.11255 1.66318
3851.06411 1.68021
3849.01567 1.67712
3846.96724 1.67030
3844.91880 1.66490
3842.87036 1.66214
3840.82192 1.66097
3838.77348 1.66252
3836.72504 1.66907
3834.67661 1.67309
3832.62817 1.67434
3830.57973 1.67564
3828.53129 1.67472
3826.48285 1.67378
3824.43441 1.67269
3822.38598 1.66987
3820.33754 1.67398
3818.28910 1.67760
3816.24066 1.67902
3814.19222 1.68339
3812.14378 1.68268
3810.09535 1.67823
3808.04691 1.67579
3805.99847 1.67721
3803.95003 1.67509
3801.90159 1.67580
3799.85315 1.68331
3797.80472 1.68379
3795.75628 1.68362
3793.70784 1.68563
3791.65940 1.68623
3789.61096 1.68597
3787.56252 1.68426
3785.51409 1.68354
3783.46565 1.68536
3781.41721 1.68572
3779.36877 1.68848
3777.32033 1.69373
3775.27189 1.69335
3773.22346 1.68993
3771.17502 1.68927
3769.12658 1.69276
3767.07814 1.69537
3765.02970 1.69553
3762.98126 1.69319
3760.93283 1.68933
3758.88439 1.68822
3756.83595 1.68636
3754.78751 1.67901
3752.73907 1.67098
3750.69063 1.67156
3748.64219 1.67306
3746.59376 1.66652
3744.54532 1.66701
3742.49688 1.67526
3740.44844 1.67315
3738.40000 1.66443
3736.35156 1.66000
3734.30313 1.66443
3732.25469 1.66625
3730.20625 1.66135
3728.15781 1.65413
3726.10937 1.65087
3724.06093 1.65326
3722.01250 1.65491
3719.96406 1.65469
3717.91562 1.65331
3715.86718 1.64814
3713.81874 1.63974
3711.77030 1.63963
3709.72187 1.65075
3707.67343 1.65402
3705.62499 1.64938
3703.57655 1.64415
3701.52811 1.64636
3699.47967 1.65196
3697.43124 1.65246
3695.38280 1.64967
3693.33436 1.64414
3691.28592 1.63821
3689.23748 1.64227
3687.18904 1.65059
3685.14061 1.64960
3683.09217 1.64348
3681.04373 1.63601
3678.99529 1.62736
3676.94685 1.62148
3674.89841 1.63053
3672.84998 1.63676
3670.80154 1.63625
3668.75310 1.64429
3666.70466 1.64499
3664.65622 1.63660
3662.60778 1.63012
3660.55935 1.62709
3658.51091 1.62442
3656.46247 1.62610
3654.41403 1.62902
3652.36559 1.62288
3650.31715 1.61689
3648.26872 1.62862
3646.22028 1.63727
3644.17184 1.63229
3642.12340 1.62512
3640.07496 1.62234
3638.02652 1.62128
3635.97809 1.61912
3633.92965 1.61731
3631.88121 1.61309
3629.83277 1.60979
3627.78433 1.62191
3625.73589 1.63117
3623.68746 1.62938
3621.63902 1.62501
3619.59058 1.62532
3617.54214 1.63007
3615.49370 1.62782
3613.44526 1.62259
3611.39682 1.62009
3609.34839 1.61948
3607.29995 1.62254
3605.25151 1.62367
3603.20307 1.61982
3601.15463 1.61628
3599.10619 1.61553
3597.05776 1.61604
3595.00932 1.61845
3592.96088 1.62060
3590.91244 1.61769
3588.86400 1.61484
3586.81556 1.62164
3584.76713 1.62838
3582.71869 1.62840
3580.67025 1.62783
3578.62181 1.62834
3576.57337 1.62803
3574.52493 1.62716
3572.47650 1.62594
3570.42806 1.62230
3568.37962 1.61967
3566.33118 1.62666
3564.28274 1.63495
3562.23430 1.63707
3560.18587 1.63832
3558.13743 1.63932
3556.08899 1.63744
3554.04055 1.63466
3551.99211 1.63516
3549.94367 1.63684
3547.89524 1.63618
3545.84680 1.63657
3543.79836 1.63979
3541.74992 1.64210
3539.70148 1.64225
3537.65304 1.64182
3535.60461 1.64210
3533.55617 1.64227
3531.50773 1.64165
3529.45929 1.64174
3527.41085 1.64368
3525.36241 1.64663
3523.31398 1.65013
3521.26554 1.65279
3519.21710 1.65363
3517.16866 1.65381
3515.12022 1.65342
3513.07178 1.65252
3511.02335 1.65286
3508.97491 1.65519
3506.92647 1.65659
3504.87803 1.65515
3502.82959 1.65472
3500.78115 1.65724
3498.73272 1.65958
3496.68428 1.66142
3494.63584 1.66317
3492.58740 1.66360
3490.53896 1.66279
3488.49052 1.66297
3486.44209 1.66491
3484.39365 1.66663
3482.34521 1.66839
3480.29677 1.67078
3478.24833 1.67197
3476.19989 1.67329
3474.15146 1.67740
3472.10302 1.68212
3470.05458 1.68460
3468.00614 1.68601
3465.95770 1.68776
3463.90926 1.68997
3461.86082 1.69350
3459.81239 1.69811
3457.76395 1.70168
3455.71551 1.70389
3453.66707 1.70690
3451.61863 1.71030
3449.57019 1.71106
3447.52176 1.71081
3445.47332 1.71103
3443.42488 1.70911
3441.37644 1.70562
3439.32800 1.70250
3437.27956 1.70032
3435.23113 1.69882
3433.18269 1.69701
3431.13425 1.69414
3429.08581 1.69014
3427.03737 1.68637
3424.98893 1.68400
3422.94050 1.68268
3420.89206 1.68194
3418.84362 1.68131
3416.79518 1.68067
3414.74674 1.67999
3412.69830 1.67902
3410.64987 1.67815
3408.60143 1.67717
3406.55299 1.67501
3404.50455 1.67256
3402.45611 1.67264
3400.40767 1.67426
3398.35924 1.67393
3396.31080 1.67281
3394.26236 1.67229
3392.21392 1.67070
3390.16548 1.66878
3388.11704 1.66729
3386.06861 1.66499
3384.02017 1.66345
3381.97173 1.66325
3379.92329 1.66229
3377.87485 1.66115
3375.82641 1.66088
3373.77798 1.66049
3371.72954 1.65961
3369.68110 1.65834
3367.63266 1.65616
3365.58422 1.65372
3363.53578 1.65207
3361.48735 1.65146
3359.43891 1.65142
3357.39047 1.65141
3355.34203 1.65148
3353.29359 1.65126
3351.24515 1.65096
3349.19672 1.65089
3347.14828 1.65078
3345.09984 1.64963
3343.05140 1.64694
3341.00296 1.64430
3338.95452 1.64277
3336.90609 1.64241
3334.85765 1.64277
3332.80921 1.64248
3330.76077 1.64119
3328.71233 1.64001
3326.66389 1.63978
3324.61545 1.64000
3322.56702 1.63944
3320.51858 1.63797
3318.47014 1.63713
3316.42170 1.63782
3314.37326 1.63806
3312.32482 1.63679
3310.27639 1.63547
3308.22795 1.63462
3306.17951 1.63390
3304.13107 1.63334
3302.08263 1.63335
3300.03419 1.63376
3297.98576 1.63388
3295.93732 1.63310
3293.88888 1.63234
3291.84044 1.63259
3289.79200 1.63271
3287.74356 1.63273
3285.69513 1.63289
3283.64669 1.63195
3281.59825 1.63055
3279.54981 1.63009
3277.50137 1.63040
3275.45293 1.63065
3273.40450 1.63024
3271.35606 1.62948
3269.30762 1.62874
3267.25918 1.62769
3265.21074 1.62718
3263.16230 1.62846
3261.11387 1.63077
3259.06543 1.63235
3257.01699 1.63240
3254.96855 1.63173
3252.92011 1.63122
3250.87167 1.63131
3248.82324 1.63168
3246.77480 1.63236
3244.72636 1.63419
3242.67792 1.63598
3240.62948 1.63599
3238.58104 1.63521
3236.53261 1.63514
3234.48417 1.63492
3232.43573 1.63433
3230.38729 1.63512
3228.33885 1.63714
3226.29041 1.63875
3224.24198 1.63940
3222.19354 1.63985
3220.14510 1.64089
3218.09666 1.64180
3216.04822 1.64189
3213.99978 1.64178
3211.95135 1.64191
3209.90291 1.64253
3207.85447 1.64357
3205.80603 1.64398
3203.75759 1.64411
3201.70915 1.64494
3199.66072 1.64592
3197.61228 1.64704
3195.56384 1.64828
3193.51540 1.64889
3191.46696 1.64996
3189.41852 1.65191
3187.37008 1.65287
3185.32165 1.65242
3183.27321 1.65210
3181.22477 1.65205
3179.17633 1.65170
3177.12789 1.65176
3175.07945 1.65255
3173.03102 1.65390
3170.98258 1.65520
3168.93414 1.65614
3166.88570 1.65685
3164.83726 1.65696
3162.78882 1.65752
3160.74039 1.65937
3158.69195 1.66140
3156.64351 1.66289
3154.59507 1.66408
3152.54663 1.66463
3150.49819 1.66414
3148.44976 1.66384
3146.40132 1.66471
3144.35288 1.66561
3142.30444 1.66585
3140.25600 1.66645
3138.20756 1.66787
3136.15913 1.66941
3134.11069 1.67086
3132.06225 1.67239
3130.01381 1.67358
3127.96537 1.67425
3125.91693 1.67489
3123.86850 1.67624
3121.82006 1.67858
3119.77162 1.68143
3117.72318 1.68400
3115.67474 1.68590
3113.62630 1.68748
3111.57787 1.68951
3109.52943 1.69258
3107.48099 1.69609
3105.43255 1.69923
3103.38411 1.70241
3101.33567 1.70574
3099.28724 1.70821
3097.23880 1.71015
3095.19036 1.71250
3093.14192 1.71483
3091.09348 1.71653
3089.04504 1.71741
3086.99661 1.71798
3084.94817 1.71836
3082.89973 1.71830
3080.85129 1.71834
3078.80285 1.71810
3076.75441 1.71693
3074.70598 1.71564
3072.65754 1.71492
3070.60910 1.71421
3068.56066 1.71305
3066.51222 1.71161
3064.46378 1.71023
3062.41535 1.71019
3060.36691 1.71115
3058.31847 1.71110
3056.27003 1.71073
3054.22159 1.71112
3052.17315 1.71092
3050.12471 1.70955
3048.07628 1.70853
3046.02784 1.70845
3043.97940 1.70780
3041.93096 1.70626
3039.88252 1.70529
3037.83408 1.70527
3035.78565 1.70566
3033.73721 1.70651
3031.68877 1.70749
3029.64033 1.70845
3027.59189 1.70999
3025.54345 1.71167
3023.49502 1.71274
3021.44658 1.71365
3019.39814 1.71525
3017.34970 1.71763
3015.30126 1.71971
3013.25282 1.72091
3011.20439 1.72206
3009.15595 1.72306
3007.10751 1.72372
3005.05907 1.72527
3003.01063 1.72805
3000.96219 1.73105
2998.91376 1.73347
2996.86532 1.73517
2994.81688 1.73675
2992.76844 1.73918
2990.72000 1.74214
2988.67156 1.74412
2986.62313 1.74525
2984.57469 1.74617
2982.52625 1.74707
2980.47781 1.74903
2978.42937 1.75171
2976.38093 1.75356
2974.33250 1.75424
2972.28406 1.75504
2970.23562 1.75666
2968.18718 1.75817
2966.13874 1.75969
2964.09030 1.76114
2962.04187 1.76171
2959.99343 1.76244
2957.94499 1.76423
2955.89655 1.76560
2953.84811 1.76546
2951.79967 1.76574
2949.75124 1.76757
2947.70280 1.76906
2945.65436 1.76927
2943.60592 1.76921
2941.55748 1.77002
2939.50904 1.77147
2937.46061 1.77200
2935.41217 1.77179
2933.36373 1.77241
2931.31529 1.77346
2929.26685 1.77348
2927.21841 1.77241
2925.16998 1.77149
2923.12154 1.77093
2921.07310 1.77013
2919.02466 1.76918
2916.97622 1.76870
2914.92778 1.77084
2912.87934 1.77533
2910.83091 1.77857
2908.78247 1.77952
2906.73403 1.77980
2904.68559 1.78092
2902.63715 1.78262
2900.58871 1.78385
2898.54028 1.78494
2896.49184 1.78617
2894.44340 1.78704
2892.39496 1.78827
2890.34652 1.78994
2888.29808 1.79060
2886.24965 1.79083
2884.20121 1.79224
2882.15277 1.79464
2880.10433 1.79717
2878.05589 1.79881
2876.00745 1.79898
2873.95902 1.79878
2871.91058 1.79929
2869.86214 1.80051
2867.81370 1.80250
2865.76526 1.80563
2863.71682 1.80903
2861.66839 1.81046
2859.61995 1.81023
2857.57151 1.81045
2855.52307 1.81057
2853.47463 1.80921
2851.42619 1.80737
2849.37776 1.80746
2847.32932 1.81053
2845.28088 1.81488
2843.23244 1.81806
2841.18400 1.81988
2839.13556 1.82234
2837.08713 1.82509
2835.03869 1.82581
2832.99025 1.82587
2830.94181 1.82753
2828.89337 1.82986
2826.84493 1.83113
2824.79650 1.83116
2822.74806 1.83067
2820.69962 1.83079
2818.65118 1.83138
2816.60274 1.83211
2814.55430 1.83465
2812.50587 1.83768
2810.45743 1.83800
2808.40899 1.83654
2806.36055 1.83565
2804.31211 1.83449
2802.26367 1.83291
2800.21524 1.83359
2798.16680 1.83634
2796.11836 1.83794
2794.06992 1.83688
2792.02148 1.83469
2789.97304 1.83317
2787.92461 1.83266
2785.87617 1.83287
2783.82773 1.83281
2781.77929 1.83217
2779.73085 1.83243
2777.68241 1.83366
2775.63397 1.83390
2773.58554 1.83311
2771.53710 1.83323
2769.48866 1.83394
2767.44022 1.83314
2765.39178 1.83185
2763.34334 1.83197
2761.29491 1.83284
2759.24647 1.83387
2757.19803 1.83423
2755.14959 1.83373
2753.10115 1.83459
2751.05271 1.83654
2749.00428 1.83723
2746.95584 1.83700
2744.90740 1.83692
2742.85896 1.83754
2740.81052 1.83820
2738.76208 1.83709
2736.71365 1.83534
2734.66521 1.83530
2732.61677 1.83644
2730.56833 1.83715
2728.51989 1.83676
2726.47145 1.83584
2724.42302 1.83502
2722.37458 1.83470
2720.32614 1.83558
2718.27770 1.83594
2716.22926 1.83404
2714.18082 1.83242
2712.13239 1.83284
2710.08395 1.83398
2708.03551 1.83465
2705.98707 1.83355
2703.93863 1.83097
2701.89019 1.82940
2699.84176 1.82857
2697.79332 1.82693
2695.74488 1.82594
2693.69644 1.82607
2691.64800 1.82595
2689.59956 1.82607
2687.55113 1.82657
2685.50269 1.82610
2683.45425 1.82415
2681.40581 1.82232
2679.35737 1.82162
2677.30893 1.82112
2675.26050 1.82147
2673.21206 1.82265
2671.16362 1.82305
2669.11518 1.82273
2667.06674 1.82223
2665.01830 1.82168
2662.96987 1.82044
2660.92143 1.81833
2658.87299 1.81723
2656.82455 1.81675
2654.77611 1.81493
2652.72767 1.81335
2650.67924 1.81280
2648.63080 1.81151
2646.58236 1.80955
2644.53392 1.80819
2642.48548 1.80732
2640.43704 1.80598
2638.38860 1.80373
2636.34017 1.80126
2634.29173 1.79960
2632.24329 1.79905
2630.19485 1.79936
2628.14641 1.79939
2626.09797 1.79814
2624.04954 1.79666
2622.00110 1.79627
2619.95266 1.79688
2617.90422 1.79747
2615.85578 1.79694
2613.80734 1.79614
2611.75891 1.79633
2609.71047 1.79670
2607.66203 1.79662
2605.61359 1.79661
2603.56515 1.79720
2601.51671 1.79748
2599.46828 1.79633
2597.41984 1.79499
2595.37140 1.79445
2593.32296 1.79424
2591.27452 1.79415
2589.22608 1.79450
2587.17765 1.79515
2585.12921 1.79525
2583.08077 1.79505
2581.03233 1.79493
2578.98389 1.79483
2576.93545 1.79488
2574.88702 1.79433
2572.83858 1.79328
2570.79014 1.79331
2568.74170 1.79467
2566.69326 1.79609
2564.64482 1.79676
2562.59639 1.79691
2560.54795 1.79680
2558.49951 1.79691
2556.45107 1.79797
2554.40263 1.79985
2552.35419 1.80167
2550.30576 1.80218
2548.25732 1.80199
2546.20888 1.80311
2544.16044 1.80600
2542.11200 1.80937
2540.06356 1.81162
2538.01513 1.81277
2535.96669 1.81407
2533.91825 1.81584
2531.86981 1.81793
2529.82137 1.81988
2527.77293 1.82086
2525.72450 1.82153
2523.67606 1.82248
2521.62762 1.82278
2519.57918 1.82272
2517.53074 1.82349
2515.48230 1.82414
2513.43387 1.82354
2511.38543 1.82302
2509.33699 1.82388
2507.28855 1.82539
2505.24011 1.82617
2503.19167 1.82631
2501.14324 1.82659
2499.09480 1.82647
2497.04636 1.82554
2494.99792 1.82506
2492.94948 1.82614
2490.90104 1.82851
2488.85260 1.83130
2486.80417 1.83291
2484.75573 1.83259
2482.70729 1.83170
2480.65885 1.83138
2478.61041 1.83209
2476.56197 1.83388
2474.51354 1.83541
2472.46510 1.83625
2470.41666 1.83714
2468.36822 1.83742
2466.31978 1.83678
2464.27134 1.83619
2462.22291 1.83628
2460.17447 1.83715
2458.12603 1.83811
2456.07759 1.83868
2454.02915 1.83943
2451.98071 1.84015
2449.93228 1.84018
2447.88384 1.83992
2445.83540 1.84002
2443.78696 1.84134
2441.73852 1.84300
2439.69008 1.84373
2437.64165 1.84494
2435.59321 1.84648
2433.54477 1.84721
2431.49633 1.84803
2429.44789 1.84900
2427.39945 1.84975
2425.35102 1.85105
2423.30258 1.85316
2421.25414 1.85450
2419.20570 1.85403
2417.15726 1.85325
2415.10882 1.85268
2413.06039 1.85185
2411.01195 1.85122
2408.96351 1.85028
2406.91507 1.84901
2404.86663 1.84719
2402.81819 1.84394
2400.76976 1.84099
2398.72132 1.84037
2396.67288 1.84063
2394.62444 1.83944
2392.57600 1.83796
2390.52756 1.83684
2388.47913 1.83363
2386.43069 1.82953
2384.38225 1.82773
2382.33381 1.82780
2380.28537 1.82862
2378.23693 1.82980
2376.18850 1.82949
2374.14006 1.82668
2372.09162 1.82274
2370.04318 1.81936
2367.99474 1.81594
2365.94630 1.81302
2363.89787 1.81437
2361.84943 1.81727
2359.80099 1.81747
2357.75255 1.81730
2355.70411 1.81884
2353.65567 1.81972
2351.60723 1.81632
2349.55880 1.81011
2347.51036 1.80545
2345.46192 1.80496
2343.41348 1.80652
2341.36504 1.80394
2339.31660 1.79719
2337.26817 1.79270
2335.21973 1.79281
2333.17129 1.79330
2331.12285 1.79210
2329.07441 1.79132
2327.02597 1.79008
2324.97754 1.78590
2322.92910 1.78179
2320.88066 1.78112
2318.83222 1.78221
2316.78378 1.78237
2314.73534 1.78060
2312.68691 1.77691
2310.63847 1.77293
2308.59003 1.77122
2306.54159 1.77097
2304.49315 1.76930
2302.44471 1.76650
2300.39628 1.76468
2298.34784 1.76367
2296.29940 1.76246
2294.25096 1.76175
2292.20252 1.76126
2290.15408 1.75973
2288.10565 1.75773
2286.05721 1.75581
2284.00877 1.75404
2281.96033 1.75249
2279.91189 1.75124
2277.86345 1.75017
2275.81502 1.74894
2273.76658 1.74779
2271.71814 1.74679
2269.66970 1.74554
2267.62126 1.74404
2265.57282 1.74283
2263.52439 1.74227
2261.47595 1.74243
2259.42751 1.74279
2257.37907 1.74253
2255.33063 1.74195
2253.28219 1.74126
2251.23376 1.74058
2249.18532 1.74095
2247.13688 1.74147
2245.08844 1.74084
2243.04000 1.74035
2240.99156 1.74036
2238.94313 1.74016
2236.89469 1.74087
2234.84625 1.74261
2232.79781 1.74310
2230.74937 1.74234
2228.70093 1.74190
2226.65250 1.74208
2224.60406 1.74269
2222.55562 1.74268
2220.50718 1.74119
2218.45874 1.73916
2216.41030 1.73749
2214.36186 1.73567
2212.31343 1.73378
2210.26499 1.73262
2208.21655 1.73182
2206.16811 1.73058
2204.11967 1.72944
2202.07123 1.72880
2200.02280 1.72811
2197.97436 1.72749
2195.92592 1.72671
2193.87748 1.72575
2191.82904 1.72599
2189.78060 1.72738
2187.73217 1.72846
2185.68373 1.72884
2183.63529 1.72929
2181.58685 1.73048
2179.53841 1.73167
2177.48997 1.73199
2175.44154 1.73246
2173.39310 1.73399
2171.34466 1.73666
2169.29622 1.74004
2167.24778 1.74374
2165.19934 1.74820
2163.15091 1.75247
2161.10247 1.75546
2159.05403 1.75785
2157.00559 1.76018
2154.95715 1.76215
2152.90871 1.76314
2150.86028 1.76312
2148.81184 1.76209
2146.76340 1.76018
2144.71496 1.75911
2142.66652 1.75853
2140.61808 1.75601
2138.56965 1.75233
2136.52121 1.74947
2134.47277 1.74712
2132.42433 1.74490
2130.37589 1.74370
2128.32745 1.74328
2126.27902 1.74246
2124.23058 1.74225
2122.18214 1.74393
2120.13370 1.74592
2118.08526 1.74708
2116.03682 1.74864
2113.98839 1.75042
2111.93995 1.75183
2109.89151 1.75458
2107.84307 1.75971
2105.79463 1.76646
2103.74619 1.77399
2101.69776 1.78162
2099.64932 1.78825
2097.60088 1.79219
2095.55244 1.79127
2093.50400 1.78500
2091.45556 1.77766
2089.40713 1.77326
2087.35869 1.77151
2085.31025 1.77097
2083.26181 1.77115
2081.21337 1.77266
2079.16493 1.77540
2077.11649 1.77827
2075.06806 1.78113
2073.01962 1.78447
2070.97118 1.78846
2068.92274 1.79265
2066.87430 1.79674
2064.82586 1.80045
2062.77743 1.80323
2060.72899 1.80536
2058.68055 1.80728
2056.63211 1.80812
2054.58367 1.80776
2052.53523 1.80752
2050.48680 1.80769
2048.43836 1.80766
2046.38992 1.80673
2044.34148 1.80457
2042.29304 1.80154
2040.24460 1.79783
2038.19617 1.79357
2036.14773 1.78877
2034.09929 1.78334
2032.05085 1.77769
2030.00241 1.77247
2027.95397 1.76806
2025.90554 1.76393
2023.85710 1.75938
2021.80866 1.75477
2019.76022 1.75113
2017.71178 1.74923
2015.66334 1.74859
2013.61491 1.74744
2011.56647 1.74503
2009.51803 1.74292
2007.46959 1.74208
2005.42115 1.74134
2003.37271 1.74031
2001.32428 1.73952
1999.27584 1.73875
1997.22740 1.73746
1995.17896 1.73497
1993.13052 1.73255
1991.08208 1.73180
1989.03365 1.73077
1986.98521 1.72890
1984.93677 1.72734
1982.88833 1.72520
1980.83989 1.72248
1978.79145 1.72091
1976.74302 1.72050
1974.69458 1.71898
1972.64614 1.71558
1970.59770 1.71210
1968.54926 1.70981
1966.50082 1.70852
1964.45239 1.70761
1962.40395 1.70713
1960.35551 1.70726
1958.30707 1.70689
1956.25863 1.70588
1954.21019 1.70567
1952.16176 1.70624
1950.11332 1.70655
1948.06488 1.70638
1946.01644 1.70583
1943.96800 1.70591
1941.91956 1.70832
1939.87112 1.71135
1937.82269 1.71347
1935.77425 1.71560
1933.72581 1.71728
1931.67737 1.71829
1929.62893 1.71937
1927.58049 1.72025
1925.53206 1.72037
1923.48362 1.72135
1921.43518 1.72352
1919.38674 1.72543
1917.33830 1.72850
1915.28986 1.73121
1913.24143 1.73173
1911.19299 1.73297
1909.14455 1.73717
1907.09611 1.74199
1905.04767 1.74476
1902.99923 1.74676
1900.95080 1.74944
1898.90236 1.75212
1896.85392 1.75413
1894.80548 1.75605
1892.75704 1.75771
1890.70860 1.75957
1888.66017 1.76358
1886.61173 1.76737
1884.56329 1.76872
1882.51485 1.76913
1880.46641 1.76968
1878.41797 1.77055
1876.36954 1.77191
1874.32110 1.77300
1872.27266 1.77154
1870.22422 1.76877
1868.17578 1.77128
1866.12734 1.77704
1864.07891 1.77930
1862.03047 1.78066
1859.98203 1.78381
1857.93359 1.78725
1855.88515 1.78956
1853.83671 1.79188
1851.78828 1.79450
1849.73984 1.79571
1847.69140 1.79551
1845.64296 1.79619
1843.59452 1.80100
1841.54608 1.80617
1839.49765 1.80819
1837.44921 1.81007
1835.40077 1.81268
1833.35233 1.81358
1831.30389 1.81380
1829.25545 1.81760
1827.20702 1.82228
1825.15858 1.82478
1823.11014 1.82640
1821.06170 1.82751
1819.01326 1.82921
1816.96482 1.83132
1814.91639 1.83189
1812.86795 1.83074
1810.81951 1.83110
1808.77107 1.83484
1806.72263 1.83901
1804.67419 1.84168
1802.62575 1.84417
1800.57732 1.84938
1798.52888 1.85719
1796.48044 1.86408
1794.43200 1.86937
1792.38356 1.87653
1790.33512 1.88430
1788.28669 1.88717
1786.23825 1.88790
1784.18981 1.89005
1782.14137 1.89308
1780.09293 1.89669
1778.04449 1.90031
1775.99606 1.90168
1773.94762 1.90100
1771.89918 1.90252
1769.85074 1.90635
1767.80230 1.90787
1765.75386 1.90841
1763.70543 1.90983
1761.65699 1.91313
1759.60855 1.91826
1757.56011 1.92517
1755.51167 1.93230
1753.46323 1.93636
1751.41480 1.94070
1749.36636 1.94995
1747.31792 1.95994
1745.26948 1.96568
1743.22104 1.96745
1741.17260 1.96713
1739.12417 1.96689
1737.07573 1.96482
1735.02729 1.96055
1732.97885 1.96052
1730.93041 1.96016
1728.88197 1.95328
1726.83354 1.94360
1724.78510 1.93502
1722.73666 1.93019
1720.68822 1.92801
1718.63978 1.92711
1716.59134 1.93273
1714.54291 1.94199
1712.49447 1.94686
1710.44603 1.94878
1708.39759 1.95034
1706.34915 1.95268
1704.30071 1.95449
1702.25228 1.95429
1700.20384 1.95623
1698.15540 1.96077
1696.10696 1.96361
1694.05852 1.96684
1692.01008 1.96860
1689.96165 1.97003
1687.91321 1.97196
1685.86477 1.97273
1683.81633 1.97705
1681.76789 1.98562
1679.71945 1.99006
1677.67102 1.98959
1675.62258 1.98769
1673.57414 1.98836
1671.52570 1.99002
1669.47726 1.99279
1667.42882 1.99651
1665.38038 1.99858
1663.33195 2.00135
1661.28351 2.00568
1659.23507 2.00778
1657.18663 2.00707
1655.13819 2.00468
1653.08975 2.00823
1651.04132 2.01592
1648.99288 2.01710
1646.94444 2.02041
1644.89600 2.02781
1642.84756 2.03095
1640.79912 2.03193
1638.75069 2.03395
1636.70225 2.03971
1634.65381 2.04790
1632.60537 2.05101
1630.55693 2.05105
1628.50849 2.05132
1626.46006 2.05462
1624.41162 2.06008
1622.36318 2.06593
1620.31474 2.06941
1618.26630 2.07168
1616.21786 2.07637
1614.16943 2.08308
1612.12099 2.08877
1610.07255 2.09273
1608.02411 2.09680
1605.97567 2.10093
1603.92723 2.10441
1601.87880 2.10934
1599.83036 2.11550
1597.78192 2.12029
1595.73348 2.12488
1593.68504 2.13087
1591.63660 2.13698
1589.58817 2.14219
1587.53973 2.14847
1585.49129 2.15684
1583.44285 2.16471
1581.39441 2.17068
1579.34597 2.17480
1577.29754 2.18093
1575.24910 2.19197
1573.20066 2.20129
1571.15222 2.20850
1569.10378 2.21724
1567.05534 2.22383
1565.00691 2.22944
1562.95847 2.23480
1560.91003 2.23671
1558.86159 2.25078
1556.81315 2.27231
1554.76471 2.28168
1552.71628 2.28890
1550.66784 2.29400
1548.61940 2.29697
1546.57096 2.30137
1544.52252 2.30598
1542.47408 2.30800
1540.42565 2.31977
1538.37721 2.33939
1536.32877 2.34585
1534.28033 2.34925
1532.23189 2.35850
1530.18345 2.36165
1528.13501 2.35704
1526.08658 2.34484
1524.03814 2.33049
1521.98970 2.30886
1519.94126 2.28160
1517.89282 2.25167
1515.84438 2.20845
1513.79595 2.16481
1511.74751 2.12265
1509.69907 2.07867
1507.65063 2.00047
1505.60219 1.89796
1503.55375 1.84323
1501.50532 1.79639
1499.45688 1.73869
1497.40844 1.66957
1495.36000 1.60694
1493.31156 1.56400
1491.26312 1.52269
1489.21469 1.47131
1487.16625 1.42889
1485.11781 1.40021
1483.06937 1.37677
1481.02093 1.35567
1478.97249 1.33848
1476.92406 1.32451
1474.87562 1.31190
1472.82718 1.30054
1470.77874 1.29255
1468.73030 1.28735
1466.68186 1.28201
1464.63343 1.27652
1462.58499 1.27207
1460.53655 1.26771
1458.48811 1.26223
1456.43967 1.25801
1454.39123 1.25631
1452.34280 1.25446
1450.29436 1.25250
1448.24592 1.25112
1446.19748 1.25111
1444.14904 1.25205
1442.10060 1.25371
1440.05217 1.25589
1438.00373 1.25984
1435.95529 1.26813
1433.90685 1.27650
1431.85841 1.28349
1429.80997 1.29249
1427.76154 1.30146
1425.71310 1.30760
1423.66466 1.31179
1421.61622 1.31308
1419.56778 1.30975
1417.51934 1.30239
1415.47091 1.29359
1413.42247 1.28272
1411.37403 1.26978
1409.32559 1.25680
1407.27715 1.24510
1405.22871 1.23438
1403.18028 1.22628
1401.13184 1.22109
1399.08340 1.21747
1397.03496 1.21601
1394.98652 1.21770
1392.93808 1.22236
1390.88965 1.22817
1388.84121 1.23655
1386.79277 1.25043
1384.74433 1.26708
1382.69589 1.28372
1380.64745 1.30146
1378.59901 1.31981
1376.55058 1.33757
1374.50214 1.35608
1372.45370 1.37404
1370.40526 1.38841
1368.35682 1.40170
1366.30838 1.41398
1364.25995 1.42500
1362.21151 1.43730
1360.16307 1.44890
1358.11463 1.45813
1356.06619 1.46673
1354.01775 1.47553
1351.96932 1.48410
1349.92088 1.49221
1347.87244 1.49992
1345.82400 1.50733
1343.77556 1.51369
1341.72712 1.51892
1339.67869 1.52488
1337.63025 1.53187
1335.58181 1.53818
1333.53337 1.54366
1331.48493 1.54873
1329.43649 1.55368
1327.38806 1.55883
1325.33962 1.56389
1323.29118 1.56794
1321.24274 1.57050
1319.19430 1.57303
1317.14586 1.57624
1315.09743 1.57908
1313.04899 1.58165
1311.00055 1.58439
1308.95211 1.58672
1306.90367 1.58862
1304.85523 1.59067
1302.80680 1.59313
1300.75836 1.59542
1298.70992 1.59689
1296.66148 1.59873
1294.61304 1.60163
1292.56460 1.60464
1290.51617 1.60734
1288.46773 1.60993
1286.41929 1.61238
1284.37085 1.61455
1282.32241 1.61647
1280.27397 1.61853
1278.22554 1.62113
1276.17710 1.62400
1274.12866 1.62635
1272.08022 1.62799
1270.03178 1.62990
1267.98334 1.63241
1265.93491 1.63459
1263.88647 1.63637
1261.83803 1.63915
1259.78959 1.64274
1257.74115 1.64546
1255.69271 1.64715
1253.64428 1.64878
1251.59584 1.65067
1249.54740 1.65269
1247.49896 1.65486
1245.45052 1.65742
1243.40208 1.65970
1241.35364 1.66104
1239.30521 1.66204
1237.25677 1.66336
1235.20833 1.66523
1233.15989 1.66719
1231.11145 1.66865
1229.06301 1.66976
1227.01458 1.67151
1224.96614 1.67399
1222.91770 1.67558
1220.86926 1.67645
1218.82082 1.67780
1216.77238 1.67940
1214.72395 1.68082
1212.67551 1.68204
1210.62707 1.68333
1208.57863 1.68487
1206.53019 1.68621
1204.48175 1.68718
1202.43332 1.68891
1200.38488 1.69116
1198.33644 1.69236
1196.28800 1.69283
1194.23956 1.69341
1192.19112 1.69393
1190.14269 1.69422
1188.09425 1.69455
1186.04581 1.69587
1183.99737 1.69804
1181.94893 1.69952
1179.90049 1.69972
1177.85206 1.70005
1175.80362 1.70146
1173.75518 1.70260
1171.70674 1.70321
1169.65830 1.70389
1167.60986 1.70426
1165.56143 1.70434
1163.51299 1.70419
1161.46455 1.70449
1159.41611 1.70569
1157.36767 1.70678
1155.31923 1.70750
1153.27080 1.70820
1151.22236 1.70871
1149.17392 1.70872
1147.12548 1.70878
1145.07704 1.70941
1143.02860 1.71002
1140.98017 1.71072
1138.93173 1.71164
1136.88329 1.71247
1134.83485 1.71266
1132.78641 1.71213
1130.73797 1.71223
1128.68954 1.71324
1126.64110 1.71404
1124.59266 1.71454
1122.54422 1.71556
1120.49578 1.71723
1118.44734 1.71909
1116.39891 1.72051
1114.35047 1.72106
1112.30203 1.72122
1110.25359 1.72197
1108.20515 1.72280
1106.15671 1.72267
1104.10827 1.72197
1102.05984 1.72103
1100.01140 1.71990
1097.96296 1.71910
1095.91452 1.71923
1093.86608 1.71976
1091.81764 1.72032
1089.76921 1.72105
1087.72077 1.72183
1085.67233 1.72239
1083.62389 1.72297
1081.57545 1.72377
1079.52701 1.72450
1077.47858 1.72571
1075.43014 1.72751
1073.38170 1.72986
1071.33326 1.73247
1069.28482 1.73447
1067.23638 1.73635
1065.18795 1.73932
1063.13951 1.74364
1061.09107 1.75149
1059.04263 1.76565
1056.99419 1.77949
1054.94575 1.75576
1052.89732 1.68426
1050.84888 1.63738
1048.80044 1.64842
1046.75200 1.67740
1044.70356 1.69342
1042.65512 1.70092
1040.60669 1.70519
1038.55825 1.70857
1036.50981 1.71242
1034.46137 1.71680
1032.41293 1.72017
1030.36449 1.72116
1028.31606 1.72097
1026.26762 1.72211
1024.21918 1.72407
1022.17074 1.72529
1020.12230 1.72629
1018.07386 1.72812
1016.02543 1.73030
1013.97699 1.73244
1011.92855 1.73440
1009.88011 1.73635
1007.83167 1.73967
1005.78323 1.74406
1003.73480 1.74791
1001.68636 1.75019
999.63792 1.75112
997.58948 1.75173
995.54104 1.75231
993.49260 1.75307
991.44417 1.75402
989.39573 1.75462
987.34729 1.75527
985.29885 1.75588
983.25041 1.75573
981.20197 1.75559
979.15354 1.75671
977.10510 1.75833
975.05666 1.75869
973.00822 1.75937
970.95978 1.76215
968.91134 1.76482
966.86290 1.76590
964.81447 1.76713
962.76603 1.76918
960.71759 1.77185
958.66915 1.77517
956.62071 1.77769
954.57227 1.77872
952.52384 1.78003
950.47540 1.78195
948.42696 1.78266
946.37852 1.78229
944.33008 1.78251
942.28164 1.78371
940.23321 1.78497
938.18477 1.78616
936.13633 1.78772
934.08789 1.78914
932.03945 1.78975
929.99101 1.79008
927.94258 1.79105
925.89414 1.79228
923.84570 1.79374
921.79726 1.79446
919.74882 1.79347
917.70038 1.79212
915.65195 1.79193
913.60351 1.79398
911.55507 1.79746
909.50663 1.79999
907.45819 1.80179
905.40975 1.80394
903.36132 1.80490
901.31288 1.80544
899.26444 1.80892
897.21600 1.81349
895.16756 1.81553
893.11912 1.81706
891.07069 1.82017
889.02225 1.82351
886.97381 1.82512
884.92537 1.82477
882.87693 1.82486
880.82849 1.82791
878.78006 1.83300
876.73162 1.83731
874.68318 1.84085
872.63474 1.84505
870.58630 1.85038
868.53786 1.85676
866.48943 1.86435
864.44099 1.87305
862.39255 1.88339
860.34411 1.89495
858.29567 1.90567
856.24723 1.91783
854.19880 1.93332
852.15036 1.94853
850.10192 1.94715
848.05348 1.88612
846.00504 1.73698
843.95660 1.56516
841.90817 1.44978
839.85973 1.41431
837.81129 1.44727
835.76285 1.51869
833.71441 1.59086
831.66597 1.64400
829.61753 1.68170
827.56910 1.70795
825.52066 1.72082
823.47222 1.72379
821.42378 1.72819
819.37534 1.73887
817.32690 1.74985
815.27847 1.75767
813.23003 1.76452
811.18159 1.77068
809.13315 1.77590
807.08471 1.78112
805.03627 1.78583
802.98784 1.78907
800.93940 1.79015
798.89096 1.79096
796.84252 1.79452
794.79408 1.79944
792.74564 1.80343
790.69721 1.80600
788.64877 1.80825
786.60033 1.81047
784.55189 1.81107
782.50345 1.81032
780.45501 1.80989
778.40658 1.81167
776.35814 1.81694
774.30970 1.82374
772.26126 1.82747
770.21282 1.82872
768.16438 1.83256
766.11595 1.83766
764.06751 1.83764
762.01907 1.83455
759.97063 1.83453
757.92219 1.83638
755.87375 1.83817
753.82532 1.83986
751.77688 1.84035
749.72844 1.84076
747.68000 1.84511
745.63156 1.85195
743.58312 1.85324
741.53469 1.84894
739.48625 1.84904
737.43781 1.85416
735.38937 1.85602
733.34093 1.85604
731.29249 1.85841
729.24406 1.85904
727.19562 1.85521
725.14718 1.85291
723.09874 1.85551
721.05030 1.86167
719.00186 1.86878
716.95343 1.87032
714.90499 1.86912
712.85655 1.87401
710.80811 1.88260
708.75967 1.89017
706.71123 1.89768
704.66280 1.90266
702.61436 1.90747
700.56592 1.91653
698.51748 1.92751
696.46904 1.94238
694.42060 1.96458
692.37216 1.99344
690.32373 2.03274
688.27529 2.08521
686.22685 2.07301
684.17841 1.87001
682.12997 1.61569
680.08153 1.47345
678.03310 1.46694
675.98466 1.54609
673.93622 1.62852
671.88778 1.67185
669.83934 1.69479
667.79090 1.72299
665.74247 1.73741
663.69403 1.73379
661.64559 1.73297
659.59715 1.74553
657.54871 1.76343
655.50027 1.77260
653.45184 1.77685
651.40340 1.78935
649.35496 1.80811
647.30652 1.82536
645.25808 1.83679
643.20964 1.83292
641.16121 1.82071
639.11277 1.81501
637.06433 1.81469
635.01589 1.82701
632.96745 1.84358
630.91901 1.83779
628.87058 1.82235
626.82214 1.81600
624.77370 1.80211
622.72526 1.77515
620.67682 1.76382
618.62838 1.78153
616.57995 1.82335
614.53151 1.86614
612.48307 1.85774
610.43463 1.80960
608.38619 1.80435
606.33775 1.85339
604.28932 1.87989
602.24088 1.84218
600.19244 1.80597
598.14400 1.82119
