3996.50324 2.08039
3994.45480 2.07765
3992.40636 2.07533
3990.35792 2.07697
3988.30948 2.07805
3986.26104 2.07601
3984.21261 2.07418
3982.16417 2.07418
3980.11573 2.07458
3978.06729 2.07446
3976.01885 2.07442
3973.97041 2.07474
3971.92198 2.07500
3969.87354 2.07417
3967.82510 2.07181
3965.77666 2.07076
3963.72822 2.07210
3961.67978 2.07238
3959.63135 2.07063
3957.58291 2.07133
3955.53447 2.07661
3953.48603 2.08018
3951.43759 2.07773
3949.38915 2.07454
3947.34072 2.07312
3945.29228 2.07126
3943.24384 2.07199
3941.19540 2.07376
3939.14696 2.07088
3937.09852 2.06808
3935.05009 2.07025
3933.00165 2.07635
3930.95321 2.08370
3928.90477 2.08625
3926.85633 2.08343
3924.80789 2.08176
3922.75946 2.08262
3920.71102 2.08282
3918.66258 2.08356
3916.61414 2.08648
3914.56570 2.08929
3912.51726 2.09012
3910.46883 2.09022
3908.42039 2.08833
3906.37195 2.08240
3904.32351 2.07853
3902.27507 2.08427
3900.22663 2.09195
3898.17820 2.09435
3896.12976 2.09466
3894.08132 2.09687
3892.03288 2.10015
3889.98444 2.09883
3887.93600 2.09400
3885.88756 2.09178
3883.83913 2.09260
3881.79069 2.09136
3879.74225 2.09101
3877.69381 2.09512
3875.64537 2.10063
3873.59693 2.10537
3871.54850 2.10928
3869.50006 2.11397
3867.45162 2.11580
3865.40318 2.11358
3863.35474 2.11084
3861.30630 2.10895
3859.25787 2.10646
3857.20943 2.10342
3855.16099 2.10240
3853.11255 2.10655
3851.06411 2.10633
3849.01567 2.10347
3846.96724 2.10304
3844.91880 2.10563
3842.87036 2.10686
3840.82192 2.10001
3838.77348 2.09237
3836.72504 2.09545
3834.67661 2.10096
3832.62817 2.10191
3830.57973 2.10361
3828.53129 2.10738
3826.48285 2.10878
3824.43441 2.10669
3822.38598 2.10489
3820.33754 2.10727
3818.28910 2.10897
3816.24066 2.10833
3814.19222 2.10975
3812.14378 2.11249
3810.09535 2.11272
3808.04691 2.11088
3805.99847 2.10955
3803.95003 2.10561
3801.90159 2.10081
3799.85315 2.10174
3797.80472 2.10514
3795.75628 2.11028
3793.70784 2.11336
3791.65940 2.11046
3789.61096 2.10622
3787.56252 2.10375
3785.51409 2.10320
3783.46565 2.10512
3781.41721 2.10792
3779.36877 2.10956
3777.32033 2.10859
3775.27189 2.10776
3773.22346 2.10829
3771.17502 2.10784
3769.12658 2.10623
3767.07814 2.10590
3765.02970 2.10837
3762.98126 2.11085
3760.93283 2.10867
3758.88439 2.10630
3756.83595 2.11016
3754.78751 2.11439
3752.73907 2.11368
3750.69063 2.10881
3748.64219 2.10309
3746.59376 2.09438
3744.54532 2.09093
3742.49688 2.09849
3740.44844 2.10076
3738.40000 2.09782
3736.35156 2.09749
3734.30313 2.09875
3732.25469 2.09564
3730.20625 2.09607
3728.15781 2.10294
3726.10937 2.10992
3724.06093 2.10891
3722.01250 2.10227
3719.96406 2.09874
3717.91562 2.09936
3715.86718 2.09923
3713.81874 2.09504
3711.77030 2.09140
3709.72187 2.09955
3707.67343 2.10778
3705.62499 2.10638
3703.57655 2.10036
3701.52811 2.09895
3699.47967 2.10318
3697.43124 2.10437
3695.38280 2.10323
3693.33436 2.10272
3691.28592 2.10331
3689.23748 2.10632
3687.18904 2.10731
3685.14061 2.10579
3683.09217 2.10622
3681.04373 2.11023
3678.99529 2.11149
3676.94685 2.10662
3674.89841 2.10851
3672.84998 2.11218
3670.80154 2.10855
3668.75310 2.10600
3666.70466 2.10585
3664.65622 2.10508
3662.60778 2.10551
3660.55935 2.10842
3658.51091 2.11100
3656.46247 2.11112
3654.41403 2.10936
3652.36559 2.10378
3650.31715 2.09503
3648.26872 2.09351
3646.22028 2.09759
3644.17184 2.09873
3642.12340 2.09838
3640.07496 2.09862
3638.02652 2.09948
3635.97809 2.09962
3633.92965 2.09807
3631.88121 2.09477
3629.83277 2.09170
3627.78433 2.09569
3625.73589 2.10145
3623.68746 2.10349
3621.63902 2.10411
3619.59058 2.10370
3617.54214 2.10358
3615.49370 2.10358
3613.44526 2.10421
3611.39682 2.10633
3609.34839 2.10529
3607.29995 2.09967
3605.25151 2.09365
3603.20307 2.09081
3601.15463 2.09224
3599.10619 2.09568
3597.05776 2.09659
3595.00932 2.09559
3592.96088 2.09995
3590.91244 2.10671
3588.86400 2.10804
3586.81556 2.10659
3584.76713 2.10738
3582.71869 2.10811
3580.67025 2.10672
3578.62181 2.10292
3576.57337 2.10138
3574.52493 2.10675
3572.47650 2.11318
3570.42806 2.11110
3568.37962 2.10320
3566.33118 2.10360
3564.28274 2.10712
3562.23430 2.10305
3560.18587 2.10216
3558.13743 2.10795
3556.08899 2.10996
3554.04055 2.10836
3551.99211 2.10986
3549.94367 2.11135
3547.89524 2.10995
3545.84680 2.10986
3543.79836 2.11181
3541.74992 2.11226
3539.70148 2.11110
3537.65304 2.11046
3535.60461 2.11121
3533.55617 2.11183
3531.50773 2.11246
3529.45929 2.11577
3527.41085 2.12010
3525.36241 2.11968
3523.31398 2.11662
3521.26554 2.11633
3519.21710 2.11681
3517.16866 2.11514
3515.12022 2.11520
3513.07178 2.11997
3511.02335 2.12496
3508.97491 2.12723
3506.92647 2.12626
3504.87803 2.12315
3502.82959 2.12158
3500.78115 2.12269
3498.73272 2.12652
3496.68428 2.12790
3494.63584 2.12362
3492.58740 2.12019
3490.53896 2.11843
3488.49052 2.11655
3486.44209 2.11727
3484.39365 2.12061
3482.34521 2.12461
3480.29677 2.12827
3478.24833 2.13045
3476.19989 2.13091
3474.15146 2.13028
3472.10302 2.13012
3470.05458 2.13181
3468.00614 2.13378
3465.95770 2.13450
3463.90926 2.13524
3461.86082 2.13551
3459.81239 2.13311
3457.76395 2.13049
3455.71551 2.13177
3453.66707 2.13450
3451.61863 2.13546
3449.57019 2.13754
3447.52176 2.13917
3445.47332 2.13559
3443.42488 2.13055
3441.37644 2.12848
3439.32800 2.12860
3437.27956 2.12982
3435.23113 2.13221
3433.18269 2.13223
3431.13425 2.12852
3429.08581 2.12758
3427.03737 2.13078
3424.98893 2.13252
3422.94050 2.13330
3420.89206 2.13392
3418.84362 2.13194
3416.79518 2.13116
3414.74674 2.13186
3412.69830 2.13102
3410.64987 2.13060
3408.60143 2.12993
3406.55299 2.12859
3404.50455 2.13048
3402.45611 2.13332
3400.40767 2.13265
3398.35924 2.13274
3396.31080 2.13456
3394.26236 2.13365
3392.21392 2.13180
3390.16548 2.13053
3388.11704 2.12811
3386.06861 2.12751
3384.02017 2.13071
3381.97173 2.13650
3379.92329 2.14266
3377.87485 2.14232
3375.82641 2.13625
3373.77798 2.13074
3371.72954 2.12609
3369.68110 2.12316
3367.63266 2.12376
3365.58422 2.12785
3363.53578 2.13178
3361.48735 2.13256
3359.43891 2.13257
3357.39047 2.13242
3355.34203 2.13100
3353.29359 2.12940
3351.24515 2.12845
3349.19672 2.12782
3347.14828 2.12660
3345.09984 2.12580
3343.05140 2.12773
3341.00296 2.13000
3338.95452 2.13080
3336.90609 2.13206
3334.85765 2.13331
3332.80921 2.13279
3330.76077 2.13059
3328.71233 2.12834
3326.66389 2.12556
3324.61545 2.12271
3322.56702 2.12383
3320.51858 2.12852
3318.47014 2.13167
3316.42170 2.13166
3314.37326 2.13057
3312.32482 2.12960
3310.27639 2.12897
3308.22795 2.12797
3306.17951 2.12538
3304.13107 2.12334
3302.08263 2.12544
3300.03419 2.12874
3297.98576 2.12860
3295.93732 2.12717
3293.88888 2.12678
3291.84044 2.12731
3289.79200 2.12877
3287.74356 2.12996
3285.69513 2.12896
3283.64669 2.12586
3281.59825 2.12351
3279.54981 2.12288
3277.50137 2.12252
3275.45293 2.12451
3273.40450 2.13031
3271.35606 2.13381
3269.30762 2.13086
3267.25918 2.12705
3265.21074 2.12657
3263.16230 2.12691
3261.11387 2.12700
3259.06543 2.12730
3257.01699 2.12783
3254.96855 2.13042
3252.92011 2.13214
3250.87167 2.12986
3248.82324 2.12799
3246.77480 2.12781
3244.72636 2.12738
3242.67792 2.12872
3240.62948 2.13069
3238.58104 2.13015
3236.53261 2.13137
3234.48417 2.13650
3232.43573 2.13946
3230.38729 2.13886
3228.33885 2.13726
3226.29041 2.13459
3224.24198 2.13316
3222.19354 2.13370
3220.14510 2.13357
3218.09666 2.13508
3216.04822 2.13850
3213.99978 2.13836
3211.95135 2.13595
3209.90291 2.13495
3207.85447 2.13413
3205.80603 2.13394
3203.75759 2.13419
3201.70915 2.13292
3199.66072 2.13254
3197.61228 2.13629
3195.56384 2.14101
3193.51540 2.14192
3191.46696 2.14034
3189.41852 2.13805
3187.37008 2.13488
3185.32165 2.13302
3183.27321 2.13293
3181.22477 2.13344
3179.17633 2.13465
3177.12789 2.13483
3175.07945 2.13401
3173.03102 2.13460
3170.98258 2.13634
3168.93414 2.13861
3166.88570 2.14032
3164.83726 2.14014
3162.78882 2.13931
3160.74039 2.13872
3158.69195 2.13872
3156.64351 2.13935
3154.59507 2.13927
3152.54663 2.13998
3150.49819 2.14253
3148.44976 2.14458
3146.40132 2.14448
3144.35288 2.14260
3142.30444 2.14157
3140.25600 2.14225
3138.20756 2.14321
3136.15913 2.14189
3134.11069 2.13715
3132.06225 2.13457
3130.01381 2.13661
3127.96537 2.13797
3125.91693 2.13681
3123.86850 2.13709
3121.82006 2.14055
3119.77162 2.14496
3117.72318 2.14857
3115.67474 2.15087
3113.62630 2.15172
3111.57787 2.15124
3109.52943 2.14835
3107.48099 2.14389
3105.43255 2.14156
3103.38411 2.14279
3101.33567 2.14647
3099.28724 2.15081
3097.23880 2.15391
3095.19036 2.15411
3093.14192 2.15358
3091.09348 2.15575
3089.04504 2.15734
3086.99661 2.15493
3084.94817 2.15309
3082.89973 2.15421
3080.85129 2.15389
3078.80285 2.15147
3076.75441 2.15026
3074.70598 2.15016
3072.65754 2.14939
3070.60910 2.14894
3068.56066 2.14902
3066.51222 2.14739
3064.46378 2.14648
3062.41535 2.14950
3060.36691 2.15295
3058.31847 2.15333
3056.27003 2.15180
3054.22159 2.15031
3052.17315 2.14991
3050.12471 2.14941
3048.07628 2.14866
3046.02784 2.15048
3043.97940 2.15433
3041.93096 2.15571
3039.88252 2.15347
3037.83408 2.15182
3035.78565 2.15226
3033.73721 2.15387
3031.68877 2.15615
3029.64033 2.15556
3027.59189 2.15144
3025.54345 2.14870
3023.49502 2.14951
3021.44658 2.15085
3019.39814 2.15011
3017.34970 2.14950
3015.30126 2.15173
3013.25282 2.15503
3011.20439 2.15698
3009.15595 2.15639
3007.10751 2.15346
3005.05907 2.15222
3003.01063 2.15546
3000.96219 2.15885
2998.91376 2.15808
2996.86532 2.15490
2994.81688 2.15337
2992.76844 2.15552
2990.72000 2.15879
2988.67156 2.16012
2986.62313 2.15945
2984.57469 2.15841
2982.52625 2.15803
2980.47781 2.15858
2978.42937 2.16032
2976.38093 2.16104
2974.33250 2.15854
2972.28406 2.15494
2970.23562 2.15439
2968.18718 2.15743
2966.13874 2.16080
2964.09030 2.16209
2962.04187 2.16103
2959.99343 2.15922
2957.94499 2.15991
2955.89655 2.16263
2953.84811 2.16299
2951.79967 2.16058
2949.75124 2.15945
2947.70280 2.16105
2945.65436 2.16210
2943.60592 2.16117
2941.55748 2.15940
2939.50904 2.15886
2937.46061 2.16076
2935.41217 2.16231
2933.36373 2.16194
2931.31529 2.16147
2929.26685 2.16219
2927.21841 2.16340
2925.16998 2.16525
2923.12154 2.16659
2921.07310 2.16494
2919.02466 2.16189
2916.97622 2.15964
2914.92778 2.15949
2912.87934 2.16365
2910.83091 2.16947
2908.78247 2.17158
2906.73403 2.17011
2904.68559 2.16686
2902.63715 2.16412
2900.58871 2.16595
2898.54028 2.17101
2896.49184 2.17226
2894.44340 2.16870
2892.39496 2.16638
2890.34652 2.16716
2888.29808 2.16855
2886.24965 2.16897
2884.20121 2.16899
2882.15277 2.16934
2880.10433 2.16987
2878.05589 2.17045
2876.00745 2.17003
2873.95902 2.16860
2871.91058 2.16802
2869.86214 2.16906
2867.81370 2.16993
2865.76526 2.16942
2863.71682 2.16914
2861.66839 2.16986
2859.61995 2.17082
2857.57151 2.17090
2855.52307 2.17131
2853.47463 2.17324
2851.42619 2.17221
2849.37776 2.16923
2847.32932 2.16960
2845.28088 2.17071
2843.23244 2.17031
2841.18400 2.16962
2839.13556 2.16977
2837.08713 2.17188
2835.03869 2.17376
2832.99025 2.17250
2830.94181 2.17047
2828.89337 2.17073
2826.84493 2.17085
2824.79650 2.17006
2822.74806 2.17192
2820.69962 2.17572
2818.65118 2.17725
2816.60274 2.17575
2814.55430 2.17453
2812.50587 2.17637
2810.45743 2.17899
2808.40899 2.17809
2806.36055 2.17455
2804.31211 2.17254
2802.26367 2.17255
2800.21524 2.17196
2798.16680 2.17127
2796.11836 2.17232
2794.06992 2.17423
2792.02148 2.17520
2789.97304 2.17514
2787.92461 2.17487
2785.87617 2.17262
2783.82773 2.17011
2781.77929 2.17089
2779.73085 2.17291
2777.68241 2.17508
2775.63397 2.17680
2773.58554 2.17729
2771.53710 2.17647
2769.48866 2.17357
2767.44022 2.17126
2765.39178 2.17056
2763.34334 2.16973
2761.29491 2.17004
2759.24647 2.17150
2757.19803 2.17169
2755.14959 2.17108
2753.10115 2.17197
2751.05271 2.17508
2749.00428 2.17835
2746.95584 2.17877
2744.90740 2.17618
2742.85896 2.17350
2740.81052 2.17351
2738.76208 2.17571
2736.71365 2.17785
2734.66521 2.17961
2732.61677 2.18093
2730.56833 2.18017
2728.51989 2.17875
2726.47145 2.17862
2724.42302 2.17733
2722.37458 2.17507
2720.32614 2.17570
2718.27770 2.17848
2716.22926 2.17997
2714.18082 2.17983
2712.13239 2.17913
2710.08395 2.17858
2708.03551 2.17885
2705.98707 2.18043
2703.93863 2.18172
2701.89019 2.17916
2699.84176 2.17547
2697.79332 2.17629
2695.74488 2.17882
2693.69644 2.17848
2691.64800 2.17555
2689.59956 2.17192
2687.55113 2.17058
2685.50269 2.17277
2683.45425 2.17520
2681.40581 2.17537
2679.35737 2.17604
2677.30893 2.17878
2675.26050 2.18045
2673.21206 2.17971
2671.16362 2.17789
2669.11518 2.17769
2667.06674 2.17945
2665.01830 2.17909
2662.96987 2.17663
2660.92143 2.17597
2658.87299 2.17757
2656.82455 2.17754
2654.77611 2.17479
2652.72767 2.17519
2650.67924 2.18027
2648.63080 2.18330
2646.58236 2.18239
2644.53392 2.18109
2642.48548 2.17885
2640.43704 2.17545
2638.38860 2.17342
2636.34017 2.17443
2634.29173 2.17713
2632.24329 2.17897
2630.19485 2.17988
2628.14641 2.18046
2626.09797 2.18186
2624.04954 2.18352
2622.00110 2.18364
2619.95266 2.18259
2617.90422 2.18171
2615.85578 2.18238
2613.80734 2.18310
2611.75891 2.18209
2609.71047 2.18144
2607.66203 2.18254
2605.61359 2.18414
2603.56515 2.18486
2601.51671 2.18350
2599.46828 2.18072
2597.41984 2.17911
2595.37140 2.18024
2593.32296 2.18173
2591.27452 2.18127
2589.22608 2.18113
2587.17765 2.18216
2585.12921 2.18334
2583.08077 2.18469
2581.03233 2.18451
2578.98389 2.18148
2576.93545 2.17944
2574.88702 2.18153
2572.83858 2.18439
2570.79014 2.18569
2568.74170 2.18584
2566.69326 2.18479
2564.64482 2.18436
2562.59639 2.18569
2560.54795 2.18756
2558.49951 2.18854
2556.45107 2.18789
2554.40263 2.18696
2552.35419 2.18712
2550.30576 2.18745
2548.25732 2.18821
2546.20888 2.18990
2544.16044 2.18947
2542.11200 2.18707
2540.06356 2.18721
2538.01513 2.18910
2535.96669 2.18958
2533.91825 2.18905
2531.86981 2.18907
2529.82137 2.18902
2527.77293 2.18829
2525.72450 2.19034
2523.67606 2.19526
2521.62762 2.19743
2519.57918 2.19487
2517.53074 2.19005
2515.48230 2.18665
2513.43387 2.18657
2511.38543 2.18795
2509.33699 2.18866
2507.28855 2.18912
2505.24011 2.19052
2503.19167 2.19216
2501.14324 2.19265
2499.09480 2.19250
2497.04636 2.19178
2494.99792 2.18903
2492.94948 2.18700
2490.90104 2.18783
2488.85260 2.18897
2486.80417 2.19053
2484.75573 2.19212
2482.70729 2.19259
2480.65885 2.19391
2478.61041 2.19643
2476.56197 2.19804
2474.51354 2.19661
2472.46510 2.19336
2470.41666 2.19254
2468.36822 2.19417
2466.31978 2.19515
2464.27134 2.19479
2462.22291 2.19353
2460.17447 2.19423
2458.12603 2.19795
2456.07759 2.19933
2454.02915 2.19675
2451.98071 2.19589
2449.93228 2.19709
2447.88384 2.19599
2445.83540 2.19513
2443.78696 2.19654
2441.73852 2.19697
2439.69008 2.19645
2437.64165 2.19624
2435.59321 2.19565
2433.54477 2.19566
2431.49633 2.19747
2429.44789 2.20057
2427.39945 2.20287
2425.35102 2.20225
2423.30258 2.19911
2421.25414 2.19460
2419.20570 2.19274
2417.15726 2.19596
2415.10882 2.19928
2413.06039 2.19882
2411.01195 2.19647
2408.96351 2.19425
2406.91507 2.19125
2404.86663 2.18842
2402.81819 2.18859
2400.76976 2.18946
2398.72132 2.18778
2396.67288 2.18591
2394.62444 2.18650
2392.57600 2.18897
2390.52756 2.19094
2388.47913 2.18943
2386.43069 2.18558
2384.38225 2.18404
2382.33381 2.18541
2380.28537 2.18635
2378.23693 2.18652
2376.18850 2.18887
2374.14006 2.19210
2372.09162 2.19281
2370.04318 2.19621
2367.99474 2.20328
2365.94630 2.20115
2363.89787 2.18589
2361.84943 2.16982
2359.80099 2.15928
2357.75255 2.15562
2355.70411 2.17109
2353.65567 2.19505
2351.60723 2.20463
2349.55880 2.20248
2347.51036 2.19968
2345.46192 2.20044
2343.41348 2.20321
2341.36504 2.20471
2339.31660 2.20131
2337.26817 2.19861
2335.21973 2.20220
2333.17129 2.20565
2331.12285 2.20288
2329.07441 2.19740
2327.02597 2.19540
2324.97754 2.19346
2322.92910 2.19221
2320.88066 2.19624
2318.83222 2.20171
2316.78378 2.20221
2314.73534 2.19883
2312.68691 2.19797
2310.63847 2.19931
2308.59003 2.19926
2306.54159 2.19963
2304.49315 2.20207
2302.44471 2.20454
2300.39628 2.20587
2298.34784 2.20492
2296.29940 2.20011
2294.25096 2.19527
2292.20252 2.19449
2290.15408 2.19627
2288.10565 2.19690
2286.05721 2.19580
2284.00877 2.19587
2281.96033 2.19648
2279.91189 2.19556
2277.86345 2.19382
2275.81502 2.19142
2273.76658 2.18922
2271.71814 2.18985
2269.66970 2.19266
2267.62126 2.19440
2265.57282 2.19565
2263.52439 2.19719
2261.47595 2.19774
2259.42751 2.19817
2257.37907 2.19851
2255.33063 2.19890
2253.28219 2.20036
2251.23376 2.20055
2249.18532 2.20017
2247.13688 2.20173
2245.08844 2.20213
2243.04000 2.20061
2240.99156 2.19934
2238.94313 2.19803
2236.89469 2.19750
2234.84625 2.19898
2232.79781 2.20045
2230.74937 2.20016
2228.70093 2.19895
2226.65250 2.19737
2224.60406 2.19576
2222.55562 2.19486
2220.50718 2.19567
2218.45874 2.19773
2216.41030 2.19990
2214.36186 2.20195
2212.31343 2.20180
2210.26499 2.20054
2208.21655 2.20150
2206.16811 2.20282
2204.11967 2.20364
2202.07123 2.20474
2200.02280 2.20541
2197.97436 2.20722
2195.92592 2.20822
2193.87748 2.20581
2191.82904 2.20379
2189.78060 2.20431
2187.73217 2.20475
2185.68373 2.20344
2183.63529 2.20124
2181.58685 2.19967
2179.53841 2.20137
2177.48997 2.20556
2175.44154 2.20792
2173.39310 2.20745
2171.34466 2.20573
2169.29622 2.20578
2167.24778 2.20843
2165.19934 2.21016
2163.15091 2.21080
2161.10247 2.21177
2159.05403 2.21020
2157.00559 2.20627
2154.95715 2.20477
2152.90871 2.20698
2150.86028 2.20905
2148.81184 2.20966
2146.76340 2.21143
2144.71496 2.21380
2142.66652 2.21533
2140.61808 2.21593
2138.56965 2.21478
2136.52121 2.21271
2134.47277 2.21276
2132.42433 2.21512
2130.37589 2.21566
2128.32745 2.21465
2126.27902 2.21496
2124.23058 2.21419
2122.18214 2.21248
2120.13370 2.21254
2118.08526 2.21330
2116.03682 2.21416
2113.98839 2.21546
2111.93995 2.21648
2109.89151 2.21745
2107.84307 2.21846
2105.79463 2.21877
2103.74619 2.21825
2101.69776 2.21750
2099.64932 2.21854
2097.60088 2.22048
2095.55244 2.21977
2093.50400 2.21893
2091.45556 2.22138
2089.40713 2.22342
2087.35869 2.22242
2085.31025 2.22114
2083.26181 2.22036
2081.21337 2.21962
2079.16493 2.22006
2077.11649 2.22247
2075.06806 2.22649
2073.01962 2.22839
2070.97118 2.22615
2068.92274 2.22439
2066.87430 2.22646
2064.82586 2.23025
2062.77743 2.23125
2060.72899 2.22810
2058.68055 2.22636
2056.63211 2.22852
2054.58367 2.23070
2052.53523 2.23171
2050.48680 2.23124
2048.43836 2.23019
2046.38992 2.23187
2044.34148 2.23403
2042.29304 2.23271
2040.24460 2.23010
2038.19617 2.23006
2036.14773 2.23345
2034.09929 2.23703
2032.05085 2.23862
2030.00241 2.24051
2027.95397 2.24073
2025.90554 2.23714
2023.85710 2.23465
2021.80866 2.23498
2019.76022 2.23541
2017.71178 2.23600
2015.66334 2.23806
2013.61491 2.23965
2011.56647 2.23736
2009.51803 2.23492
2007.46959 2.23738
2005.42115 2.24031
2003.37271 2.24007
2001.32428 2.23903
1999.27584 2.23910
1997.22740 2.23882
1995.17896 2.23608
1993.13052 2.23452
1991.08208 2.23716
1989.03365 2.23958
1986.98521 2.23922
1984.93677 2.23735
1982.88833 2.23615
1980.83989 2.23836
1978.79145 2.24108
1976.74302 2.23999
1974.69458 2.23780
1972.64614 2.23797
1970.59770 2.24010
1968.54926 2.24315
1966.50082 2.24575
1964.45239 2.24499
1962.40395 2.24225
1960.35551 2.24204
1958.30707 2.24340
1956.25863 2.24283
1954.21019 2.24100
1952.16176 2.24125
1950.11332 2.24415
1948.06488 2.24581
1946.01644 2.24602
1943.96800 2.24812
1941.91956 2.24925
1939.87112 2.24691
1937.82269 2.24565
1935.77425 2.24660
1933.72581 2.24748
1931.67737 2.24921
1929.62893 2.25189
1927.58049 2.25241
1925.53206 2.25224
1923.48362 2.25385
1921.43518 2.25534
1919.38674 2.25715
1917.33830 2.25951
1915.28986 2.25944
1913.24143 2.25749
1911.19299 2.25637
1909.14455 2.25683
1907.09611 2.25870
1905.04767 2.26164
1902.99923 2.26309
1900.95080 2.26295
1898.90236 2.26393
1896.85392 2.26557
1894.80548 2.26647
1892.75704 2.26679
1890.70860 2.26759
1888.66017 2.26949
1886.61173 2.26999
1884.56329 2.26987
1882.51485 2.27223
1880.46641 2.27467
1878.41797 2.27495
1876.36954 2.27475
1874.32110 2.27591
1872.27266 2.27860
1870.22422 2.28090
1868.17578 2.28328
1866.12734 2.28604
1864.07891 2.28585
1862.03047 2.28492
1859.98203 2.28756
1857.93359 2.29067
1855.88515 2.28884
1853.83671 2.28504
1851.78828 2.28405
1849.73984 2.28535
1847.69140 2.28719
1845.64296 2.28876
1843.59452 2.29119
1841.54608 2.29146
1839.49765 2.28843
1837.44921 2.28717
1835.40077 2.28955
1833.35233 2.29356
1831.30389 2.29822
1829.25545 2.30204
1827.20702 2.30109
1825.15858 2.29667
1823.11014 2.29481
1821.06170 2.29733
1819.01326 2.30143
1816.96482 2.30474
1814.91639 2.30652
1812.86795 2.30718
1810.81951 2.30921
1808.77107 2.31304
1806.72263 2.31437
1804.67419 2.31242
1802.62575 2.31205
1800.57732 2.31552
1798.52888 2.31679
1796.48044 2.31414
1794.43200 2.31177
1792.38356 2.31353
1790.33512 2.31904
1788.28669 2.32194
1786.23825 2.32138
1784.18981 2.31939
1782.14137 2.31782
1780.09293 2.31989
1778.04449 2.32614
1775.99606 2.33185
1773.94762 2.33438
1771.89918 2.33709
1769.85074 2.34093
1767.80230 2.34079
1765.75386 2.34024
1763.70543 2.34181
1761.65699 2.34290
1759.60855 2.34434
1757.56011 2.34902
1755.51167 2.35404
1753.46323 2.35486
1751.41480 2.35705
1749.36636 2.36571
1747.31792 2.36976
1745.26948 2.36734
1743.22104 2.36561
1741.17260 2.36466
1739.12417 2.36266
1737.07573 2.36061
1735.02729 2.35894
1732.97885 2.35638
1730.93041 2.35257
1728.88197 2.34891
1726.83354 2.34400
1724.78510 2.33851
1722.73666 2.33719
1720.68822 2.33898
1718.63978 2.34384
1716.59134 2.35684
1714.54291 2.36212
1712.49447 2.35715
1710.44603 2.35402
1708.39759 2.35652
1706.34915 2.36285
1704.30071 2.36808
1702.25228 2.36738
1700.20384 2.36139
1698.15540 2.35981
1696.10696 2.36935
1694.05852 2.37889
1692.01008 2.38142
1689.96165 2.38453
1687.91321 2.38760
1685.86477 2.38547
1683.81633 2.38572
1681.76789 2.39600
1679.71945 2.40417
1677.67102 2.40375
1675.62258 2.39993
1673.57414 2.40178
1671.52570 2.40669
1669.47726 2.41121
1667.42882 2.41285
1665.38038 2.41243
1663.33195 2.41345
1661.28351 2.41842
1659.23507 2.42541
1657.18663 2.42848
1655.13819 2.42060
1653.08975 2.41473
1651.04132 2.43184
1648.99288 2.43992
1646.94444 2.43929
1644.89600 2.44221
1642.84756 2.44690
1640.79912 2.44976
1638.75069 2.44888
1636.70225 2.44423
1634.65381 2.44866
1632.60537 2.45831
1630.55693 2.46348
1628.50849 2.46938
1626.46006 2.47703
1624.41162 2.47961
1622.36318 2.48079
1620.31474 2.48654
1618.26630 2.49295
1616.21786 2.49579
1614.16943 2.49575
1612.12099 2.49934
1610.07255 2.50614
1608.02411 2.50733
1605.97567 2.50545
1603.92723 2.51130
1601.87880 2.52006
1599.83036 2.52541
1597.78192 2.53152
1595.73348 2.53800
1593.68504 2.53937
1591.63660 2.54195
1589.58817 2.55071
1587.53973 2.55975
1585.49129 2.56781
1583.44285 2.57606
1581.39441 2.58256
1579.34597 2.58375
1577.29754 2.58255
1575.24910 2.59055
1573.20066 2.60261
1571.15222 2.61120
1569.10378 2.62091
1567.05534 2.62896
1565.00691 2.63540
1562.95847 2.64418
1560.91003 2.65287
1558.86159 2.66687
1556.81315 2.67908
1554.76471 2.68044
1552.71628 2.67619
1550.66784 2.67631
1548.61940 2.68755
1546.57096 2.70194
1544.52252 2.71561
1542.47408 2.73168
1540.42565 2.75243
1538.37721 2.76559
1536.32877 2.76513
1534.28033 2.76764
1532.23189 2.78285
1530.18345 2.79179
1528.13501 2.79431
1526.08658 2.80628
1524.03814 2.84153
1521.98970 2.87236
1519.94126 2.84280
1517.89282 2.78757
1515.84438 2.73828
1513.79595 2.70313
1511.74751 2.67387
1509.69907 2.64776
1507.65063 2.59080
1505.60219 2.47342
1503.55375 2.39607
1501.50532 2.33684
1499.45688 2.27088
1497.40844 2.19440
1495.36000 2.12612
1493.31156 2.08027
1491.26312 2.03682
1489.21469 1.98195
1487.16625 1.93709
1485.11781 1.90818
1483.06937 1.88531
1481.02093 1.86472
1478.97249 1.84679
1476.92406 1.82983
1474.87562 1.81305
1472.82718 1.79753
1470.77874 1.78426
1468.73030 1.77347
1466.68186 1.76233
1464.63343 1.75045
1462.58499 1.74048
1460.53655 1.73225
1458.48811 1.72274
1456.43967 1.71149
1454.39123 1.70358
1452.34280 1.69739
1450.29436 1.69186
1448.24592 1.68656
1446.19748 1.68154
1444.14904 1.67861
1442.10060 1.67773
1440.05217 1.67699
1438.00373 1.67708
1435.95529 1.68057
1433.90685 1.68560
1431.85841 1.69114
1429.80997 1.69825
1427.76154 1.70430
1425.71310 1.70766
1423.66466 1.70913
1421.61622 1.70849
1419.56778 1.70504
1417.51934 1.69813
1415.47091 1.68925
1413.42247 1.67841
1411.37403 1.66571
1409.32559 1.65237
1407.27715 1.63927
1405.22871 1.62583
1403.18028 1.61349
1401.13184 1.60355
1399.08340 1.59493
1397.03496 1.58775
1394.98652 1.58233
1392.93808 1.57914
1390.88965 1.57728
1388.84121 1.57682
1386.79277 1.57990
1384.74433 1.58627
1382.69589 1.59433
1380.64745 1.60538
1378.59901 1.61953
1376.55058 1.63536
1374.50214 1.65491
1372.45370 1.67640
1370.40526 1.69391
1368.35682 1.70932
1366.30838 1.72339
1364.25995 1.73636
1362.21151 1.75134
1360.16307 1.76617
1358.11463 1.77854
1356.06619 1.78980
1354.01775 1.80062
1351.96932 1.81070
1349.92088 1.81992
1347.87244 1.82824
1345.82400 1.83622
1343.77556 1.84415
1341.72712 1.85196
1339.67869 1.85989
1337.63025 1.86675
1335.58181 1.87225
1333.53337 1.87826
1331.48493 1.88456
1329.43649 1.89026
1327.38806 1.89579
1325.33962 1.90077
1323.29118 1.90507
1321.24274 1.90973
1319.19430 1.91502
1317.14586 1.91945
1315.09743 1.92307
1313.04899 1.92718
1311.00055 1.93023
1308.95211 1.93180
1306.90367 1.93420
1304.85523 1.93681
1302.80680 1.93851
1300.75836 1.94127
1298.70992 1.94474
1296.66148 1.94731
1294.61304 1.95029
1292.56460 1.95339
1290.51617 1.95558
1288.46773 1.95860
1286.41929 1.96235
1284.37085 1.96585
1282.32241 1.96999
1280.27397 1.97429
1278.22554 1.97764
1276.17710 1.98097
1274.12866 1.98491
1272.08022 1.98805
1270.03178 1.98958
1267.98334 1.99118
1265.93491 1.99501
1263.88647 1.99941
1261.83803 2.00179
1259.78959 2.00420
1257.74115 2.00851
1255.69271 2.01263
1253.64428 2.01561
1251.59584 2.01801
1249.54740 2.01986
1247.49896 2.02268
1245.45052 2.02700
1243.40208 2.03041
1241.35364 2.03217
1239.30521 2.03368
1237.25677 2.03592
1235.20833 2.04019
1233.15989 2.04499
1231.11145 2.04793
1229.06301 2.04986
1227.01458 2.05138
1224.96614 2.05317
1222.91770 2.05614
1220.86926 2.05913
1218.82082 2.06189
1216.77238 2.06507
1214.72395 2.06652
1212.67551 2.06617
1210.62707 2.06722
1208.57863 2.06973
1206.53019 2.07212
1204.48175 2.07384
1202.43332 2.07529
1200.38488 2.07863
1198.33644 2.08285
1196.28800 2.08436
1194.23956 2.08534
1192.19112 2.08767
1190.14269 2.08981
1188.09425 2.09212
1186.04581 2.09397
1183.99737 2.09461
1181.94893 2.09593
1179.90049 2.09877
1177.85206 2.10166
1175.80362 2.10409
1173.75518 2.10772
1171.70674 2.11245
1169.65830 2.11588
1167.60986 2.11858
1165.56143 2.12102
1163.51299 2.12049
1161.46455 2.11905
1159.41611 2.12075
1157.36767 2.12396
1155.31923 2.12570
1153.27080 2.12584
1151.22236 2.12603
1149.17392 2.12787
1147.12548 2.13007
1145.07704 2.13075
1143.02860 2.13211
1140.98017 2.13506
1138.93173 2.13724
1136.88329 2.13953
1134.83485 2.14308
1132.78641 2.14592
1130.73797 2.14741
1128.68954 2.14888
1126.64110 2.15073
1124.59266 2.15343
1122.54422 2.15646
1120.49578 2.15873
1118.44734 2.16130
1116.39891 2.16300
1114.35047 2.16311
1112.30203 2.16349
1110.25359 2.16464
1108.20515 2.16687
1106.15671 2.16810
1104.10827 2.16528
1102.05984 2.16255
1100.01140 2.16530
1097.96296 2.16989
1095.91452 2.17036
1093.86608 2.16823
1091.81764 2.16844
1089.76921 2.17147
1087.72077 2.17507
1085.67233 2.17810
1083.62389 2.18220
1081.57545 2.18807
1079.52701 2.19314
1077.47858 2.19679
1075.43014 2.19924
1073.38170 2.20017
1071.33326 2.20185
1069.28482 2.20626
1067.23638 2.20973
1065.18795 2.21152
1063.13951 2.21698
1061.09107 2.22802
1059.04263 2.24412
1056.99419 2.25914
1054.94575 2.22770
1052.89732 2.14206
1050.84888 2.09224
1048.80044 2.11124
1046.75200 2.14934
1044.70356 2.16908
1042.65512 2.17788
1040.60669 2.18577
1038.55825 2.19011
1036.50981 2.19104
1034.46137 2.19588
1032.41293 2.20350
1030.36449 2.20993
1028.31606 2.21422
1026.26762 2.21573
1024.21918 2.21597
1022.17074 2.21786
1020.12230 2.21949
1018.07386 2.22122
1016.02543 2.22582
1013.97699 2.23007
1011.92855 2.23197
1009.88011 2.23384
1007.83167 2.23875
1005.78323 2.24485
1003.73480 2.24643
1001.68636 2.24514
999.63792 2.24723
997.58948 2.25171
995.54104 2.25268
993.49260 2.25129
991.44417 2.25243
989.39573 2.25465
987.34729 2.25660
985.29885 2.25816
983.25041 2.25856
981.20197 2.25958
979.15354 2.26260
977.10510 2.26921
975.05666 2.27660
973.00822 2.27967
970.95978 2.28109
968.91134 2.28273
966.86290 2.28411
964.81447 2.28713
962.76603 2.28963
960.71759 2.29043
958.66915 2.29210
956.62071 2.29554
954.57227 2.30041
952.52384 2.30522
950.47540 2.30746
948.42696 2.30732
946.37852 2.30884
944.33008 2.31231
942.28164 2.31636
940.23321 2.32035
938.18477 2.32338
936.13633 2.32842
934.08789 2.33459
932.03945 2.33733
929.99101 2.33643
927.94258 2.33415
925.89414 2.33646
923.84570 2.34625
921.79726 2.35421
919.74882 2.35751
917.70038 2.36200
915.65195 2.36245
913.60351 2.35591
911.55507 2.35022
909.50663 2.34860
907.45819 2.34917
905.40975 2.35433
903.36132 2.36540
901.31288 2.37326
899.26444 2.37159
897.21600 2.36821
895.16756 2.36906
893.11912 2.37413
891.07069 2.38543
889.02225 2.39903
886.97381 2.40530
884.92537 2.40529
882.87693 2.40851
880.82849 2.41636
878.78006 2.42032
876.73162 2.41609
874.68318 2.41206
872.63474 2.41529
870.58630 2.42509
868.53786 2.43832
866.48943 2.44927
864.44099 2.45719
862.39255 2.46904
860.34411 2.48695
858.29567 2.50160
856.24723 2.51338
854.19880 2.53053
852.15036 2.54269
850.10192 2.53597
848.05348 2.47787
846.00504 2.33344
843.95660 2.16129
841.90817 2.03873
839.85973 1.99279
837.81129 2.01923
835.76285 2.09197
833.71441 2.17257
831.66597 2.23659
829.61753 2.27676
827.56910 2.29936
825.52066 2.31792
823.47222 2.33469
821.42378 2.34572
819.37534 2.34929
817.32690 2.35273
815.27847 2.36214
813.23003 2.37206
811.18159 2.38096
809.13315 2.38959
807.08471 2.39140
805.03627 2.38626
802.98784 2.38048
800.93940 2.37999
798.89096 2.38974
796.84252 2.40774
794.79408 2.43092
792.74564 2.45021
790.69721 2.45758
788.64877 2.46178
786.60033 2.46654
784.55189 2.46617
782.50345 2.45816
780.45501 2.45520
778.40658 2.46272
776.35814 2.46067
774.30970 2.45247
772.26126 2.45459
770.21282 2.46127
768.16438 2.47640
766.11595 2.50216
764.06751 2.51774
762.01907 2.51498
759.97063 2.49367
757.92219 2.46103
755.87375 2.45026
753.82532 2.46911
751.77688 2.48594
749.72844 2.48928
747.68000 2.49921
745.63156 2.51857
743.58312 2.51399
741.53469 2.48025
739.48625 2.46364
737.43781 2.47997
735.38937 2.51109
733.34093 2.54011
731.29249 2.54910
729.24406 2.52894
727.19562 2.50769
725.14718 2.51961
723.09874 2.55305
721.05030 2.57812
719.00186 2.59316
716.95343 2.59225
714.90499 2.57092
712.85655 2.56142
710.80811 2.56714
708.75967 2.56837
706.71123 2.58134
704.66280 2.58802
702.61436 2.57168
700.56592 2.58970
698.51748 2.64960
696.46904 2.67074
694.42060 2.65671
692.37216 2.68487
690.32373 2.75926
688.27529 2.82793
686.22685 2.81242
684.17841 2.70213
682.12997 2.48130
680.08153 2.23079
678.03310 2.09363
675.98466 2.10388
673.93622 2.21186
671.88778 2.31934
669.83934 2.38777
667.79090 2.47130
665.74247 2.53097
663.69403 2.52785
661.64559 2.49890
659.59715 2.48071
657.54871 2.47560
655.50027 2.44946
653.45184 2.42289
651.40340 2.44760
649.35496 2.51503
647.30652 2.57893
645.25808 2.59941
643.20964 2.57375
641.16121 2.58858
639.11277 2.64202
637.06433 2.56722
635.01589 2.42386
632.96745 2.34824
630.91901 2.35875
628.87058 2.41106
626.82214 2.38115
624.77370 2.32621
622.72526 2.39075
620.67682 2.44486
618.62838 2.36041
616.57995 2.33797
614.53151 2.33957
612.48307 2.28487
610.43463 2.31699
608.38619 2.46412
606.33775 2.55978
604.28932 2.59680
602.24088 2.79697
600.19244 2.94005
598.14400 2.61912
