3996.50324 1.59059
3994.45480 1.58916
3992.40636 1.58782
3990.35792 1.58712
3988.30948 1.58701
3986.26104 1.58666
3984.21261 1.58601
3982.16417 1.58598
3980.11573 1.58610
3978.06729 1.58567
3976.01885 1.58468
3973.97041 1.58384
3971.92198 1.58406
3969.87354 1.58469
3967.82510 1.58487
3965.77666 1.58424
3963.72822 1.58340
3961.67978 1.58415
3959.63135 1.58564
3957.58291 1.58541
3955.53447 1.58446
3953.48603 1.58437
3951.43759 1.58417
3949.38915 1.58360
3947.34072 1.58397
3945.29228 1.58453
3943.24384 1.58517
3941.19540 1.58639
3939.14696 1.58670
3937.09852 1.58640
3935.05009 1.58561
3933.00165 1.58479
3930.95321 1.58602
3928.90477 1.58746
3926.85633 1.58703
3924.80789 1.58648
3922.75946 1.58681
3920.71102 1.58645
3918.66258 1.58558
3916.61414 1.58634
3914.56570 1.58849
3912.51726 1.59050
3910.46883 1.59148
3908.42039 1.58953
3906.37195 1.58531
3904.32351 1.58384
3902.27507 1.58682
3900.22663 1.59087
3898.17820 1.59490
3896.12976 1.59703
3894.08132 1.59683
3892.03288 1.59526
3889.98444 1.59330
3887.93600 1.59137
3885.88756 1.59082
3883.83913 1.59188
3881.79069 1.59240
3879.74225 1.59377
3877.69381 1.59474
3875.64537 1.59505
3873.59693 1.59648
3871.54850 1.59680
3869.50006 1.59637
3867.45162 1.59620
3865.40318 1.59593
3863.35474 1.59798
3861.30630 1.59942
3859.25787 1.59767
3857.20943 1.59550
3855.16099 1.59558
3853.11255 1.59885
3851.06411 1.60011
3849.01567 1.59996
3846.96724 1.60012
3844.91880 1.59964
3842.87036 1.59859
3840.82192 1.59814
3838.77348 1.59863
3836.72504 1.59883
3834.67661 1.59826
3832.62817 1.59898
3830.57973 1.60130
3828.53129 1.60224
3826.48285 1.60179
3824.43441 1.60146
3822.38598 1.60080
3820.33754 1.60150
3818.28910 1.60276
3816.24066 1.60275
3814.19222 1.60328
3812.14378 1.60371
3810.09535 1.60285
3808.04691 1.60160
3805.99847 1.60310
3803.95003 1.60575
3801.90159 1.60545
3799.85315 1.60350
3797.80472 1.60318
3795.75628 1.60436
3793.70784 1.60642
3791.65940 1.60804
3789.61096 1.60780
3787.56252 1.60621
3785.51409 1.60550
3783.46565 1.60592
3781.41721 1.60619
3779.36877 1.60687
3777.32033 1.60812
3775.27189 1.60867
3773.22346 1.60796
3771.17502 1.60718
3769.12658 1.60825
3767.07814 1.60920
3765.02970 1.60899
3762.98126 1.60876
3760.93283 1.60769
3758.88439 1.60671
3756.83595 1.60752
3754.78751 1.60785
3752.73907 1.60603
3750.69063 1.60286
3748.64219 1.59937
3746.59376 1.59642
3744.54532 1.59806
3742.49688 1.60159
3740.44844 1.60070
3738.40000 1.59770
3736.35156 1.59591
3734.30313 1.59646
3732.25469 1.59715
3730.20625 1.59732
3728.15781 1.59651
3726.10937 1.59589
3724.06093 1.59715
3722.01250 1.59917
3719.96406 1.60007
3717.91562 1.59931
3715.86718 1.59741
3713.81874 1.59458
3711.77030 1.59372
3709.72187 1.59751
3707.67343 1.60058
3705.62499 1.60177
3703.57655 1.60221
3701.52811 1.60266
3699.47967 1.60405
3697.43124 1.60583
3695.38280 1.60628
3693.33436 1.60461
3691.28592 1.60293
3689.23748 1.60538
3687.18904 1.60866
3685.14061 1.60791
3683.09217 1.60591
3681.04373 1.60531
3678.99529 1.60537
3676.94685 1.60476
3674.89841 1.60571
3672.84998 1.60627
3670.80154 1.60527
3668.75310 1.60554
3666.70466 1.60626
3664.65622 1.60675
3662.60778 1.60688
3660.55935 1.60599
3658.51091 1.60469
3656.46247 1.60420
3654.41403 1.60420
3652.36559 1.60266
3650.31715 1.60059
3648.26872 1.60324
3646.22028 1.60583
3644.17184 1.60394
3642.12340 1.60145
3640.07496 1.60105
3638.02652 1.60098
3635.97809 1.60030
3633.92965 1.60051
3631.88121 1.60003
3629.83277 1.59747
3627.78433 1.59843
3625.73589 1.60246
3623.68746 1.60443
3621.63902 1.60470
3619.59058 1.60536
3617.54214 1.60722
3615.49370 1.60743
3613.44526 1.60539
3611.39682 1.60300
3609.34839 1.60135
3607.29995 1.60102
3605.25151 1.60099
3603.20307 1.59995
3601.15463 1.60004
3599.10619 1.60225
3597.05776 1.60344
3595.00932 1.60286
3592.96088 1.60202
3590.91244 1.60050
3588.86400 1.59891
3586.81556 1.60081
3584.76713 1.60376
3582.71869 1.60432
3580.67025 1.60437
3578.62181 1.60449
3576.57337 1.60478
3574.52493 1.60574
3572.47650 1.60582
3570.42806 1.60372
3568.37962 1.60164
3566.33118 1.60335
3564.28274 1.60595
3562.23430 1.60656
3560.18587 1.60714
3558.13743 1.60879
3556.08899 1.61006
3554.04055 1.60950
3551.99211 1.60830
3549.94367 1.60795
3547.89524 1.60836
3545.84680 1.60990
3543.79836 1.61217
3541.74992 1.61305
3539.70148 1.61254
3537.65304 1.61242
3535.60461 1.61255
3533.55617 1.61198
3531.50773 1.61140
3529.45929 1.61119
3527.41085 1.61149
3525.36241 1.61243
3523.31398 1.61274
3521.26554 1.61201
3519.21710 1.61189
3517.16866 1.61310
3515.12022 1.61344
3513.07178 1.61175
3511.02335 1.61060
3508.97491 1.61147
3506.92647 1.61180
3504.87803 1.61057
3502.82959 1.61033
3500.78115 1.61154
3498.73272 1.61226
3496.68428 1.61297
3494.63584 1.61468
3492.58740 1.61549
3490.53896 1.61419
3488.49052 1.61292
3486.44209 1.61269
3484.39365 1.61230
3482.34521 1.61215
3480.29677 1.61342
3478.24833 1.61549
3476.19989 1.61651
3474.15146 1.61554
3472.10302 1.61440
3470.05458 1.61445
3468.00614 1.61468
3465.95770 1.61476
3463.90926 1.61572
3461.86082 1.61774
3459.81239 1.61869
3457.76395 1.61798
3455.71551 1.61778
3453.66707 1.61860
3451.61863 1.61983
3449.57019 1.62057
3447.52176 1.61914
3445.47332 1.61713
3443.42488 1.61750
3441.37644 1.61870
3439.32800 1.61871
3437.27956 1.61795
3435.23113 1.61749
3433.18269 1.61770
3431.13425 1.61766
3429.08581 1.61713
3427.03737 1.61672
3424.98893 1.61639
3422.94050 1.61612
3420.89206 1.61656
3418.84362 1.61755
3416.79518 1.61704
3414.74674 1.61510
3412.69830 1.61431
3410.64987 1.61529
3408.60143 1.61628
3406.55299 1.61622
3404.50455 1.61586
3402.45611 1.61532
3400.40767 1.61423
3398.35924 1.61380
3396.31080 1.61401
3394.26236 1.61359
3392.21392 1.61356
3390.16548 1.61429
3388.11704 1.61420
3386.06861 1.61407
3384.02017 1.61520
3381.97173 1.61577
3379.92329 1.61462
3377.87485 1.61316
3375.82641 1.61252
3373.77798 1.61292
3371.72954 1.61342
3369.68110 1.61298
3367.63266 1.61169
3365.58422 1.61079
3363.53578 1.61125
3361.48735 1.61212
3359.43891 1.61201
3357.39047 1.61090
3355.34203 1.61067
3353.29359 1.61179
3351.24515 1.61183
3349.19672 1.61056
3347.14828 1.60991
3345.09984 1.61024
3343.05140 1.61079
3341.00296 1.61139
3338.95452 1.61200
3336.90609 1.61227
3334.85765 1.61212
3332.80921 1.61135
3330.76077 1.61038
3328.71233 1.61055
3326.66389 1.61134
3324.61545 1.61080
3322.56702 1.60952
3320.51858 1.60929
3318.47014 1.60980
3316.42170 1.60991
3314.37326 1.61033
3312.32482 1.61133
3310.27639 1.61126
3308.22795 1.61022
3306.17951 1.60973
3304.13107 1.60953
3302.08263 1.60893
3300.03419 1.60860
3297.98576 1.60981
3295.93732 1.61189
3293.88888 1.61252
3291.84044 1.61133
3289.79200 1.61066
3287.74356 1.61184
3285.69513 1.61342
3283.64669 1.61404
3281.59825 1.61376
3279.54981 1.61282
3277.50137 1.61126
3275.45293 1.61020
3273.40450 1.61113
3271.35606 1.61254
3269.30762 1.61251
3267.25918 1.61181
3265.21074 1.61115
3263.16230 1.61070
3261.11387 1.61094
3259.06543 1.61225
3257.01699 1.61383
3254.96855 1.61424
3252.92011 1.61400
3250.87167 1.61356
3248.82324 1.61230
3246.77480 1.61126
3244.72636 1.61165
3242.67792 1.61266
3240.62948 1.61326
3238.58104 1.61363
3236.53261 1.61425
3234.48417 1.61448
3232.43573 1.61409
3230.38729 1.61426
3228.33885 1.61474
3226.29041 1.61477
3224.24198 1.61470
3222.19354 1.61411
3220.14510 1.61382
3218.09666 1.61496
3216.04822 1.61582
3213.99978 1.61596
3211.95135 1.61668
3209.90291 1.61732
3207.85447 1.61691
3205.80603 1.61615
3203.75759 1.61567
3201.70915 1.61545
3199.66072 1.61632
3197.61228 1.61783
3195.56384 1.61823
3193.51540 1.61780
3191.46696 1.61747
3189.41852 1.61684
3187.37008 1.61586
3185.32165 1.61573
3183.27321 1.61639
3181.22477 1.61654
3179.17633 1.61645
3177.12789 1.61660
3175.07945 1.61682
3173.03102 1.61745
3170.98258 1.61820
3168.93414 1.61852
3166.88570 1.61848
3164.83726 1.61804
3162.78882 1.61781
3160.74039 1.61838
3158.69195 1.61887
3156.64351 1.61860
3154.59507 1.61810
3152.54663 1.61753
3150.49819 1.61688
3148.44976 1.61686
3146.40132 1.61733
3144.35288 1.61749
3142.30444 1.61787
3140.25600 1.61872
3138.20756 1.61906
3136.15913 1.61885
3134.11069 1.61857
3132.06225 1.61869
3130.01381 1.61903
3127.96537 1.61902
3125.91693 1.61920
3123.86850 1.61962
3121.82006 1.61993
3119.77162 1.62057
3117.72318 1.62119
3115.67474 1.62164
3113.62630 1.62211
3111.57787 1.62216
3109.52943 1.62195
3107.48099 1.62176
3105.43255 1.62204
3103.38411 1.62292
3101.33567 1.62362
3099.28724 1.62390
3097.23880 1.62399
3095.19036 1.62433
3093.14192 1.62489
3091.09348 1.62517
3089.04504 1.62494
3086.99661 1.62476
3084.94817 1.62571
3082.89973 1.62690
3080.85129 1.62703
3078.80285 1.62634
3076.75441 1.62552
3074.70598 1.62544
3072.65754 1.62564
3070.60910 1.62526
3068.56066 1.62518
3066.51222 1.62555
3064.46378 1.62528
3062.41535 1.62454
3060.36691 1.62454
3058.31847 1.62525
3056.27003 1.62529
3054.22159 1.62464
3052.17315 1.62400
3050.12471 1.62359
3048.07628 1.62340
3046.02784 1.62299
3043.97940 1.62247
3041.93096 1.62209
3039.88252 1.62220
3037.83408 1.62329
3035.78565 1.62424
3033.73721 1.62443
3031.68877 1.62478
3029.64033 1.62502
3027.59189 1.62481
3025.54345 1.62451
3023.49502 1.62427
3021.44658 1.62472
3019.39814 1.62581
3017.34970 1.62649
3015.30126 1.62640
3013.25282 1.62591
3011.20439 1.62573
3009.15595 1.62574
3007.10751 1.62547
3005.05907 1.62536
3003.01063 1.62581
3000.96219 1.62650
2998.91376 1.62699
2996.86532 1.62796
2994.81688 1.62968
2992.76844 1.63059
2990.72000 1.63002
2988.67156 1.62892
2986.62313 1.62800
2984.57469 1.62780
2982.52625 1.62840
2980.47781 1.62870
2978.42937 1.62864
2976.38093 1.62874
2974.33250 1.62829
2972.28406 1.62783
2970.23562 1.62860
2968.18718 1.62974
2966.13874 1.62994
2964.09030 1.62978
2962.04187 1.62996
2959.99343 1.63034
2957.94499 1.63029
2955.89655 1.62995
2953.84811 1.63004
2951.79967 1.63010
2949.75124 1.63027
2947.70280 1.63110
2945.65436 1.63156
2943.60592 1.63099
2941.55748 1.63041
2939.50904 1.63075
2937.46061 1.63123
2935.41217 1.63121
2933.36373 1.63155
2931.31529 1.63210
2929.26685 1.63183
2927.21841 1.63113
2925.16998 1.63072
2923.12154 1.63075
2921.07310 1.63053
2919.02466 1.62954
2916.97622 1.62890
2914.92778 1.62925
2912.87934 1.63006
2910.83091 1.63124
2908.78247 1.63252
2906.73403 1.63318
2904.68559 1.63334
2902.63715 1.63372
2900.58871 1.63421
2898.54028 1.63434
2896.49184 1.63435
2894.44340 1.63447
2892.39496 1.63446
2890.34652 1.63435
2888.29808 1.63477
2886.24965 1.63550
2884.20121 1.63569
2882.15277 1.63542
2880.10433 1.63500
2878.05589 1.63440
2876.00745 1.63375
2873.95902 1.63362
2871.91058 1.63446
2869.86214 1.63540
2867.81370 1.63547
2865.76526 1.63512
2863.71682 1.63508
2861.66839 1.63517
2859.61995 1.63521
2857.57151 1.63529
2855.52307 1.63500
2853.47463 1.63428
2851.42619 1.63369
2849.37776 1.63364
2847.32932 1.63403
2845.28088 1.63447
2843.23244 1.63502
2841.18400 1.63608
2839.13556 1.63731
2837.08713 1.63765
2835.03869 1.63693
2832.99025 1.63604
2830.94181 1.63571
2828.89337 1.63625
2826.84493 1.63764
2824.79650 1.63879
2822.74806 1.63884
2820.69962 1.63846
2818.65118 1.63837
2816.60274 1.63869
2814.55430 1.63843
2812.50587 1.63733
2810.45743 1.63702
2808.40899 1.63797
2806.36055 1.63910
2804.31211 1.63949
2802.26367 1.63922
2800.21524 1.63913
2798.16680 1.63916
2796.11836 1.63924
2794.06992 1.63998
2792.02148 1.64057
2789.97304 1.64017
2787.92461 1.63967
2785.87617 1.63965
2783.82773 1.63965
2781.77929 1.63958
2779.73085 1.63951
2777.68241 1.63932
2775.63397 1.63940
2773.58554 1.63993
2771.53710 1.64042
2769.48866 1.64042
2767.44022 1.64018
2765.39178 1.63978
2763.34334 1.63941
2761.29491 1.64013
2759.24647 1.64128
2757.19803 1.64177
2755.14959 1.64210
2753.10115 1.64226
2751.05271 1.64206
2749.00428 1.64197
2746.95584 1.64212
2744.90740 1.64229
2742.85896 1.64242
2740.81052 1.64225
2738.76208 1.64129
2736.71365 1.64006
2734.66521 1.63958
2732.61677 1.64018
2730.56833 1.64132
2728.51989 1.64179
2726.47145 1.64123
2724.42302 1.64032
2722.37458 1.63987
2720.32614 1.64043
2718.27770 1.64137
2716.22926 1.64157
2714.18082 1.64119
2712.13239 1.64136
2710.08395 1.64180
2708.03551 1.64150
2705.98707 1.64088
2703.93863 1.64052
2701.89019 1.64023
2699.84176 1.64022
2697.79332 1.64089
2695.74488 1.64166
2693.69644 1.64150
2691.64800 1.64069
2689.59956 1.64045
2687.55113 1.64099
2685.50269 1.64188
2683.45425 1.64258
2681.40581 1.64258
2679.35737 1.64236
2677.30893 1.64226
2675.26050 1.64222
2673.21206 1.64237
2671.16362 1.64289
2669.11518 1.64358
2667.06674 1.64332
2665.01830 1.64208
2662.96987 1.64173
2660.92143 1.64246
2658.87299 1.64252
2656.82455 1.64185
2654.77611 1.64189
2652.72767 1.64278
2650.67924 1.64327
2648.63080 1.64273
2646.58236 1.64211
2644.53392 1.64188
2642.48548 1.64137
2640.43704 1.64057
2638.38860 1.64051
2636.34017 1.64121
2634.29173 1.64132
2632.24329 1.64069
2630.19485 1.64037
2628.14641 1.64065
2626.09797 1.64102
2624.04954 1.64088
2622.00110 1.64014
2619.95266 1.63964
2617.90422 1.63984
2615.85578 1.64006
2613.80734 1.64026
2611.75891 1.64049
2609.71047 1.64012
2607.66203 1.63944
2605.61359 1.63927
2603.56515 1.63993
2601.51671 1.64118
2599.46828 1.64123
2597.41984 1.63953
2595.37140 1.63841
2593.32296 1.63893
2591.27452 1.63991
2589.22608 1.64023
2587.17765 1.63994
2585.12921 1.64008
2583.08077 1.64034
2581.03233 1.63984
2578.98389 1.63971
2576.93545 1.64022
2574.88702 1.64046
2572.83858 1.64070
2570.79014 1.64101
2568.74170 1.64134
2566.69326 1.64191
2564.64482 1.64196
2562.59639 1.64131
2560.54795 1.64108
2558.49951 1.64124
2556.45107 1.64133
2554.40263 1.64155
2552.35419 1.64182
2550.30576 1.64197
2548.25732 1.64198
2546.20888 1.64201
2544.16044 1.64221
2542.11200 1.64245
2540.06356 1.64289
2538.01513 1.64337
2535.96669 1.64308
2533.91825 1.64223
2531.86981 1.64239
2529.82137 1.64385
2527.77293 1.64523
2525.72450 1.64555
2523.67606 1.64507
2521.62762 1.64469
2519.57918 1.64482
2517.53074 1.64556
2515.48230 1.64647
2513.43387 1.64636
2511.38543 1.64571
2509.33699 1.64560
2507.28855 1.64567
2505.24011 1.64599
2503.19167 1.64672
2501.14324 1.64723
2499.09480 1.64738
2497.04636 1.64738
2494.99792 1.64744
2492.94948 1.64735
2490.90104 1.64705
2488.85260 1.64744
2486.80417 1.64795
2484.75573 1.64760
2482.70729 1.64747
2480.65885 1.64825
2478.61041 1.64860
2476.56197 1.64816
2474.51354 1.64840
2472.46510 1.64931
2470.41666 1.64980
2468.36822 1.64978
2466.31978 1.64931
2464.27134 1.64888
2462.22291 1.64924
2460.17447 1.65002
2458.12603 1.65047
2456.07759 1.65064
2454.02915 1.65121
2451.98071 1.65229
2449.93228 1.65294
2447.88384 1.65322
2445.83540 1.65348
2443.78696 1.65324
2441.73852 1.65292
2439.69008 1.65347
2437.64165 1.65479
2435.59321 1.65577
2433.54477 1.65610
2431.49633 1.65640
2429.44789 1.65630
2427.39945 1.65572
2425.35102 1.65562
2423.30258 1.65584
2421.25414 1.65581
2419.20570 1.65557
2417.15726 1.65482
2415.10882 1.65322
2413.06039 1.65155
2411.01195 1.65089
2408.96351 1.65070
2406.91507 1.65014
2404.86663 1.64894
2402.81819 1.64716
2400.76976 1.64598
2398.72132 1.64585
2396.67288 1.64637
2394.62444 1.64766
2392.57600 1.64859
2390.52756 1.64809
2388.47913 1.64764
2386.43069 1.64824
2384.38225 1.64875
2382.33381 1.64913
2380.28537 1.65043
2378.23693 1.65140
2376.18850 1.65050
2374.14006 1.64908
2372.09162 1.64853
2370.04318 1.64867
2367.99474 1.64808
2365.94630 1.64681
2363.89787 1.64666
2361.84943 1.64504
2359.80099 1.64124
2357.75255 1.64066
2355.70411 1.64542
2353.65567 1.65160
2351.60723 1.65462
2349.55880 1.65440
2347.51036 1.65318
2345.46192 1.65208
2343.41348 1.65090
2341.36504 1.65047
2339.31660 1.65313
2337.26817 1.65622
2335.21973 1.65481
2333.17129 1.65127
2331.12285 1.65115
2329.07441 1.65367
2327.02597 1.65517
2324.97754 1.65547
2322.92910 1.65500
2320.88066 1.65442
2318.83222 1.65373
2316.78378 1.65238
2314.73534 1.65172
2312.68691 1.65246
2310.63847 1.65311
2308.59003 1.65225
2306.54159 1.65095
2304.49315 1.65083
2302.44471 1.65110
2300.39628 1.65090
2298.34784 1.65069
2296.29940 1.65047
2294.25096 1.65021
2292.20252 1.64992
2290.15408 1.64946
2288.10565 1.64896
2286.05721 1.64826
2284.00877 1.64812
2281.96033 1.64900
2279.91189 1.64936
2277.86345 1.64875
2275.81502 1.64835
2273.76658 1.64855
2271.71814 1.64886
2269.66970 1.64865
2267.62126 1.64781
2265.57282 1.64729
2263.52439 1.64762
2261.47595 1.64823
2259.42751 1.64898
2257.37907 1.64942
2255.33063 1.64926
2253.28219 1.64950
2251.23376 1.65031
2249.18532 1.65030
2247.13688 1.64942
2245.08844 1.64858
2243.04000 1.64810
2240.99156 1.64833
2238.94313 1.64894
2236.89469 1.64952
2234.84625 1.64976
2232.79781 1.64973
2230.74937 1.64999
2228.70093 1.65025
2226.65250 1.65033
2224.60406 1.65029
2222.55562 1.65045
2220.50718 1.65158
2218.45874 1.65291
2216.41030 1.65285
2214.36186 1.65189
2212.31343 1.65121
2210.26499 1.65094
2208.21655 1.65116
2206.16811 1.65133
2204.11967 1.65087
2202.07123 1.65050
2200.02280 1.65043
2197.97436 1.65027
2195.92592 1.65031
2193.87748 1.65084
2191.82904 1.65120
2189.78060 1.65120
2187.73217 1.65134
2185.68373 1.65112
2183.63529 1.65071
2181.58685 1.65127
2179.53841 1.65238
2177.48997 1.65307
2175.44154 1.65358
2173.39310 1.65413
2171.34466 1.65377
2169.29622 1.65311
2167.24778 1.65404
2165.19934 1.65569
2163.15091 1.65638
2161.10247 1.65690
2159.05403 1.65844
2157.00559 1.66036
2154.95715 1.66118
2152.90871 1.66077
2150.86028 1.66015
2148.81184 1.66020
2146.76340 1.66068
2144.71496 1.66039
2142.66652 1.65912
2140.61808 1.65794
2138.56965 1.65767
2136.52121 1.65803
2134.47277 1.65865
2132.42433 1.65932
2130.37589 1.65941
2128.32745 1.65911
2126.27902 1.65894
2124.23058 1.65893
2122.18214 1.65943
2120.13370 1.66009
2118.08526 1.66022
2116.03682 1.66052
2113.98839 1.66131
2111.93995 1.66193
2109.89151 1.66220
2107.84307 1.66279
2105.79463 1.66435
2103.74619 1.66560
2101.69776 1.66539
2099.64932 1.66501
2097.60088 1.66572
2095.55244 1.66719
2093.50400 1.66811
2091.45556 1.66752
2089.40713 1.66619
2087.35869 1.66586
2085.31025 1.66679
2083.26181 1.66777
2081.21337 1.66838
2079.16493 1.66897
2077.11649 1.66924
2075.06806 1.66949
2073.01962 1.67015
2070.97118 1.67112
2068.92274 1.67249
2066.87430 1.67344
2064.82586 1.67310
2062.77743 1.67233
2060.72899 1.67204
2058.68055 1.67237
2056.63211 1.67318
2054.58367 1.67386
2052.53523 1.67420
2050.48680 1.67436
2048.43836 1.67459
2046.38992 1.67520
2044.34148 1.67563
2042.29304 1.67544
2040.24460 1.67473
2038.19617 1.67405
2036.14773 1.67415
2034.09929 1.67474
2032.05085 1.67493
2030.00241 1.67477
2027.95397 1.67464
2025.90554 1.67413
2023.85710 1.67385
2021.80866 1.67418
2019.76022 1.67371
2017.71178 1.67258
2015.66334 1.67216
2013.61491 1.67197
2011.56647 1.67147
2009.51803 1.67114
2007.46959 1.67111
2005.42115 1.67126
2003.37271 1.67101
2001.32428 1.66977
1999.27584 1.66892
1997.22740 1.66976
1995.17896 1.67065
1993.13052 1.67017
1991.08208 1.66954
1989.03365 1.66935
1986.98521 1.66915
1984.93677 1.66906
1982.88833 1.66918
1980.83989 1.66905
1978.79145 1.66825
1976.74302 1.66718
1974.69458 1.66640
1972.64614 1.66602
1970.59770 1.66588
1968.54926 1.66597
1966.50082 1.66612
1964.45239 1.66584
1962.40395 1.66512
1960.35551 1.66422
1958.30707 1.66389
1956.25863 1.66455
1954.21019 1.66522
1952.16176 1.66535
1950.11332 1.66522
1948.06488 1.66498
1946.01644 1.66505
1943.96800 1.66521
1941.91956 1.66554
1939.87112 1.66637
1937.82269 1.66704
1935.77425 1.66738
1933.72581 1.66731
1931.67737 1.66738
1929.62893 1.66817
1927.58049 1.66842
1925.53206 1.66756
1923.48362 1.66793
1921.43518 1.67009
1919.38674 1.67106
1917.33830 1.67099
1915.28986 1.67153
1913.24143 1.67198
1911.19299 1.67228
1909.14455 1.67322
1907.09611 1.67435
1905.04767 1.67507
1902.99923 1.67579
1900.95080 1.67639
1898.90236 1.67665
1896.85392 1.67709
1894.80548 1.67808
1892.75704 1.67851
1890.70860 1.67792
1888.66017 1.67862
1886.61173 1.68083
1884.56329 1.68268
1882.51485 1.68348
1880.46641 1.68310
1878.41797 1.68281
1876.36954 1.68352
1874.32110 1.68459
1872.27266 1.68497
1870.22422 1.68431
1868.17578 1.68474
1866.12734 1.68679
1864.07891 1.68800
1862.03047 1.68859
1859.98203 1.68906
1857.93359 1.68963
1855.88515 1.69059
1853.83671 1.69162
1851.78828 1.69248
1849.73984 1.69281
1847.69140 1.69259
1845.64296 1.69290
1843.59452 1.69550
1841.54608 1.69832
1839.49765 1.69935
1837.44921 1.69994
1835.40077 1.70108
1833.35233 1.70211
1831.30389 1.70214
1829.25545 1.70218
1827.20702 1.70361
1825.15858 1.70562
1823.11014 1.70742
1821.06170 1.70876
1819.01326 1.71000
1816.96482 1.71104
1814.91639 1.71129
1812.86795 1.71125
1810.81951 1.71231
1808.77107 1.71438
1806.72263 1.71556
1804.67419 1.71578
1802.62575 1.71600
1800.57732 1.71721
1798.52888 1.71978
1796.48044 1.72173
1794.43200 1.72200
1792.38356 1.72260
1790.33512 1.72530
1788.28669 1.72728
1786.23825 1.72747
1784.18981 1.72801
1782.14137 1.72955
1780.09293 1.73099
1778.04449 1.73239
1775.99606 1.73347
1773.94762 1.73378
1771.89918 1.73438
1769.85074 1.73673
1767.80230 1.73965
1765.75386 1.74162
1763.70543 1.74292
1761.65699 1.74552
1759.60855 1.74878
1757.56011 1.75106
1755.51167 1.75279
1753.46323 1.75358
1751.41480 1.75486
1749.36636 1.75956
1747.31792 1.76395
1745.26948 1.76349
1743.22104 1.75959
1741.17260 1.75499
1739.12417 1.75205
1737.07573 1.75165
1735.02729 1.75215
1732.97885 1.75166
1730.93041 1.74814
1728.88197 1.74171
1726.83354 1.73496
1724.78510 1.73133
1722.73666 1.73248
1720.68822 1.73543
1718.63978 1.73803
1716.59134 1.74294
1714.54291 1.74892
1712.49447 1.75251
1710.44603 1.75408
1708.39759 1.75480
1706.34915 1.75675
1704.30071 1.76005
1702.25228 1.76142
1700.20384 1.76211
1698.15540 1.76542
1696.10696 1.76864
1694.05852 1.77009
1692.01008 1.77079
1689.96165 1.77244
1687.91321 1.77515
1685.86477 1.77823
1683.81633 1.78124
1681.76789 1.78282
1679.71945 1.78433
1677.67102 1.78566
1675.62258 1.78658
1673.57414 1.78739
1671.52570 1.78728
1669.47726 1.78758
1667.42882 1.79050
1665.38038 1.79371
1663.33195 1.79709
1661.28351 1.80030
1659.23507 1.80245
1657.18663 1.80348
1655.13819 1.80170
1653.08975 1.80023
1651.04132 1.80540
1648.99288 1.81020
1646.94444 1.81614
1644.89600 1.82111
1642.84756 1.82249
1640.79912 1.82330
1638.75069 1.82367
1636.70225 1.82534
1634.65381 1.83082
1632.60537 1.83410
1630.55693 1.83644
1628.50849 1.84026
1626.46006 1.84417
1624.41162 1.84739
1622.36318 1.85169
1620.31474 1.85544
1618.26630 1.85872
1616.21786 1.86287
1614.16943 1.86608
1612.12099 1.86884
1610.07255 1.87199
1608.02411 1.87531
1605.97567 1.87928
1603.92723 1.88416
1601.87880 1.88908
1599.83036 1.89389
1597.78192 1.89832
1595.73348 1.90323
1593.68504 1.90805
1591.63660 1.91296
1589.58817 1.91897
1587.53973 1.92404
1585.49129 1.92735
1583.44285 1.93036
1581.39441 1.93486
1579.34597 1.94057
1577.29754 1.94789
1575.24910 1.95649
1573.20066 1.96316
1571.15222 1.96932
1569.10378 1.97732
1567.05534 1.98335
1565.00691 1.98842
1562.95847 1.99383
1560.91003 1.99685
1558.86159 2.00337
1556.81315 2.01616
1554.76471 2.02796
1552.71628 2.03789
1550.66784 2.04747
1548.61940 2.05781
1546.57096 2.06714
1544.52252 2.07582
1542.47408 2.08732
1540.42565 2.10530
1538.37721 2.11561
1536.32877 2.11884
1534.28033 2.12599
1532.23189 2.13860
1530.18345 2.14446
1528.13501 2.14869
1526.08658 2.15496
1524.03814 2.15970
1521.98970 2.15889
1519.94126 2.15487
1517.89282 2.14444
1515.84438 2.12378
1513.79595 2.10013
1511.74751 2.06972
1509.69907 2.03216
1507.65063 1.95637
1505.60219 1.84652
1503.55375 1.78283
1501.50532 1.72760
1499.45688 1.65952
1497.40844 1.57657
1495.36000 1.50143
1493.31156 1.45271
1491.26312 1.40870
1489.21469 1.35365
1487.16625 1.30836
1485.11781 1.27881
1483.06937 1.25478
1481.02093 1.23240
1478.97249 1.21356
1476.92406 1.19755
1474.87562 1.18188
1472.82718 1.16505
1470.77874 1.15064
1468.73030 1.14102
1466.68186 1.13144
1464.63343 1.12007
1462.58499 1.11044
1460.53655 1.10334
1458.48811 1.09491
1456.43967 1.08416
1454.39123 1.07752
1452.34280 1.07297
1450.29436 1.06832
1448.24592 1.06370
1446.19748 1.06029
1444.14904 1.05855
1442.10060 1.05795
1440.05217 1.05813
1438.00373 1.06019
1435.95529 1.06556
1433.90685 1.07139
1431.85841 1.07677
1429.80997 1.08316
1427.76154 1.08883
1425.71310 1.09275
1423.66466 1.09536
1421.61622 1.09567
1419.56778 1.09275
1417.51934 1.08651
1415.47091 1.07909
1413.42247 1.07013
1411.37403 1.05894
1409.32559 1.04645
1407.27715 1.03404
1405.22871 1.02146
1403.18028 1.01048
1401.13184 1.00235
1399.08340 0.99549
1397.03496 0.99035
1394.98652 0.98766
1392.93808 0.98701
1390.88965 0.98748
1388.84121 0.98944
1386.79277 0.99436
1384.74433 1.00169
1382.69589 1.01082
1380.64745 1.02314
1378.59901 1.03831
1376.55058 1.05519
1374.50214 1.07519
1372.45370 1.09622
1370.40526 1.11425
1368.35682 1.13149
1366.30838 1.14748
1364.25995 1.16180
1362.21151 1.17725
1360.16307 1.19175
1358.11463 1.20374
1356.06619 1.21505
1354.01775 1.22619
1351.96932 1.23673
1349.92088 1.24693
1347.87244 1.25664
1345.82400 1.26544
1343.77556 1.27295
1341.72712 1.27956
1339.67869 1.28661
1337.63025 1.29391
1335.58181 1.30030
1333.53337 1.30617
1331.48493 1.31195
1329.43649 1.31750
1327.38806 1.32289
1325.33962 1.32806
1323.29118 1.33272
1321.24274 1.33688
1319.19430 1.34113
1317.14586 1.34533
1315.09743 1.34896
1313.04899 1.35227
1311.00055 1.35534
1308.95211 1.35769
1306.90367 1.35969
1304.85523 1.36189
1302.80680 1.36433
1300.75836 1.36729
1298.70992 1.37053
1296.66148 1.37358
1294.61304 1.37653
1292.56460 1.37945
1290.51617 1.38233
1288.46773 1.38560
1286.41929 1.38928
1284.37085 1.39311
1282.32241 1.39672
1280.27397 1.39975
1278.22554 1.40241
1276.17710 1.40501
1274.12866 1.40765
1272.08022 1.41060
1270.03178 1.41372
1267.98334 1.41615
1265.93491 1.41819
1263.88647 1.42034
1261.83803 1.42223
1259.78959 1.42418
1257.74115 1.42665
1255.69271 1.42942
1253.64428 1.43220
1251.59584 1.43463
1249.54740 1.43675
1247.49896 1.43905
1245.45052 1.44116
1243.40208 1.44316
1241.35364 1.44576
1239.30521 1.44873
1237.25677 1.45121
1235.20833 1.45283
1233.15989 1.45450
1231.11145 1.45715
1229.06301 1.46000
1227.01458 1.46219
1224.96614 1.46416
1222.91770 1.46632
1220.86926 1.46870
1218.82082 1.47104
1216.77238 1.47306
1214.72395 1.47492
1212.67551 1.47685
1210.62707 1.47881
1208.57863 1.48074
1206.53019 1.48273
1204.48175 1.48446
1202.43332 1.48565
1200.38488 1.48672
1198.33644 1.48811
1196.28800 1.48976
1194.23956 1.49167
1192.19112 1.49374
1190.14269 1.49568
1188.09425 1.49723
1186.04581 1.49834
1183.99737 1.49946
1181.94893 1.50081
1179.90049 1.50208
1177.85206 1.50320
1175.80362 1.50432
1173.75518 1.50530
1171.70674 1.50615
1169.65830 1.50689
1167.60986 1.50750
1165.56143 1.50835
1163.51299 1.50960
1161.46455 1.51064
1159.41611 1.51156
1157.36767 1.51264
1155.31923 1.51376
1153.27080 1.51518
1151.22236 1.51648
1149.17392 1.51735
1147.12548 1.51863
1145.07704 1.52033
1143.02860 1.52151
1140.98017 1.52244
1138.93173 1.52348
1136.88329 1.52446
1134.83485 1.52528
1132.78641 1.52592
1130.73797 1.52663
1128.68954 1.52772
1126.64110 1.52919
1124.59266 1.53084
1122.54422 1.53264
1120.49578 1.53449
1118.44734 1.53656
1116.39891 1.53831
1114.35047 1.53911
1112.30203 1.53945
1110.25359 1.53910
1108.20515 1.53784
1106.15671 1.53676
1104.10827 1.53626
1102.05984 1.53606
1100.01140 1.53623
1097.96296 1.53651
1095.91452 1.53703
1093.86608 1.53795
1091.81764 1.53923
1089.76921 1.54108
1087.72077 1.54311
1085.67233 1.54439
1083.62389 1.54511
1081.57545 1.54594
1079.52701 1.54734
1077.47858 1.54900
1075.43014 1.55000
1073.38170 1.55119
1071.33326 1.55361
1069.28482 1.55741
1067.23638 1.56179
1065.18795 1.56649
1063.13951 1.57251
1061.09107 1.58166
1059.04263 1.59559
1056.99419 1.60824
1054.94575 1.57709
1052.89732 1.49407
1050.84888 1.44380
1048.80044 1.45907
1046.75200 1.49348
1044.70356 1.51252
1042.65512 1.52135
1040.60669 1.52670
1038.55825 1.53054
1036.50981 1.53352
1034.46137 1.53646
1032.41293 1.53925
1030.36449 1.54165
1028.31606 1.54356
1026.26762 1.54556
1024.21918 1.54790
1022.17074 1.55025
1020.12230 1.55198
1018.07386 1.55344
1016.02543 1.55549
1013.97699 1.55839
1011.92855 1.56116
1009.88011 1.56290
1007.83167 1.56423
1005.78323 1.56546
1003.73480 1.56601
1001.68636 1.56625
999.63792 1.56771
997.58948 1.57005
995.54104 1.57213
993.49260 1.57316
991.44417 1.57295
989.39573 1.57247
987.34729 1.57276
985.29885 1.57361
983.25041 1.57466
981.20197 1.57600
979.15354 1.57741
977.10510 1.57892
975.05666 1.57977
973.00822 1.57997
970.95978 1.58058
968.91134 1.58211
966.86290 1.58333
964.81447 1.58362
962.76603 1.58493
960.71759 1.58733
958.66915 1.58912
956.62071 1.59033
954.57227 1.59107
952.52384 1.59123
950.47540 1.59188
948.42696 1.59333
946.37852 1.59547
944.33008 1.59787
942.28164 1.59907
940.23321 1.59889
938.18477 1.59880
936.13633 1.60032
934.08789 1.60319
932.03945 1.60545
929.99101 1.60641
927.94258 1.60742
925.89414 1.60907
923.84570 1.61035
921.79726 1.61115
919.74882 1.61222
917.70038 1.61316
915.65195 1.61474
913.60351 1.61789
911.55507 1.62103
909.50663 1.62314
907.45819 1.62506
905.40975 1.62741
903.36132 1.62960
901.31288 1.63183
899.26444 1.63449
897.21600 1.63696
895.16756 1.63894
893.11912 1.64042
891.07069 1.64204
889.02225 1.64473
886.97381 1.64828
884.92537 1.65143
882.87693 1.65310
880.82849 1.65419
878.78006 1.65711
876.73162 1.66130
874.68318 1.66416
872.63474 1.66630
870.58630 1.67028
868.53786 1.67777
866.48943 1.68779
864.44099 1.69724
862.39255 1.70576
860.34411 1.71512
858.29567 1.72528
856.24723 1.73700
854.19880 1.75305
852.15036 1.77029
850.10192 1.77286
848.05348 1.71667
846.00504 1.56284
843.95660 1.37823
841.90817 1.24909
839.85973 1.20168
837.81129 1.22702
835.76285 1.29818
833.71441 1.37707
831.66597 1.43722
829.61753 1.47767
827.56910 1.50501
825.52066 1.51985
823.47222 1.52536
821.42378 1.53185
819.37534 1.54205
817.32690 1.55024
815.27847 1.55560
813.23003 1.56095
811.18159 1.56685
809.13315 1.57248
807.08471 1.57702
805.03627 1.58084
802.98784 1.58416
800.93940 1.58708
798.89096 1.59015
796.84252 1.59101
794.79408 1.58942
792.74564 1.59041
790.69721 1.59481
788.64877 1.59844
786.60033 1.60027
784.55189 1.60270
782.50345 1.60540
780.45501 1.60605
778.40658 1.60540
776.35814 1.60654
774.30970 1.61022
772.26126 1.61416
770.21282 1.61675
768.16438 1.61756
766.11595 1.61665
764.06751 1.61578
762.01907 1.61598
759.97063 1.61684
757.92219 1.61904
755.87375 1.62198
753.82532 1.62426
751.77688 1.62611
749.72844 1.62708
747.68000 1.62759
745.63156 1.62852
743.58312 1.63026
741.53469 1.63236
739.48625 1.63209
737.43781 1.63047
735.38937 1.63186
733.34093 1.63579
731.29249 1.63809
729.24406 1.63682
727.19562 1.63438
725.14718 1.63536
723.09874 1.64082
721.05030 1.64764
719.00186 1.65181
716.95343 1.65130
714.90499 1.65051
712.85655 1.65453
710.80811 1.66177
708.75967 1.66881
706.71123 1.67505
704.66280 1.68011
702.61436 1.68464
700.56592 1.69228
698.51748 1.70597
696.46904 1.72109
694.42060 1.73129
692.37216 1.74589
690.32373 1.77578
688.27529 1.81630
686.22685 1.84924
684.17841 1.80002
682.12997 1.58261
680.08153 1.32732
678.03310 1.18459
675.98466 1.18375
673.93622 1.27398
671.88778 1.36290
669.83934 1.41405
667.79090 1.45404
665.74247 1.48103
663.69403 1.49592
661.64559 1.50857
659.59715 1.51892
657.54871 1.52807
655.50027 1.53511
653.45184 1.53850
651.40340 1.54155
649.35496 1.54604
647.30652 1.55083
645.25808 1.55244
643.20964 1.55216
641.16121 1.55604
639.11277 1.56111
637.06433 1.55795
635.01589 1.54983
632.96745 1.54845
630.91901 1.55440
628.87058 1.55937
626.82214 1.56254
624.77370 1.57076
622.72526 1.57880
620.67682 1.57948
618.62838 1.57952
616.57995 1.57547
614.53151 1.56332
612.48307 1.55319
610.43463 1.55105
608.38619 1.55809
606.33775 1.57306
604.28932 1.59027
602.24088 1.59307
600.19244 1.57620
598.14400 1.55809
