3996.50324 1.73181
3994.45480 1.73242
3992.40636 1.73346
3990.35792 1.73590
3988.30948 1.73885
3986.26104 1.73949
3984.21261 1.73858
3982.16417 1.73940
3980.11573 1.74148
3978.06729 1.74279
3976.01885 1.74297
3973.97041 1.74180
3971.92198 1.73959
3969.87354 1.73859
3967.82510 1.73868
3965.77666 1.73676
3963.72822 1.73308
3961.67978 1.73068
3959.63135 1.73107
3957.58291 1.73206
3955.53447 1.73042
3953.48603 1.72638
3951.43759 1.72280
3949.38915 1.72242
3947.34072 1.72239
3945.29228 1.71815
3943.24384 1.71327
3941.19540 1.71020
3939.14696 1.70633
3937.09852 1.70212
3935.05009 1.69817
3933.00165 1.69356
3930.95321 1.68877
3928.90477 1.68369
3926.85633 1.67896
3924.80789 1.67671
3922.75946 1.67533
3920.71102 1.67199
3918.66258 1.66887
3916.61414 1.66781
3914.56570 1.66507
3912.51726 1.65988
3910.46883 1.65515
3908.42039 1.65022
3906.37195 1.64494
3904.32351 1.64455
3902.27507 1.64917
3900.22663 1.65320
3898.17820 1.65579
3896.12976 1.65269
3894.08132 1.64575
3892.03288 1.64366
3889.98444 1.64673
3887.93600 1.64586
3885.88756 1.64465
3883.83913 1.64571
3881.79069 1.64533
3879.74225 1.64506
3877.69381 1.64079
3875.64537 1.63456
3873.59693 1.63238
3871.54850 1.63164
3869.50006 1.63372
3867.45162 1.63537
3865.40318 1.63398
3863.35474 1.63856
3861.30630 1.64282
3859.25787 1.63997
3857.20943 1.63312
3855.16099 1.62626
3853.11255 1.63455
3851.06411 1.64496
3849.01567 1.64177
3846.96724 1.63614
3844.91880 1.63158
3842.87036 1.62906
3840.82192 1.62830
3838.77348 1.63295
3836.72504 1.64207
3834.67661 1.64322
3832.62817 1.64007
3830.57973 1.63845
3828.53129 1.63677
3826.48285 1.63582
3824.43441 1.63446
3822.38598 1.63249
3820.33754 1.63561
3818.28910 1.63484
3816.24066 1.63460
3814.19222 1.63952
3812.14378 1.63824
3810.09535 1.63291
3808.04691 1.63147
3805.99847 1.63558
3803.95003 1.63476
3801.90159 1.63652
3799.85315 1.64426
3797.80472 1.64276
3795.75628 1.64052
3793.70784 1.64059
3791.65940 1.63895
3789.61096 1.63659
3787.56252 1.63429
3785.51409 1.63377
3783.46565 1.63493
3781.41721 1.63438
3779.36877 1.63555
3777.32033 1.63858
3775.27189 1.63783
3773.22346 1.63438
3771.17502 1.63272
3769.12658 1.63688
3767.07814 1.63986
3765.02970 1.63854
3762.98126 1.63617
3760.93283 1.63419
3758.88439 1.63681
3756.83595 1.63930
3754.78751 1.63397
3752.73907 1.62631
3750.69063 1.63412
3748.64219 1.64839
3746.59376 1.64704
3744.54532 1.64680
3742.49688 1.65156
3740.44844 1.64924
3738.40000 1.64256
3736.35156 1.63977
3734.30313 1.64852
3732.25469 1.65578
3730.20625 1.65566
3728.15781 1.65419
3726.10937 1.65448
3724.06093 1.65717
3722.01250 1.66189
3719.96406 1.66711
3717.91562 1.66913
3715.86718 1.66655
3713.81874 1.66145
3711.77030 1.66127
3709.72187 1.66776
3707.67343 1.66888
3705.62499 1.66603
3703.57655 1.66396
3701.52811 1.66669
3699.47967 1.66998
3697.43124 1.66920
3695.38280 1.66760
3693.33436 1.66668
3691.28592 1.66677
3689.23748 1.67216
3687.18904 1.67803
3685.14061 1.67823
3683.09217 1.67639
3681.04373 1.67493
3678.99529 1.67449
3676.94685 1.67639
3674.89841 1.68565
3672.84998 1.69068
3670.80154 1.69149
3668.75310 1.69836
3666.70466 1.70178
3664.65622 1.70018
3662.60778 1.69862
3660.55935 1.69827
3658.51091 1.69968
3656.46247 1.70577
3654.41403 1.71098
3652.36559 1.70905
3650.31715 1.70947
3648.26872 1.72142
3646.22028 1.72505
3644.17184 1.72306
3642.12340 1.72255
3640.07496 1.72359
3638.02652 1.72491
3635.97809 1.72635
3633.92965 1.72794
3631.88121 1.72783
3629.83277 1.72903
3627.78433 1.73689
3625.73589 1.73928
3623.68746 1.73685
3621.63902 1.73435
3619.59058 1.73577
3617.54214 1.74173
3615.49370 1.74448
3613.44526 1.74526
3611.39682 1.74601
3609.34839 1.74607
3607.29995 1.74631
3605.25151 1.74649
3603.20307 1.74623
3601.15463 1.74556
3599.10619 1.74522
3597.05776 1.74563
3595.00932 1.74655
3592.96088 1.74595
3590.91244 1.74124
3588.86400 1.73501
3586.81556 1.73496
3584.76713 1.73904
3582.71869 1.74016
3580.67025 1.73907
3578.62181 1.73702
3576.57337 1.73653
3574.52493 1.73878
3572.47650 1.74068
3570.42806 1.73991
3568.37962 1.73713
3566.33118 1.73527
3564.28274 1.73643
3562.23430 1.73861
3560.18587 1.74001
3558.13743 1.74001
3556.08899 1.73960
3554.04055 1.73919
3551.99211 1.73898
3549.94367 1.73916
3547.89524 1.73900
3545.84680 1.73856
3543.79836 1.73922
3541.74992 1.73987
3539.70148 1.73892
3537.65304 1.73729
3535.60461 1.73626
3533.55617 1.73616
3531.50773 1.73656
3529.45929 1.73743
3527.41085 1.73925
3525.36241 1.74096
3523.31398 1.74121
3521.26554 1.74099
3519.21710 1.74142
3517.16866 1.74139
3515.12022 1.74094
3513.07178 1.74106
3511.02335 1.74093
3508.97491 1.74055
3506.92647 1.74064
3504.87803 1.74122
3502.82959 1.74278
3500.78115 1.74456
3498.73272 1.74602
3496.68428 1.74654
3494.63584 1.74544
3492.58740 1.74446
3490.53896 1.74449
3488.49052 1.74528
3486.44209 1.74700
3484.39365 1.74893
3482.34521 1.74953
3480.29677 1.74809
3478.24833 1.74595
3476.19989 1.74481
3474.15146 1.74572
3472.10302 1.74738
3470.05458 1.74875
3468.00614 1.75060
3465.95770 1.75172
3463.90926 1.75069
3461.86082 1.74881
3459.81239 1.74811
3457.76395 1.74901
3455.71551 1.75038
3453.66707 1.75080
3451.61863 1.75048
3449.57019 1.75135
3447.52176 1.75328
3445.47332 1.75351
3443.42488 1.75210
3441.37644 1.75221
3439.32800 1.75429
3437.27956 1.75633
3435.23113 1.75769
3433.18269 1.75840
3431.13425 1.75812
3429.08581 1.75674
3427.03737 1.75558
3424.98893 1.75571
3422.94050 1.75559
3420.89206 1.75521
3418.84362 1.75602
3416.79518 1.75723
3414.74674 1.75877
3412.69830 1.76083
3410.64987 1.76175
3408.60143 1.76052
3406.55299 1.75875
3404.50455 1.75826
3402.45611 1.75888
3400.40767 1.76096
3398.35924 1.76338
3396.31080 1.76322
3394.26236 1.76232
3392.21392 1.76254
3390.16548 1.76171
3388.11704 1.76012
3386.06861 1.75959
3384.02017 1.76081
3381.97173 1.76309
3379.92329 1.76482
3377.87485 1.76626
3375.82641 1.76792
3373.77798 1.76840
3371.72954 1.76675
3369.68110 1.76447
3367.63266 1.76315
3365.58422 1.76233
3363.53578 1.76190
3361.48735 1.76318
3359.43891 1.76500
3357.39047 1.76471
3355.34203 1.76293
3353.29359 1.76200
3351.24515 1.76322
3349.19672 1.76607
3347.14828 1.76889
3345.09984 1.77045
3343.05140 1.77033
3341.00296 1.76981
3338.95452 1.76990
3336.90609 1.76964
3334.85765 1.76928
3332.80921 1.76943
3330.76077 1.76947
3328.71233 1.76983
3326.66389 1.77080
3324.61545 1.77202
3322.56702 1.77319
3320.51858 1.77267
3318.47014 1.77027
3316.42170 1.76854
3314.37326 1.76809
3312.32482 1.76806
3310.27639 1.76875
3308.22795 1.77000
3306.17951 1.77112
3304.13107 1.77105
3302.08263 1.76925
3300.03419 1.76830
3297.98576 1.77025
3295.93732 1.77260
3293.88888 1.77307
3291.84044 1.77332
3289.79200 1.77457
3287.74356 1.77495
3285.69513 1.77395
3283.64669 1.77337
3281.59825 1.77366
3279.54981 1.77407
3277.50137 1.77476
3275.45293 1.77611
3273.40450 1.77756
3271.35606 1.77843
3269.30762 1.77848
3267.25918 1.77783
3265.21074 1.77709
3263.16230 1.77639
3261.11387 1.77641
3259.06543 1.77782
3257.01699 1.77850
3254.96855 1.77692
3252.92011 1.77559
3250.87167 1.77721
3248.82324 1.78047
3246.77480 1.78197
3244.72636 1.78178
3242.67792 1.78215
3240.62948 1.78258
3238.58104 1.78240
3236.53261 1.78226
3234.48417 1.78152
3232.43573 1.78032
3230.38729 1.78008
3228.33885 1.78071
3226.29041 1.78129
3224.24198 1.78114
3222.19354 1.77959
3220.14510 1.77786
3218.09666 1.77791
3216.04822 1.77903
3213.99978 1.77946
3211.95135 1.77924
3209.90291 1.77929
3207.85447 1.77981
3205.80603 1.78068
3203.75759 1.78163
3201.70915 1.78231
3199.66072 1.78225
3197.61228 1.78092
3195.56384 1.77973
3193.51540 1.77985
3191.46696 1.78027
3189.41852 1.78083
3187.37008 1.78173
3185.32165 1.78152
3183.27321 1.78036
3181.22477 1.78052
3179.17633 1.78166
3177.12789 1.78194
3175.07945 1.78098
3173.03102 1.77988
3170.98258 1.77989
3168.93414 1.78011
3166.88570 1.77980
3164.83726 1.78019
3162.78882 1.78112
3160.74039 1.78128
3158.69195 1.78060
3156.64351 1.78002
3154.59507 1.77995
3152.54663 1.78020
3150.49819 1.78097
3148.44976 1.78163
3146.40132 1.78196
3144.35288 1.78279
3142.30444 1.78260
3140.25600 1.78082
3138.20756 1.78077
3136.15913 1.78343
3134.11069 1.78553
3132.06225 1.78534
3130.01381 1.78499
3127.96537 1.78592
3125.91693 1.78643
3123.86850 1.78482
3121.82006 1.78243
3119.77162 1.78128
3117.72318 1.78134
3115.67474 1.78186
3113.62630 1.78259
3111.57787 1.78265
3109.52943 1.78173
3107.48099 1.78229
3105.43255 1.78555
3103.38411 1.78876
3101.33567 1.78864
3099.28724 1.78695
3097.23880 1.78804
3095.19036 1.79062
3093.14192 1.79068
3091.09348 1.78818
3089.04504 1.78587
3086.99661 1.78510
3084.94817 1.78517
3082.89973 1.78551
3080.85129 1.78602
3078.80285 1.78734
3076.75441 1.78947
3074.70598 1.79098
3072.65754 1.79141
3070.60910 1.79089
3068.56066 1.79055
3066.51222 1.79193
3064.46378 1.79410
3062.41535 1.79609
3060.36691 1.79816
3058.31847 1.79873
3056.27003 1.79715
3054.22159 1.79603
3052.17315 1.79668
3050.12471 1.79798
3048.07628 1.79848
3046.02784 1.79763
3043.97940 1.79718
3041.93096 1.79907
3039.88252 1.80215
3037.83408 1.80331
3035.78565 1.80277
3033.73721 1.80354
3031.68877 1.80641
3029.64033 1.80899
3027.59189 1.80929
3025.54345 1.80794
3023.49502 1.80607
3021.44658 1.80400
3019.39814 1.80295
3017.34970 1.80381
3015.30126 1.80412
3013.25282 1.80307
3011.20439 1.80257
3009.15595 1.80326
3007.10751 1.80571
3005.05907 1.80739
3003.01063 1.80557
3000.96219 1.80356
2998.91376 1.80350
2996.86532 1.80375
2994.81688 1.80315
2992.76844 1.80223
2990.72000 1.80212
2988.67156 1.80244
2986.62313 1.80275
2984.57469 1.80257
2982.52625 1.80120
2980.47781 1.79941
2978.42937 1.79823
2976.38093 1.79764
2974.33250 1.79796
2972.28406 1.79999
2970.23562 1.80104
2968.18718 1.79930
2966.13874 1.79825
2964.09030 1.79863
2962.04187 1.79810
2959.99343 1.79715
2957.94499 1.79691
2955.89655 1.79701
2953.84811 1.79676
2951.79967 1.79635
2949.75124 1.79693
2947.70280 1.79819
2945.65436 1.79838
2943.60592 1.79756
2941.55748 1.79731
2939.50904 1.79780
2937.46061 1.79807
2935.41217 1.79710
2933.36373 1.79522
2931.31529 1.79397
2929.26685 1.79360
2927.21841 1.79397
2925.16998 1.79401
2923.12154 1.79250
2921.07310 1.79068
2919.02466 1.79025
2916.97622 1.79102
2914.92778 1.79225
2912.87934 1.79381
2910.83091 1.79559
2908.78247 1.79753
2906.73403 1.79962
2904.68559 1.80208
2902.63715 1.80450
2900.58871 1.80610
2898.54028 1.80562
2896.49184 1.80335
2894.44340 1.80300
2892.39496 1.80478
2890.34652 1.80574
2888.29808 1.80588
2886.24965 1.80590
2884.20121 1.80488
2882.15277 1.80299
2880.10433 1.80188
2878.05589 1.80156
2876.00745 1.80029
2873.95902 1.79816
2871.91058 1.79714
2869.86214 1.79786
2867.81370 1.79879
2865.76526 1.79867
2863.71682 1.79766
2861.66839 1.79605
2859.61995 1.79441
2857.57151 1.79319
2855.52307 1.79261
2853.47463 1.79264
2851.42619 1.79255
2849.37776 1.79214
2847.32932 1.79214
2845.28088 1.79316
2843.23244 1.79451
2841.18400 1.79502
2839.13556 1.79422
2837.08713 1.79262
2835.03869 1.79120
2832.99025 1.79052
2830.94181 1.79044
2828.89337 1.79013
2826.84493 1.78977
2824.79650 1.78968
2822.74806 1.78937
2820.69962 1.78935
2818.65118 1.79021
2816.60274 1.79041
2814.55430 1.78830
2812.50587 1.78554
2810.45743 1.78417
2808.40899 1.78288
2806.36055 1.78047
2804.31211 1.77791
2802.26367 1.77617
2800.21524 1.77453
2798.16680 1.77212
2796.11836 1.77027
2794.06992 1.77020
2792.02148 1.77086
2789.97304 1.77047
2787.92461 1.76934
2785.87617 1.76894
2783.82773 1.76892
2781.77929 1.76845
2779.73085 1.76775
2777.68241 1.76703
2775.63397 1.76615
2773.58554 1.76564
2771.53710 1.76584
2769.48866 1.76639
2767.44022 1.76702
2765.39178 1.76693
2763.34334 1.76542
2761.29491 1.76416
2759.24647 1.76449
2757.19803 1.76512
2755.14959 1.76514
2753.10115 1.76465
2751.05271 1.76391
2749.00428 1.76343
2746.95584 1.76373
2744.90740 1.76448
2742.85896 1.76546
2740.81052 1.76693
2738.76208 1.76787
2736.71365 1.76828
2734.66521 1.76946
2732.61677 1.77052
2730.56833 1.77041
2728.51989 1.76997
2726.47145 1.77020
2724.42302 1.77119
2722.37458 1.77189
2720.32614 1.77200
2718.27770 1.77244
2716.22926 1.77359
2714.18082 1.77502
2712.13239 1.77621
2710.08395 1.77710
2708.03551 1.77886
2705.98707 1.78173
2703.93863 1.78355
2701.89019 1.78428
2699.84176 1.78619
2697.79332 1.78853
2695.74488 1.78915
2693.69644 1.78871
2691.64800 1.78857
2689.59956 1.78925
2687.55113 1.79105
2685.50269 1.79364
2683.45425 1.79622
2681.40581 1.79776
2679.35737 1.79819
2677.30893 1.79867
2675.26050 1.79979
2673.21206 1.80134
2671.16362 1.80350
2669.11518 1.80607
2667.06674 1.80829
2665.01830 1.81015
2662.96987 1.81147
2660.92143 1.81271
2658.87299 1.81389
2656.82455 1.81397
2654.77611 1.81406
2652.72767 1.81594
2650.67924 1.81830
2648.63080 1.81900
2646.58236 1.81847
2644.53392 1.81781
2642.48548 1.81766
2640.43704 1.81854
2638.38860 1.81939
2636.34017 1.81948
2634.29173 1.81972
2632.24329 1.81999
2630.19485 1.81995
2628.14641 1.82006
2626.09797 1.82051
2624.04954 1.82066
2622.00110 1.82025
2619.95266 1.82005
2617.90422 1.81972
2615.85578 1.81891
2613.80734 1.81859
2611.75891 1.81809
2609.71047 1.81667
2607.66203 1.81606
2605.61359 1.81711
2603.56515 1.81796
2601.51671 1.81778
2599.46828 1.81828
2597.41984 1.81977
2595.37140 1.82098
2593.32296 1.82198
2591.27452 1.82293
2589.22608 1.82411
2587.17765 1.82578
2585.12921 1.82684
2583.08077 1.82693
2581.03233 1.82642
2578.98389 1.82526
2576.93545 1.82463
2574.88702 1.82511
2572.83858 1.82518
2570.79014 1.82450
2568.74170 1.82451
2566.69326 1.82590
2564.64482 1.82712
2562.59639 1.82669
2560.54795 1.82590
2558.49951 1.82660
2556.45107 1.82844
2554.40263 1.82977
2552.35419 1.83043
2550.30576 1.83130
2548.25732 1.83202
2546.20888 1.83155
2544.16044 1.83046
2542.11200 1.83012
2540.06356 1.83024
2538.01513 1.82952
2535.96669 1.82800
2533.91825 1.82739
2531.86981 1.82793
2529.82137 1.82790
2527.77293 1.82722
2525.72450 1.82700
2523.67606 1.82662
2521.62762 1.82531
2519.57918 1.82362
2517.53074 1.82194
2515.48230 1.81958
2513.43387 1.81607
2511.38543 1.81291
2509.33699 1.81123
2507.28855 1.80971
2505.24011 1.80783
2503.19167 1.80668
2501.14324 1.80676
2499.09480 1.80753
2497.04636 1.80825
2494.99792 1.80868
2492.94948 1.80897
2490.90104 1.80922
2488.85260 1.80894
2486.80417 1.80836
2484.75573 1.80854
2482.70729 1.80918
2480.65885 1.80928
2478.61041 1.80830
2476.56197 1.80691
2474.51354 1.80662
2472.46510 1.80695
2470.41666 1.80634
2468.36822 1.80547
2466.31978 1.80585
2464.27134 1.80719
2462.22291 1.80811
2460.17447 1.80793
2458.12603 1.80702
2456.07759 1.80623
2454.02915 1.80549
2451.98071 1.80439
2449.93228 1.80363
2447.88384 1.80389
2445.83540 1.80464
2443.78696 1.80471
2441.73852 1.80335
2439.69008 1.80151
2437.64165 1.80072
2435.59321 1.80087
2433.54477 1.80119
2431.49633 1.80150
2429.44789 1.80184
2427.39945 1.80222
2425.35102 1.80228
2423.30258 1.80234
2421.25414 1.80252
2419.20570 1.80245
2417.15726 1.80229
2415.10882 1.80179
2413.06039 1.80119
2411.01195 1.80119
2408.96351 1.80134
2406.91507 1.80124
2404.86663 1.80092
2402.81819 1.79996
2400.76976 1.79854
2398.72132 1.79729
2396.67288 1.79591
2394.62444 1.79393
2392.57600 1.79269
2390.52756 1.79295
2388.47913 1.79333
2386.43069 1.79342
2384.38225 1.79342
2382.33381 1.79274
2380.28537 1.79099
2378.23693 1.78899
2376.18850 1.78693
2374.14006 1.78463
2372.09162 1.78068
2370.04318 1.77217
2367.99474 1.76552
2365.94630 1.76848
2363.89787 1.77428
2361.84943 1.77338
2359.80099 1.76886
2357.75255 1.76845
2355.70411 1.77328
2353.65567 1.78037
2351.60723 1.78647
2349.55880 1.78886
2347.51036 1.78866
2345.46192 1.78955
2343.41348 1.79410
2341.36504 1.79919
2339.31660 1.80056
2337.26817 1.79903
2335.21973 1.79606
2333.17129 1.79389
2331.12285 1.79468
2329.07441 1.79679
2327.02597 1.80066
2324.97754 1.80499
2322.92910 1.80482
2320.88066 1.80320
2318.83222 1.80588
2316.78378 1.80910
2314.73534 1.80884
2312.68691 1.80787
2310.63847 1.80908
2308.59003 1.80986
2306.54159 1.80802
2304.49315 1.80576
2302.44471 1.80460
2300.39628 1.80302
2298.34784 1.80056
2296.29940 1.79908
2294.25096 1.79856
2292.20252 1.79868
2290.15408 1.80068
2288.10565 1.80347
2286.05721 1.80507
2284.00877 1.80639
2281.96033 1.80857
2279.91189 1.81119
2277.86345 1.81345
2275.81502 1.81460
2273.76658 1.81581
2271.71814 1.81839
2269.66970 1.82103
2267.62126 1.82285
2265.57282 1.82386
2263.52439 1.82491
2261.47595 1.82752
2259.42751 1.83019
2257.37907 1.83177
2255.33063 1.83376
2253.28219 1.83563
2251.23376 1.83612
2249.18532 1.83590
2247.13688 1.83519
2245.08844 1.83397
2243.04000 1.83285
2240.99156 1.83191
2238.94313 1.83105
2236.89469 1.83023
2234.84625 1.82970
2232.79781 1.82956
2230.74937 1.82932
2228.70093 1.82908
2226.65250 1.82948
2224.60406 1.83055
2222.55562 1.83131
2220.50718 1.83164
2218.45874 1.83347
2216.41030 1.83716
2214.36186 1.84087
2212.31343 1.84364
2210.26499 1.84544
2208.21655 1.84651
2206.16811 1.84735
2204.11967 1.84795
2202.07123 1.84812
2200.02280 1.84828
2197.97436 1.84927
2195.92592 1.85088
2193.87748 1.85244
2191.82904 1.85392
2189.78060 1.85477
2187.73217 1.85518
2185.68373 1.85634
2183.63529 1.85867
2181.58685 1.86083
2179.53841 1.86173
2177.48997 1.86236
2175.44154 1.86317
2173.39310 1.86405
2171.34466 1.86529
2169.29622 1.86665
2167.24778 1.86778
2165.19934 1.86848
2163.15091 1.86859
2161.10247 1.86864
2159.05403 1.86877
2157.00559 1.86912
2154.95715 1.87053
2152.90871 1.87181
2150.86028 1.87135
2148.81184 1.87045
2146.76340 1.87066
2144.71496 1.87079
2142.66652 1.86969
2140.61808 1.86796
2138.56965 1.86619
2136.52121 1.86513
2134.47277 1.86504
2132.42433 1.86462
2130.37589 1.86339
2128.32745 1.86175
2126.27902 1.85994
2124.23058 1.85909
2122.18214 1.85867
2120.13370 1.85749
2118.08526 1.85566
2116.03682 1.85361
2113.98839 1.85197
2111.93995 1.85155
2109.89151 1.85268
2107.84307 1.85398
2105.79463 1.85473
2103.74619 1.85489
2101.69776 1.85464
2099.64932 1.85478
2097.60088 1.85568
2095.55244 1.85673
2093.50400 1.85711
2091.45556 1.85742
2089.40713 1.85783
2087.35869 1.85802
2085.31025 1.85880
2083.26181 1.86026
2081.21337 1.86107
2079.16493 1.86181
2077.11649 1.86319
2075.06806 1.86367
2073.01962 1.86322
2070.97118 1.86341
2068.92274 1.86429
2066.87430 1.86521
2064.82586 1.86618
2062.77743 1.86687
2060.72899 1.86760
2058.68055 1.86882
2056.63211 1.86996
2054.58367 1.87093
2052.53523 1.87129
2050.48680 1.87120
2048.43836 1.87182
2046.38992 1.87263
2044.34148 1.87344
2042.29304 1.87458
2040.24460 1.87543
2038.19617 1.87656
2036.14773 1.87818
2034.09929 1.87938
2032.05085 1.88065
2030.00241 1.88256
2027.95397 1.88433
2025.90554 1.88555
2023.85710 1.88663
2021.80866 1.88750
2019.76022 1.88810
2017.71178 1.88883
2015.66334 1.89010
2013.61491 1.89177
2011.56647 1.89284
2009.51803 1.89336
2007.46959 1.89443
2005.42115 1.89648
2003.37271 1.89893
2001.32428 1.90085
1999.27584 1.90175
1997.22740 1.90196
1995.17896 1.90263
1993.13052 1.90491
1991.08208 1.90901
1989.03365 1.91329
1986.98521 1.91654
1984.93677 1.91950
1982.88833 1.92344
1980.83989 1.92748
1978.79145 1.93050
1976.74302 1.93290
1974.69458 1.93489
1972.64614 1.93633
1970.59770 1.93581
1968.54926 1.93349
1966.50082 1.93201
1964.45239 1.93235
1962.40395 1.93352
1960.35551 1.93508
1958.30707 1.93641
1956.25863 1.93793
1954.21019 1.94012
1952.16176 1.94237
1950.11332 1.94500
1948.06488 1.94684
1946.01644 1.94603
1943.96800 1.94546
1941.91956 1.94872
1939.87112 1.95231
1937.82269 1.95416
1935.77425 1.95585
1933.72581 1.95820
1931.67737 1.96133
1929.62893 1.96399
1927.58049 1.96606
1925.53206 1.96869
1923.48362 1.97324
1921.43518 1.97818
1919.38674 1.98022
1917.33830 1.98038
1915.28986 1.98038
1913.24143 1.98123
1911.19299 1.98480
1909.14455 1.99015
1907.09611 1.99311
1905.04767 1.99315
1902.99923 1.99382
1900.95080 1.99582
1898.90236 1.99771
1896.85392 2.00050
1894.80548 2.00437
1892.75704 2.00619
1890.70860 2.00660
1888.66017 2.00993
1886.61173 2.01361
1884.56329 2.01547
1882.51485 2.01755
1880.46641 2.01938
1878.41797 2.01980
1876.36954 2.02094
1874.32110 2.02373
1872.27266 2.02581
1870.22422 2.02884
1868.17578 2.03411
1866.12734 2.03730
1864.07891 2.03901
1862.03047 2.04180
1859.98203 2.04500
1857.93359 2.04796
1855.88515 2.05118
1853.83671 2.05557
1851.78828 2.06005
1849.73984 2.06195
1847.69140 2.06331
1845.64296 2.06736
1843.59452 2.07418
1841.54608 2.08004
1839.49765 2.08465
1837.44921 2.09005
1835.40077 2.09618
1833.35233 2.10004
1831.30389 2.10414
1829.25545 2.11590
1827.20702 2.12884
1825.15858 2.13664
1823.11014 2.13966
1821.06170 2.13834
1819.01326 2.13444
1816.96482 2.12838
1814.91639 2.12020
1812.86795 2.11243
1810.81951 2.10663
1808.77107 2.10216
1806.72263 2.09850
1804.67419 2.09545
1802.62575 2.09351
1800.57732 2.09449
1798.52888 2.09807
1796.48044 2.10182
1794.43200 2.10727
1792.38356 2.11518
1790.33512 2.12126
1788.28669 2.12345
1786.23825 2.12602
1784.18981 2.13060
1782.14137 2.13545
1780.09293 2.14202
1778.04449 2.14911
1775.99606 2.15449
1773.94762 2.16039
1771.89918 2.16705
1769.85074 2.16982
1767.80230 2.17310
1765.75386 2.17680
1763.70543 2.17909
1761.65699 2.18296
1759.60855 2.18700
1757.56011 2.19051
1755.51167 2.19463
1753.46323 2.19773
1751.41480 2.20067
1749.36636 2.20729
1747.31792 2.21672
1745.26948 2.22406
1743.22104 2.22905
1741.17260 2.23585
1739.12417 2.24392
1737.07573 2.24762
1735.02729 2.25218
1732.97885 2.26229
1730.93041 2.26693
1728.88197 2.26882
1726.83354 2.27160
1724.78510 2.27444
1722.73666 2.28056
1720.68822 2.29121
1718.63978 2.30684
1716.59134 2.32067
1714.54291 2.32234
1712.49447 2.32747
1710.44603 2.33639
1708.39759 2.34521
1706.34915 2.35594
1704.30071 2.36773
1702.25228 2.37565
1700.20384 2.38458
1698.15540 2.39366
1696.10696 2.40435
1694.05852 2.41210
1692.01008 2.41522
1689.96165 2.42766
1687.91321 2.44264
1685.86477 2.44934
1683.81633 2.46359
1681.76789 2.48025
1679.71945 2.48685
1677.67102 2.48982
1675.62258 2.49422
1673.57414 2.50348
1671.52570 2.51331
1669.47726 2.52193
1667.42882 2.52819
1665.38038 2.53355
1663.33195 2.54440
1661.28351 2.55076
1659.23507 2.54901
1657.18663 2.54441
1655.13819 2.54428
1653.08975 2.56434
1651.04132 2.57529
1648.99288 2.58065
1646.94444 2.58391
1644.89600 2.56354
1642.84756 2.54239
1640.79912 2.53057
1638.75069 2.51816
1636.70225 2.50656
1634.65381 2.48602
1632.60537 2.45650
1630.55693 2.42850
1628.50849 2.39891
1626.46006 2.36484
1624.41162 2.32228
1622.36318 2.27402
1620.31474 2.23283
1618.26630 2.19287
1616.21786 2.13628
1614.16943 2.08380
1612.12099 2.03810
1610.07255 1.98814
1608.02411 1.93528
1605.97567 1.88606
1603.92723 1.83639
1601.87880 1.78159
1599.83036 1.72531
1597.78192 1.66730
1595.73348 1.60202
1593.68504 1.52889
1591.63660 1.45071
1589.58817 1.36383
1587.53973 1.26940
1585.49129 1.17155
1583.44285 1.07483
1581.39441 0.98818
1579.34597 0.91836
1577.29754 0.84184
1575.24910 0.74874
1573.20066 0.69295
1571.15222 0.65483
1569.10378 0.61473
1567.05534 0.58926
1565.00691 0.57553
1562.95847 0.56500
1560.91003 0.55590
1558.86159 0.54334
1556.81315 0.53716
1554.76471 0.53494
1552.71628 0.53168
1550.66784 0.52842
1548.61940 0.52545
1546.57096 0.52269
1544.52252 0.51940
1542.47408 0.51573
1540.42565 0.51425
1538.37721 0.51586
1536.32877 0.51525
1534.28033 0.51391
1532.23189 0.51333
1530.18345 0.51263
1528.13501 0.51144
1526.08658 0.51064
1524.03814 0.51002
1521.98970 0.51082
1519.94126 0.51416
1517.89282 0.51793
1515.84438 0.52373
1513.79595 0.52980
1511.74751 0.53572
1509.69907 0.54189
1507.65063 0.55833
1505.60219 0.59057
1503.55375 0.60449
1501.50532 0.61262
1499.45688 0.62236
1497.40844 0.63546
1495.36000 0.64782
1493.31156 0.65437
1491.26312 0.65918
1489.21469 0.66772
1487.16625 0.67620
1485.11781 0.68098
1483.06937 0.68462
1481.02093 0.68860
1478.97249 0.69222
1476.92406 0.69507
1474.87562 0.69809
1472.82718 0.70309
1470.77874 0.70860
1468.73030 0.71120
1466.68186 0.71362
1464.63343 0.71820
1462.58499 0.72246
1460.53655 0.72443
1458.48811 0.72755
1456.43967 0.73674
1454.39123 0.74311
1452.34280 0.74627
1450.29436 0.74938
1448.24592 0.75343
1446.19748 0.75775
1444.14904 0.76081
1442.10060 0.76240
1440.05217 0.76264
1438.00373 0.76213
1435.95529 0.76236
1433.90685 0.76249
1431.85841 0.76198
1429.80997 0.76191
1427.76154 0.76214
1425.71310 0.76276
1423.66466 0.76450
1421.61622 0.76721
1419.56778 0.77329
1417.51934 0.78587
1415.47091 0.79953
1413.42247 0.81611
1411.37403 0.83908
1409.32559 0.86472
1407.27715 0.88838
1405.22871 0.91299
1403.18028 0.93590
1401.13184 0.95252
1399.08340 0.96829
1397.03496 0.98476
1394.98652 1.00156
1392.93808 1.01703
1390.88965 1.02814
1388.84121 1.03849
1386.79277 1.05177
1384.74433 1.06390
1382.69589 1.07352
1380.64745 1.08290
1378.59901 1.09226
1376.55058 1.10108
1374.50214 1.11102
1372.45370 1.12123
1370.40526 1.12926
1368.35682 1.13732
1366.30838 1.14505
1364.25995 1.15242
1362.21151 1.16127
1360.16307 1.16987
1358.11463 1.17664
1356.06619 1.18324
1354.01775 1.19002
1351.96932 1.19657
1349.92088 1.20310
1347.87244 1.20946
1345.82400 1.21564
1343.77556 1.22129
1341.72712 1.22683
1339.67869 1.23321
1337.63025 1.24007
1335.58181 1.24565
1333.53337 1.25059
1331.48493 1.25535
1329.43649 1.26010
1327.38806 1.26504
1325.33962 1.27006
1323.29118 1.27493
1321.24274 1.27940
1319.19430 1.28406
1317.14586 1.28851
1315.09743 1.29257
1313.04899 1.29658
1311.00055 1.30068
1308.95211 1.30476
1306.90367 1.30900
1304.85523 1.31312
1302.80680 1.31705
1300.75836 1.32096
1298.70992 1.32464
1296.66148 1.32819
1294.61304 1.33154
1292.56460 1.33478
1290.51617 1.33786
1288.46773 1.34099
1286.41929 1.34393
1284.37085 1.34663
1282.32241 1.34931
1280.27397 1.35228
1278.22554 1.35531
1276.17710 1.35804
1274.12866 1.36077
1272.08022 1.36358
1270.03178 1.36632
1267.98334 1.36839
1265.93491 1.37034
1263.88647 1.37292
1261.83803 1.37623
1259.78959 1.37993
1257.74115 1.38355
1255.69271 1.38654
1253.64428 1.38900
1251.59584 1.39146
1249.54740 1.39364
1247.49896 1.39547
1245.45052 1.39758
1243.40208 1.40016
1241.35364 1.40252
1239.30521 1.40472
1237.25677 1.40673
1235.20833 1.40856
1233.15989 1.41050
1231.11145 1.41229
1229.06301 1.41360
1227.01458 1.41494
1224.96614 1.41642
1222.91770 1.41754
1220.86926 1.41879
1218.82082 1.42044
1216.77238 1.42196
1214.72395 1.42321
1212.67551 1.42464
1210.62707 1.42623
1208.57863 1.42765
1206.53019 1.42902
1204.48175 1.43034
1202.43332 1.43144
1200.38488 1.43271
1198.33644 1.43452
1196.28800 1.43646
1194.23956 1.43842
1192.19112 1.44030
1190.14269 1.44176
1188.09425 1.44281
1186.04581 1.44358
1183.99737 1.44401
1181.94893 1.44455
1179.90049 1.44544
1177.85206 1.44642
1175.80362 1.44758
1173.75518 1.44909
1171.70674 1.45060
1169.65830 1.45173
1167.60986 1.45264
1165.56143 1.45330
1163.51299 1.45376
1161.46455 1.45477
1159.41611 1.45626
1157.36767 1.45760
1155.31923 1.45880
1153.27080 1.45978
1151.22236 1.46063
1149.17392 1.46148
1147.12548 1.46216
1145.07704 1.46304
1143.02860 1.46434
1140.98017 1.46509
1138.93173 1.46503
1136.88329 1.46532
1134.83485 1.46628
1132.78641 1.46697
1130.73797 1.46714
1128.68954 1.46735
1126.64110 1.46768
1124.59266 1.46820
1122.54422 1.46906
1120.49578 1.46994
1118.44734 1.47029
1116.39891 1.47006
1114.35047 1.46982
1112.30203 1.47004
1110.25359 1.47035
1108.20515 1.47064
1106.15671 1.47120
1104.10827 1.47216
1102.05984 1.47306
1100.01140 1.47276
1097.96296 1.47156
1095.91452 1.47052
1093.86608 1.47028
1091.81764 1.47095
1089.76921 1.47183
1087.72077 1.47249
1085.67233 1.47339
1083.62389 1.47493
1081.57545 1.47735
1079.52701 1.48060
1077.47858 1.48381
1075.43014 1.48665
1073.38170 1.48941
1071.33326 1.49161
1069.28482 1.49260
1067.23638 1.49365
1065.18795 1.49564
1063.13951 1.49753
1061.09107 1.49860
1059.04263 1.49958
1056.99419 1.50117
1054.94575 1.50185
1052.89732 1.50081
1050.84888 1.49961
1048.80044 1.49940
1046.75200 1.49948
1044.70356 1.49924
1042.65512 1.49874
1040.60669 1.49800
1038.55825 1.49748
1036.50981 1.49701
1034.46137 1.49588
1032.41293 1.49435
1030.36449 1.49332
1028.31606 1.49289
1026.26762 1.49233
1024.21918 1.49125
1022.17074 1.49048
1020.12230 1.49082
1018.07386 1.49264
1016.02543 1.49657
1013.97699 1.50259
1011.92855 1.50958
1009.88011 1.51679
1007.83167 1.52447
1005.78323 1.53261
1003.73480 1.54100
1001.68636 1.54917
999.63792 1.55666
997.58948 1.56378
995.54104 1.57047
993.49260 1.57567
991.44417 1.57915
989.39573 1.58226
987.34729 1.58598
985.29885 1.58967
983.25041 1.59315
981.20197 1.59717
979.15354 1.60197
977.10510 1.60719
975.05666 1.61142
973.00822 1.61390
970.95978 1.61609
968.91134 1.61951
966.86290 1.62359
964.81447 1.62750
962.76603 1.63126
960.71759 1.63488
958.66915 1.63889
956.62071 1.64324
954.57227 1.64696
952.52384 1.65010
950.47540 1.65288
948.42696 1.65542
946.37852 1.65792
944.33008 1.66051
942.28164 1.66349
940.23321 1.66667
938.18477 1.67049
936.13633 1.67517
934.08789 1.67970
932.03945 1.68374
929.99101 1.68759
927.94258 1.69074
925.89414 1.69298
923.84570 1.69540
921.79726 1.69905
919.74882 1.70386
917.70038 1.70942
915.65195 1.71505
913.60351 1.71799
911.55507 1.71448
909.50663 1.69951
907.45819 1.66294
905.40975 1.58310
903.36132 1.42234
901.31288 1.19775
899.26444 1.00251
897.21600 0.88810
895.16756 0.84204
893.11912 0.83031
891.07069 0.83106
889.02225 0.83762
886.97381 0.85010
884.92537 0.87482
882.87693 0.92272
880.82849 0.99731
878.78006 1.08087
876.73162 1.14869
874.68318 1.19926
872.63474 1.24387
870.58630 1.28630
868.53786 1.32595
866.48943 1.36171
864.44099 1.39265
862.39255 1.41773
860.34411 1.43713
858.29567 1.45350
856.24723 1.46990
854.19880 1.48359
852.15036 1.48860
850.10192 1.48912
848.05348 1.49367
846.00504 1.50219
843.95660 1.51071
841.90817 1.51822
839.85973 1.52483
837.81129 1.52957
835.76285 1.53181
833.71441 1.53356
831.66597 1.53763
829.61753 1.54323
827.56910 1.54738
825.52066 1.54958
823.47222 1.55282
821.42378 1.55812
819.37534 1.56252
817.32690 1.56414
815.27847 1.56449
813.23003 1.56576
811.18159 1.56756
809.13315 1.56935
807.08471 1.57216
805.03627 1.57694
802.98784 1.58251
800.93940 1.58629
798.89096 1.58860
796.84252 1.59101
794.79408 1.59453
792.74564 1.59987
790.69721 1.60496
788.64877 1.60832
786.60033 1.61245
784.55189 1.61790
782.50345 1.62241
780.45501 1.62619
778.40658 1.63032
776.35814 1.63371
774.30970 1.63652
772.26126 1.63937
770.21282 1.64246
768.16438 1.64664
766.11595 1.65058
764.06751 1.65576
762.01907 1.66451
759.97063 1.67299
757.92219 1.67857
755.87375 1.68509
753.82532 1.69370
751.77688 1.69959
749.72844 1.70387
747.68000 1.71372
745.63156 1.73055
743.58312 1.75218
741.53469 1.77948
739.48625 1.81452
737.43781 1.86393
735.38937 1.92669
733.34093 1.91973
731.29249 1.74611
729.24406 1.55184
727.19562 1.45705
725.14718 1.45096
723.09874 1.48072
721.05030 1.51180
719.00186 1.53854
716.95343 1.56074
714.90499 1.57749
712.85655 1.58961
710.80811 1.59705
708.75967 1.60365
706.71123 1.61325
704.66280 1.62299
702.61436 1.63011
700.56592 1.63452
698.51748 1.64028
696.46904 1.65059
694.42060 1.65916
692.37216 1.66269
690.32373 1.66481
688.27529 1.66609
686.22685 1.66697
684.17841 1.66891
682.12997 1.67482
680.08153 1.68425
678.03310 1.68963
675.98466 1.68887
673.93622 1.68784
671.88778 1.69048
669.83934 1.70023
667.79090 1.71958
665.74247 1.73048
663.69403 1.73321
661.64559 1.73541
659.59715 1.73637
657.54871 1.73311
655.50027 1.73094
653.45184 1.73280
651.40340 1.73362
649.35496 1.73308
647.30652 1.73357
645.25808 1.74215
643.20964 1.75153
641.16121 1.74847
639.11277 1.74947
637.06433 1.76738
635.01589 1.78556
632.96745 1.79161
630.91901 1.79822
628.87058 1.81026
626.82214 1.81295
624.77370 1.79671
622.72526 1.76922
620.67682 1.75648
618.62838 1.77901
616.57995 1.81685
614.53151 1.83842
612.48307 1.83867
610.43463 1.83576
608.38619 1.84656
606.33775 1.84280
604.28932 1.82755
602.24088 1.83190
600.19244 1.84378
598.14400 1.85289
