3996.50324 1.34223
3994.45480 1.34335
3992.40636 1.34511
3990.35792 1.34737
3988.30948 1.34901
3986.26104 1.34927
3984.21261 1.34921
3982.16417 1.34982
3980.11573 1.35082
3978.06729 1.35144
3976.01885 1.35160
3973.97041 1.35178
3971.92198 1.35184
3969.87354 1.35158
3967.82510 1.35084
3965.77666 1.34998
3963.72822 1.34908
3961.67978 1.34743
3959.63135 1.34506
3957.58291 1.34287
3955.53447 1.34111
3953.48603 1.33919
3951.43759 1.33690
3949.38915 1.33479
3947.34072 1.33230
3945.29228 1.32846
3943.24384 1.32434
3941.19540 1.32114
3939.14696 1.31845
3937.09852 1.31542
3935.05009 1.31148
3933.00165 1.30755
3930.95321 1.30509
3928.90477 1.30279
3926.85633 1.29999
3924.80789 1.29769
3922.75946 1.29526
3920.71102 1.29193
3918.66258 1.28872
3916.61414 1.28707
3914.56570 1.28640
3912.51726 1.28524
3910.46883 1.28376
3908.42039 1.28151
3906.37195 1.27791
3904.32351 1.27524
3902.27507 1.27520
3900.22663 1.27629
3898.17820 1.27858
3896.12976 1.27935
3894.08132 1.27715
3892.03288 1.27509
3889.98444 1.27540
3887.93600 1.27474
3885.88756 1.27372
3883.83913 1.27354
3881.79069 1.27247
3879.74225 1.27292
3877.69381 1.27340
3875.64537 1.27216
3873.59693 1.27163
3871.54850 1.27223
3869.50006 1.27387
3867.45162 1.27360
3865.40318 1.27129
3863.35474 1.27160
3861.30630 1.27243
3859.25787 1.27026
3857.20943 1.26658
3855.16099 1.26337
3853.11255 1.26655
3851.06411 1.27200
3849.01567 1.27194
3846.96724 1.27017
3844.91880 1.26850
3842.87036 1.26699
3840.82192 1.26479
3838.77348 1.26423
3836.72504 1.26774
3834.67661 1.26988
3832.62817 1.26918
3830.57973 1.26774
3828.53129 1.26682
3826.48285 1.26693
3824.43441 1.26636
3822.38598 1.26505
3820.33754 1.26703
3818.28910 1.26808
3816.24066 1.26819
3814.19222 1.26992
3812.14378 1.26922
3810.09535 1.26659
3808.04691 1.26516
3805.99847 1.26678
3803.95003 1.26737
3801.90159 1.26765
3799.85315 1.26928
3797.80472 1.26904
3795.75628 1.26987
3793.70784 1.27076
3791.65940 1.26988
3789.61096 1.26905
3787.56252 1.26863
3785.51409 1.26851
3783.46565 1.26858
3781.41721 1.26809
3779.36877 1.26908
3777.32033 1.27100
3775.27189 1.27063
3773.22346 1.26894
3771.17502 1.26816
3769.12658 1.26942
3767.07814 1.27057
3765.02970 1.27110
3762.98126 1.27062
3760.93283 1.26927
3758.88439 1.26999
3756.83595 1.27108
3754.78751 1.26905
3752.73907 1.26609
3750.69063 1.26933
3748.64219 1.27490
3746.59376 1.27402
3744.54532 1.27530
3742.49688 1.28028
3740.44844 1.28059
3738.40000 1.27774
3736.35156 1.27628
3734.30313 1.27935
3732.25469 1.28305
3730.20625 1.28396
3728.15781 1.28264
3726.10937 1.28195
3724.06093 1.28408
3722.01250 1.28690
3719.96406 1.28830
3717.91562 1.28791
3715.86718 1.28594
3713.81874 1.28312
3711.77030 1.28246
3709.72187 1.28573
3707.67343 1.28725
3705.62499 1.28615
3703.57655 1.28436
3701.52811 1.28441
3699.47967 1.28541
3697.43124 1.28528
3695.38280 1.28481
3693.33436 1.28350
3691.28592 1.28151
3689.23748 1.28397
3687.18904 1.28939
3685.14061 1.29044
3683.09217 1.28922
3681.04373 1.28834
3678.99529 1.28770
3676.94685 1.28775
3674.89841 1.29227
3672.84998 1.29408
3670.80154 1.29244
3668.75310 1.29593
3666.70466 1.29998
3664.65622 1.30098
3662.60778 1.30171
3660.55935 1.30278
3658.51091 1.30356
3656.46247 1.30557
3654.41403 1.30768
3652.36559 1.30630
3650.31715 1.30382
3648.26872 1.31009
3646.22028 1.31822
3644.17184 1.32115
3642.12340 1.32297
3640.07496 1.32474
3638.02652 1.32578
3635.97809 1.32667
3633.92965 1.32817
3631.88121 1.32948
3629.83277 1.33133
3627.78433 1.33721
3625.73589 1.34119
3623.68746 1.34179
3621.63902 1.34127
3619.59058 1.34259
3617.54214 1.34668
3615.49370 1.34920
3613.44526 1.35094
3611.39682 1.35261
3609.34839 1.35316
3607.29995 1.35350
3605.25151 1.35326
3603.20307 1.35158
3601.15463 1.34949
3599.10619 1.34827
3597.05776 1.34755
3595.00932 1.34661
3592.96088 1.34525
3590.91244 1.34326
3588.86400 1.34099
3586.81556 1.34076
3584.76713 1.34191
3582.71869 1.34073
3580.67025 1.33803
3578.62181 1.33656
3576.57337 1.33645
3574.52493 1.33608
3572.47650 1.33513
3570.42806 1.33359
3568.37962 1.33188
3566.33118 1.33202
3564.28274 1.33307
3562.23430 1.33300
3560.18587 1.33261
3558.13743 1.33269
3556.08899 1.33273
3554.04055 1.33224
3551.99211 1.33206
3549.94367 1.33232
3547.89524 1.33225
3545.84680 1.33219
3543.79836 1.33277
3541.74992 1.33346
3539.70148 1.33382
3537.65304 1.33419
3535.60461 1.33496
3533.55617 1.33541
3531.50773 1.33534
3529.45929 1.33560
3527.41085 1.33637
3525.36241 1.33719
3523.31398 1.33802
3521.26554 1.33861
3519.21710 1.33874
3517.16866 1.33894
3515.12022 1.33967
3513.07178 1.34072
3511.02335 1.34197
3508.97491 1.34313
3506.92647 1.34335
3504.87803 1.34279
3502.82959 1.34265
3500.78115 1.34316
3498.73272 1.34382
3496.68428 1.34463
3494.63584 1.34590
3492.58740 1.34734
3490.53896 1.34793
3488.49052 1.34787
3486.44209 1.34816
3484.39365 1.34873
3482.34521 1.34921
3480.29677 1.34977
3478.24833 1.35055
3476.19989 1.35113
3474.15146 1.35144
3472.10302 1.35224
3470.05458 1.35326
3468.00614 1.35383
3465.95770 1.35430
3463.90926 1.35462
3461.86082 1.35482
3459.81239 1.35528
3457.76395 1.35555
3455.71551 1.35570
3453.66707 1.35608
3451.61863 1.35662
3449.57019 1.35737
3447.52176 1.35848
3445.47332 1.35968
3443.42488 1.36016
3441.37644 1.36042
3439.32800 1.36115
3437.27956 1.36189
3435.23113 1.36249
3433.18269 1.36312
3431.13425 1.36360
3429.08581 1.36398
3427.03737 1.36461
3424.98893 1.36523
3422.94050 1.36581
3420.89206 1.36659
3418.84362 1.36741
3416.79518 1.36833
3414.74674 1.36918
3412.69830 1.36966
3410.64987 1.37004
3408.60143 1.37038
3406.55299 1.37068
3404.50455 1.37105
3402.45611 1.37142
3400.40767 1.37165
3398.35924 1.37174
3396.31080 1.37189
3394.26236 1.37221
3392.21392 1.37269
3390.16548 1.37331
3388.11704 1.37406
3386.06861 1.37470
3384.02017 1.37506
3381.97173 1.37557
3379.92329 1.37634
3377.87485 1.37686
3375.82641 1.37720
3373.77798 1.37805
3371.72954 1.37917
3369.68110 1.37990
3367.63266 1.38001
3365.58422 1.37990
3363.53578 1.38044
3361.48735 1.38104
3359.43891 1.38100
3357.39047 1.38089
3355.34203 1.38113
3353.29359 1.38178
3351.24515 1.38246
3349.19672 1.38279
3347.14828 1.38299
3345.09984 1.38341
3343.05140 1.38426
3341.00296 1.38514
3338.95452 1.38526
3336.90609 1.38475
3334.85765 1.38447
3332.80921 1.38514
3330.76077 1.38654
3328.71233 1.38765
3326.66389 1.38797
3324.61545 1.38791
3322.56702 1.38783
3320.51858 1.38789
3318.47014 1.38817
3316.42170 1.38838
3314.37326 1.38839
3312.32482 1.38857
3310.27639 1.38943
3308.22795 1.39089
3306.17951 1.39215
3304.13107 1.39327
3302.08263 1.39437
3300.03419 1.39517
3297.98576 1.39601
3295.93732 1.39702
3293.88888 1.39814
3291.84044 1.39900
3289.79200 1.39902
3287.74356 1.39904
3285.69513 1.39992
3283.64669 1.40137
3281.59825 1.40224
3279.54981 1.40201
3277.50137 1.40178
3275.45293 1.40190
3273.40450 1.40165
3271.35606 1.40136
3269.30762 1.40201
3267.25918 1.40327
3265.21074 1.40392
3263.16230 1.40402
3261.11387 1.40457
3259.06543 1.40584
3257.01699 1.40705
3254.96855 1.40756
3252.92011 1.40817
3250.87167 1.40971
3248.82324 1.41151
3246.77480 1.41252
3244.72636 1.41268
3242.67792 1.41247
3240.62948 1.41248
3238.58104 1.41291
3236.53261 1.41297
3234.48417 1.41226
3232.43573 1.41127
3230.38729 1.41052
3228.33885 1.40991
3226.29041 1.40915
3224.24198 1.40907
3222.19354 1.41016
3220.14510 1.41114
3218.09666 1.41130
3216.04822 1.41145
3213.99978 1.41194
3211.95135 1.41241
3209.90291 1.41275
3207.85447 1.41298
3205.80603 1.41327
3203.75759 1.41372
3201.70915 1.41392
3199.66072 1.41389
3197.61228 1.41420
3195.56384 1.41490
3193.51540 1.41541
3191.46696 1.41560
3189.41852 1.41586
3187.37008 1.41612
3185.32165 1.41561
3183.27321 1.41459
3181.22477 1.41454
3179.17633 1.41500
3177.12789 1.41446
3175.07945 1.41310
3173.03102 1.41175
3170.98258 1.41113
3168.93414 1.41102
3166.88570 1.41062
3164.83726 1.41018
3162.78882 1.41040
3160.74039 1.41131
3158.69195 1.41166
3156.64351 1.41076
3154.59507 1.40969
3152.54663 1.40962
3150.49819 1.41084
3148.44976 1.41274
3146.40132 1.41453
3144.35288 1.41531
3142.30444 1.41453
3140.25600 1.41338
3138.20756 1.41400
3136.15913 1.41669
3134.11069 1.41913
3132.06225 1.41923
3130.01381 1.41820
3127.96537 1.41853
3125.91693 1.41980
3123.86850 1.41994
3121.82006 1.41854
3119.77162 1.41691
3117.72318 1.41637
3115.67474 1.41754
3113.62630 1.41995
3111.57787 1.42174
3109.52943 1.42217
3107.48099 1.42307
3105.43255 1.42529
3103.38411 1.42712
3101.33567 1.42676
3099.28724 1.42575
3097.23880 1.42696
3095.19036 1.42960
3093.14192 1.43061
3091.09348 1.42964
3089.04504 1.42913
3086.99661 1.42983
3084.94817 1.43030
3082.89973 1.43069
3080.85129 1.43156
3078.80285 1.43285
3076.75441 1.43554
3074.70598 1.43943
3072.65754 1.44263
3070.60910 1.44363
3068.56066 1.44272
3066.51222 1.44301
3064.46378 1.44609
3062.41535 1.44967
3060.36691 1.45193
3058.31847 1.45279
3056.27003 1.45306
3054.22159 1.45367
3052.17315 1.45484
3050.12471 1.45670
3048.07628 1.45891
3046.02784 1.46052
3043.97940 1.46144
3041.93096 1.46327
3039.88252 1.46722
3037.83408 1.47141
3035.78565 1.47374
3033.73721 1.47569
3031.68877 1.47849
3029.64033 1.48098
3027.59189 1.48199
3025.54345 1.48086
3023.49502 1.47896
3021.44658 1.47762
3019.39814 1.47612
3017.34970 1.47447
3015.30126 1.47291
3013.25282 1.47189
3011.20439 1.47249
3009.15595 1.47466
3007.10751 1.47720
3005.05907 1.47827
3003.01063 1.47724
3000.96219 1.47571
2998.91376 1.47487
2996.86532 1.47494
2994.81688 1.47487
2992.76844 1.47406
2990.72000 1.47419
2988.67156 1.47564
2986.62313 1.47664
2984.57469 1.47573
2982.52625 1.47306
2980.47781 1.47064
2978.42937 1.47053
2976.38093 1.47183
2974.33250 1.47221
2972.28406 1.47195
2970.23562 1.47220
2968.18718 1.47294
2966.13874 1.47338
2964.09030 1.47273
2962.04187 1.47202
2959.99343 1.47225
2957.94499 1.47251
2955.89655 1.47239
2953.84811 1.47223
2951.79967 1.47251
2949.75124 1.47297
2947.70280 1.47273
2945.65436 1.47230
2943.60592 1.47255
2941.55748 1.47372
2939.50904 1.47483
2937.46061 1.47451
2935.41217 1.47334
2933.36373 1.47261
2931.31529 1.47186
2929.26685 1.47092
2927.21841 1.47065
2925.16998 1.47017
2923.12154 1.46908
2921.07310 1.46831
2919.02466 1.46768
2916.97622 1.46668
2914.92778 1.46620
2912.87934 1.46800
2910.83091 1.47178
2908.78247 1.47538
2906.73403 1.47721
2904.68559 1.47740
2902.63715 1.47755
2900.58871 1.47806
2898.54028 1.47788
2896.49184 1.47745
2894.44340 1.47781
2892.39496 1.47803
2890.34652 1.47737
2888.29808 1.47682
2886.24965 1.47701
2884.20121 1.47717
2882.15277 1.47663
2880.10433 1.47590
2878.05589 1.47531
2876.00745 1.47429
2873.95902 1.47299
2871.91058 1.47255
2869.86214 1.47304
2867.81370 1.47346
2865.76526 1.47348
2863.71682 1.47275
2861.66839 1.47101
2859.61995 1.46919
2857.57151 1.46806
2855.52307 1.46736
2853.47463 1.46672
2851.42619 1.46579
2849.37776 1.46454
2847.32932 1.46389
2845.28088 1.46403
2843.23244 1.46379
2841.18400 1.46238
2839.13556 1.46019
2837.08713 1.45821
2835.03869 1.45652
2832.99025 1.45490
2830.94181 1.45348
2828.89337 1.45215
2826.84493 1.45124
2824.79650 1.45079
2822.74806 1.45042
2820.69962 1.45080
2818.65118 1.45187
2816.60274 1.45181
2814.55430 1.45005
2812.50587 1.44736
2810.45743 1.44393
2808.40899 1.44021
2806.36055 1.43716
2804.31211 1.43489
2802.26367 1.43296
2800.21524 1.43135
2798.16680 1.42989
2796.11836 1.42853
2794.06992 1.42756
2792.02148 1.42681
2789.97304 1.42620
2787.92461 1.42577
2785.87617 1.42556
2783.82773 1.42533
2781.77929 1.42521
2779.73085 1.42547
2777.68241 1.42533
2775.63397 1.42456
2773.58554 1.42410
2771.53710 1.42379
2769.48866 1.42330
2767.44022 1.42326
2765.39178 1.42358
2763.34334 1.42377
2761.29491 1.42386
2759.24647 1.42423
2757.19803 1.42493
2755.14959 1.42525
2753.10115 1.42508
2751.05271 1.42507
2749.00428 1.42528
2746.95584 1.42551
2744.90740 1.42604
2742.85896 1.42684
2740.81052 1.42710
2738.76208 1.42668
2736.71365 1.42655
2734.66521 1.42706
2732.61677 1.42780
2730.56833 1.42858
2728.51989 1.42939
2726.47145 1.43022
2724.42302 1.43109
2722.37458 1.43227
2720.32614 1.43347
2718.27770 1.43428
2716.22926 1.43520
2714.18082 1.43619
2712.13239 1.43697
2710.08395 1.43824
2708.03551 1.44023
2705.98707 1.44226
2703.93863 1.44364
2701.89019 1.44488
2699.84176 1.44682
2697.79332 1.44891
2695.74488 1.45031
2693.69644 1.45134
2691.64800 1.45261
2689.59956 1.45406
2687.55113 1.45549
2685.50269 1.45707
2683.45425 1.45871
2681.40581 1.46031
2679.35737 1.46230
2677.30893 1.46469
2675.26050 1.46715
2673.21206 1.47028
2671.16362 1.47434
2669.11518 1.47833
2667.06674 1.48190
2665.01830 1.48533
2662.96987 1.48849
2660.92143 1.49116
2658.87299 1.49323
2656.82455 1.49497
2654.77611 1.49629
2652.72767 1.49682
2650.67924 1.49727
2648.63080 1.49814
2646.58236 1.49846
2644.53392 1.49820
2642.48548 1.49815
2640.43704 1.49864
2638.38860 1.50014
2636.34017 1.50157
2634.29173 1.50141
2632.24329 1.50069
2630.19485 1.50055
2628.14641 1.50034
2626.09797 1.49956
2624.04954 1.49870
2622.00110 1.49818
2619.95266 1.49769
2617.90422 1.49717
2615.85578 1.49658
2613.80734 1.49607
2611.75891 1.49625
2609.71047 1.49648
2607.66203 1.49630
2605.61359 1.49726
2603.56515 1.49901
2601.51671 1.49949
2599.46828 1.49980
2597.41984 1.50125
2595.37140 1.50313
2593.32296 1.50481
2591.27452 1.50548
2589.22608 1.50528
2587.17765 1.50548
2585.12921 1.50646
2583.08077 1.50740
2581.03233 1.50741
2578.98389 1.50691
2576.93545 1.50697
2574.88702 1.50735
2572.83858 1.50741
2570.79014 1.50740
2568.74170 1.50777
2566.69326 1.50876
2564.64482 1.51005
2562.59639 1.51113
2560.54795 1.51186
2558.49951 1.51217
2556.45107 1.51201
2554.40263 1.51175
2552.35419 1.51144
2550.30576 1.51108
2548.25732 1.51109
2546.20888 1.51109
2544.16044 1.51061
2542.11200 1.50975
2540.06356 1.50825
2538.01513 1.50676
2535.96669 1.50607
2533.91825 1.50563
2531.86981 1.50496
2529.82137 1.50413
2527.77293 1.50290
2525.72450 1.50098
2523.67606 1.49841
2521.62762 1.49601
2519.57918 1.49409
2517.53074 1.49240
2515.48230 1.49099
2513.43387 1.48952
2511.38543 1.48817
2509.33699 1.48759
2507.28855 1.48774
2505.24011 1.48803
2503.19167 1.48828
2501.14324 1.48870
2499.09480 1.48901
2497.04636 1.48905
2494.99792 1.48950
2492.94948 1.49052
2490.90104 1.49113
2488.85260 1.49089
2486.80417 1.49034
2484.75573 1.48979
2482.70729 1.48932
2480.65885 1.48912
2478.61041 1.48895
2476.56197 1.48860
2474.51354 1.48848
2472.46510 1.48859
2470.41666 1.48845
2468.36822 1.48790
2466.31978 1.48714
2464.27134 1.48615
2462.22291 1.48495
2460.17447 1.48365
2458.12603 1.48231
2456.07759 1.48117
2454.02915 1.48043
2451.98071 1.47956
2449.93228 1.47832
2447.88384 1.47715
2445.83540 1.47636
2443.78696 1.47612
2441.73852 1.47588
2439.69008 1.47518
2437.64165 1.47451
2435.59321 1.47414
2433.54477 1.47386
2431.49633 1.47367
2429.44789 1.47347
2427.39945 1.47318
2425.35102 1.47297
2423.30258 1.47282
2421.25414 1.47259
2419.20570 1.47222
2417.15726 1.47228
2415.10882 1.47262
2413.06039 1.47262
2411.01195 1.47277
2408.96351 1.47313
2406.91507 1.47295
2404.86663 1.47220
2402.81819 1.47123
2400.76976 1.47042
2398.72132 1.47007
2396.67288 1.47021
2394.62444 1.47069
2392.57600 1.47067
2390.52756 1.46984
2388.47913 1.46928
2386.43069 1.46941
2384.38225 1.46921
2382.33381 1.46841
2380.28537 1.46781
2378.23693 1.46792
2376.18850 1.46863
2374.14006 1.46930
2372.09162 1.46975
2370.04318 1.46974
2367.99474 1.46851
2365.94630 1.46507
2363.89787 1.46076
2361.84943 1.45907
2359.80099 1.45991
2357.75255 1.46210
2355.70411 1.46545
2353.65567 1.46928
2351.60723 1.47249
2349.55880 1.47344
2347.51036 1.47230
2345.46192 1.47118
2343.41348 1.47222
2341.36504 1.47440
2339.31660 1.47616
2337.26817 1.47727
2335.21973 1.47791
2333.17129 1.47865
2331.12285 1.47876
2329.07441 1.47915
2327.02597 1.48128
2324.97754 1.48301
2322.92910 1.48380
2320.88066 1.48487
2318.83222 1.48591
2316.78378 1.48652
2314.73534 1.48682
2312.68691 1.48647
2310.63847 1.48584
2308.59003 1.48594
2306.54159 1.48564
2304.49315 1.48410
2302.44471 1.48266
2300.39628 1.48136
2298.34784 1.47946
2296.29940 1.47794
2294.25096 1.47772
2292.20252 1.47832
2290.15408 1.47906
2288.10565 1.48020
2286.05721 1.48237
2284.00877 1.48510
2281.96033 1.48746
2279.91189 1.48952
2277.86345 1.49173
2275.81502 1.49393
2273.76658 1.49616
2271.71814 1.49836
2269.66970 1.50000
2267.62126 1.50141
2265.57282 1.50328
2263.52439 1.50538
2261.47595 1.50732
2259.42751 1.50947
2257.37907 1.51137
2255.33063 1.51199
2253.28219 1.51213
2251.23376 1.51273
2249.18532 1.51311
2247.13688 1.51299
2245.08844 1.51227
2243.04000 1.51096
2240.99156 1.50992
2238.94313 1.50905
2236.89469 1.50802
2234.84625 1.50715
2232.79781 1.50592
2230.74937 1.50486
2228.70093 1.50529
2226.65250 1.50671
2224.60406 1.50823
2222.55562 1.51008
2220.50718 1.51223
2218.45874 1.51425
2216.41030 1.51600
2214.36186 1.51788
2212.31343 1.52017
2210.26499 1.52229
2208.21655 1.52405
2206.16811 1.52571
2204.11967 1.52683
2202.07123 1.52752
2200.02280 1.52873
2197.97436 1.53042
2195.92592 1.53202
2193.87748 1.53342
2191.82904 1.53508
2189.78060 1.53718
2187.73217 1.53933
2185.68373 1.54131
2183.63529 1.54289
2181.58685 1.54412
2179.53841 1.54569
2177.48997 1.54791
2175.44154 1.55016
2173.39310 1.55181
2171.34466 1.55276
2169.29622 1.55393
2167.24778 1.55555
2165.19934 1.55668
2163.15091 1.55708
2161.10247 1.55724
2159.05403 1.55772
2157.00559 1.55824
2154.95715 1.55839
2152.90871 1.55823
2150.86028 1.55796
2148.81184 1.55785
2146.76340 1.55776
2144.71496 1.55749
2142.66652 1.55702
2140.61808 1.55566
2138.56965 1.55322
2136.52121 1.55044
2134.47277 1.54780
2132.42433 1.54559
2130.37589 1.54399
2128.32745 1.54266
2126.27902 1.54095
2124.23058 1.53923
2122.18214 1.53801
2120.13370 1.53690
2118.08526 1.53580
2116.03682 1.53520
2113.98839 1.53453
2111.93995 1.53344
2109.89151 1.53306
2107.84307 1.53392
2105.79463 1.53478
2103.74619 1.53456
2101.69776 1.53462
2099.64932 1.53565
2097.60088 1.53697
2095.55244 1.53840
2093.50400 1.53947
2091.45556 1.54003
2089.40713 1.54042
2087.35869 1.54024
2085.31025 1.53971
2083.26181 1.53994
2081.21337 1.54104
2079.16493 1.54241
2077.11649 1.54348
2075.06806 1.54432
2073.01962 1.54512
2070.97118 1.54609
2068.92274 1.54755
2066.87430 1.54936
2064.82586 1.55099
2062.77743 1.55215
2060.72899 1.55313
2058.68055 1.55400
2056.63211 1.55488
2054.58367 1.55624
2052.53523 1.55767
2050.48680 1.55852
2048.43836 1.55925
2046.38992 1.56028
2044.34148 1.56117
2042.29304 1.56177
2040.24460 1.56251
2038.19617 1.56330
2036.14773 1.56416
2034.09929 1.56564
2032.05085 1.56749
2030.00241 1.56906
2027.95397 1.57048
2025.90554 1.57195
2023.85710 1.57287
2021.80866 1.57360
2019.76022 1.57497
2017.71178 1.57681
2015.66334 1.57856
2013.61491 1.57984
2011.56647 1.58089
2009.51803 1.58191
2007.46959 1.58265
2005.42115 1.58304
2003.37271 1.58356
2001.32428 1.58450
1999.27584 1.58609
1997.22740 1.58776
1995.17896 1.58859
1993.13052 1.58977
1991.08208 1.59214
1989.03365 1.59472
1986.98521 1.59790
1984.93677 1.60194
1982.88833 1.60625
1980.83989 1.61050
1978.79145 1.61530
1976.74302 1.62093
1974.69458 1.62525
1972.64614 1.62615
1970.59770 1.62421
1968.54926 1.62210
1966.50082 1.62148
1964.45239 1.62188
1962.40395 1.62296
1960.35551 1.62442
1958.30707 1.62553
1956.25863 1.62709
1954.21019 1.62946
1952.16176 1.63165
1950.11332 1.63332
1948.06488 1.63463
1946.01644 1.63597
1943.96800 1.63763
1941.91956 1.63990
1939.87112 1.64235
1937.82269 1.64456
1935.77425 1.64646
1933.72581 1.64855
1931.67737 1.65151
1929.62893 1.65482
1927.58049 1.65765
1925.53206 1.66017
1923.48362 1.66275
1921.43518 1.66398
1919.38674 1.66461
1917.33830 1.66770
1915.28986 1.67197
1913.24143 1.67475
1911.19299 1.67680
1909.14455 1.67921
1907.09611 1.68279
1905.04767 1.68663
1902.99923 1.68999
1900.95080 1.69330
1898.90236 1.69640
1896.85392 1.69974
1894.80548 1.70313
1892.75704 1.70565
1890.70860 1.70776
1888.66017 1.71065
1886.61173 1.71362
1884.56329 1.71604
1882.51485 1.71795
1880.46641 1.72006
1878.41797 1.72324
1876.36954 1.72672
1874.32110 1.72962
1872.27266 1.73170
1870.22422 1.73380
1868.17578 1.73814
1866.12734 1.74390
1864.07891 1.74750
1862.03047 1.74996
1859.98203 1.75280
1857.93359 1.75637
1855.88515 1.76011
1853.83671 1.76380
1851.78828 1.76840
1849.73984 1.77342
1847.69140 1.77765
1845.64296 1.78174
1843.59452 1.78887
1841.54608 1.79595
1839.49765 1.80125
1837.44921 1.80686
1835.40077 1.81296
1833.35233 1.81831
1831.30389 1.82471
1829.25545 1.83345
1827.20702 1.83716
1825.15858 1.83572
1823.11014 1.83282
1821.06170 1.82863
1819.01326 1.82334
1816.96482 1.81864
1814.91639 1.81397
1812.86795 1.80813
1810.81951 1.80207
1808.77107 1.79787
1806.72263 1.79615
1804.67419 1.79639
1802.62575 1.79874
1800.57732 1.80426
1798.52888 1.81224
1796.48044 1.81957
1794.43200 1.82631
1792.38356 1.83439
1790.33512 1.84075
1788.28669 1.84314
1786.23825 1.84660
1784.18981 1.85277
1782.14137 1.85963
1780.09293 1.86592
1778.04449 1.87005
1775.99606 1.87479
1773.94762 1.88332
1771.89918 1.89384
1769.85074 1.89834
1767.80230 1.90028
1765.75386 1.90240
1763.70543 1.90456
1761.65699 1.90879
1759.60855 1.91242
1757.56011 1.91471
1755.51167 1.91843
1753.46323 1.92330
1751.41480 1.92968
1749.36636 1.93876
1747.31792 1.94611
1745.26948 1.95113
1743.22104 1.95615
1741.17260 1.96245
1739.12417 1.96921
1737.07573 1.97295
1735.02729 1.97742
1732.97885 1.98840
1730.93041 1.99899
1728.88197 2.00733
1726.83354 2.01415
1724.78510 2.02048
1722.73666 2.02702
1720.68822 2.03028
1718.63978 2.03357
1716.59134 2.04637
1714.54291 2.06014
1712.49447 2.07010
1710.44603 2.07892
1708.39759 2.08678
1706.34915 2.09588
1704.30071 2.10693
1702.25228 2.11662
1700.20384 2.13216
1698.15540 2.14951
1696.10696 2.16191
1694.05852 2.17392
1692.01008 2.18047
1689.96165 2.18744
1687.91321 2.19609
1685.86477 2.20949
1683.81633 2.23292
1681.76789 2.24518
1679.71945 2.24984
1677.67102 2.25651
1675.62258 2.26798
1673.57414 2.28204
1671.52570 2.29407
1669.47726 2.30830
1667.42882 2.32086
1665.38038 2.32595
1663.33195 2.33421
1661.28351 2.34557
1659.23507 2.35421
1657.18663 2.35800
1655.13819 2.36400
1653.08975 2.38217
1651.04132 2.37745
1648.99288 2.36676
1646.94444 2.36232
1644.89600 2.35870
1642.84756 2.34802
1640.79912 2.33776
1638.75069 2.32826
1636.70225 2.31843
1634.65381 2.28506
1632.60537 2.24846
1630.55693 2.21882
1628.50849 2.18606
1626.46006 2.14986
1624.41162 2.10550
1622.36318 2.05309
1620.31474 2.01121
1618.26630 1.97020
1616.21786 1.90367
1614.16943 1.84438
1612.12099 1.79750
1610.07255 1.74647
1608.02411 1.69128
1605.97567 1.63852
1603.92723 1.58403
1601.87880 1.52365
1599.83036 1.46230
1597.78192 1.40017
1595.73348 1.33130
1593.68504 1.25489
1591.63660 1.17355
1589.58817 1.08411
1587.53973 0.98902
1585.49129 0.89208
1583.44285 0.79604
1581.39441 0.70842
1579.34597 0.63646
1577.29754 0.55677
1575.24910 0.46001
1573.20066 0.40184
1571.15222 0.36037
1569.10378 0.31512
1567.05534 0.28678
1565.00691 0.27228
1562.95847 0.26163
1560.91003 0.25274
1558.86159 0.23882
1556.81315 0.23117
1554.76471 0.22932
1552.71628 0.22668
1550.66784 0.22407
1548.61940 0.22176
1546.57096 0.21976
1544.52252 0.21724
1542.47408 0.21400
1540.42565 0.21183
1538.37721 0.21331
1536.32877 0.21348
1534.28033 0.21217
1532.23189 0.21088
1530.18345 0.21022
1528.13501 0.20931
1526.08658 0.20840
1524.03814 0.20764
1521.98970 0.20776
1519.94126 0.21009
1517.89282 0.21315
1515.84438 0.21773
1513.79595 0.22265
1511.74751 0.22755
1509.69907 0.23257
1507.65063 0.24674
1505.60219 0.27643
1503.55375 0.29101
1501.50532 0.30043
1499.45688 0.31122
1497.40844 0.32475
1495.36000 0.33721
1493.31156 0.34417
1491.26312 0.34924
1489.21469 0.35719
1487.16625 0.36519
1485.11781 0.37014
1483.06937 0.37393
1481.02093 0.37776
1478.97249 0.38117
1476.92406 0.38387
1474.87562 0.38667
1472.82718 0.39110
1470.77874 0.39620
1468.73030 0.39898
1466.68186 0.40124
1464.63343 0.40469
1462.58499 0.40799
1460.53655 0.40967
1458.48811 0.41175
1456.43967 0.41835
1454.39123 0.42392
1452.34280 0.42708
1450.29436 0.42978
1448.24592 0.43286
1446.19748 0.43606
1444.14904 0.43840
1442.10060 0.43957
1440.05217 0.43966
1438.00373 0.43912
1435.95529 0.43938
1433.90685 0.44016
1431.85841 0.44068
1429.80997 0.44174
1427.76154 0.44346
1425.71310 0.44631
1423.66466 0.45167
1421.61622 0.45962
1419.56778 0.47408
1417.51934 0.49763
1415.47091 0.51821
1413.42247 0.53737
1411.37403 0.55878
1409.32559 0.57932
1407.27715 0.59680
1405.22871 0.61535
1403.18028 0.63374
1401.13184 0.64833
1399.08340 0.66338
1397.03496 0.67986
1394.98652 0.69741
1392.93808 0.71439
1390.88965 0.72750
1388.84121 0.73994
1386.79277 0.75489
1384.74433 0.76812
1382.69589 0.77871
1380.64745 0.78901
1378.59901 0.79914
1376.55058 0.80846
1374.50214 0.81865
1372.45370 0.82907
1370.40526 0.83738
1368.35682 0.84552
1366.30838 0.85293
1364.25995 0.85988
1362.21151 0.86842
1360.16307 0.87673
1358.11463 0.88308
1356.06619 0.88947
1354.01775 0.89633
1351.96932 0.90275
1349.92088 0.90884
1347.87244 0.91504
1345.82400 0.92116
1343.77556 0.92631
1341.72712 0.93097
1339.67869 0.93650
1337.63025 0.94293
1335.58181 0.94825
1333.53337 0.95273
1331.48493 0.95685
1329.43649 0.96096
1327.38806 0.96525
1325.33962 0.96970
1323.29118 0.97425
1321.24274 0.97839
1319.19430 0.98237
1317.14586 0.98612
1315.09743 0.98990
1313.04899 0.99409
1311.00055 0.99856
1308.95211 1.00272
1306.90367 1.00673
1304.85523 1.01036
1302.80680 1.01337
1300.75836 1.01611
1298.70992 1.01873
1296.66148 1.02138
1294.61304 1.02397
1292.56460 1.02698
1290.51617 1.03048
1288.46773 1.03401
1286.41929 1.03698
1284.37085 1.03978
1282.32241 1.04265
1280.27397 1.04518
1278.22554 1.04708
1276.17710 1.04877
1274.12866 1.05097
1272.08022 1.05336
1270.03178 1.05541
1267.98334 1.05723
1265.93491 1.05976
1263.88647 1.06301
1261.83803 1.06655
1259.78959 1.06980
1257.74115 1.07264
1255.69271 1.07538
1253.64428 1.07817
1251.59584 1.08070
1249.54740 1.08235
1247.49896 1.08329
1245.45052 1.08426
1243.40208 1.08586
1241.35364 1.08808
1239.30521 1.09082
1237.25677 1.09336
1235.20833 1.09519
1233.15989 1.09657
1231.11145 1.09789
1229.06301 1.09936
1227.01458 1.10112
1224.96614 1.10319
1222.91770 1.10504
1220.86926 1.10632
1218.82082 1.10708
1216.77238 1.10786
1214.72395 1.10913
1212.67551 1.11093
1210.62707 1.11292
1208.57863 1.11464
1206.53019 1.11594
1204.48175 1.11702
1202.43332 1.11816
1200.38488 1.11955
1198.33644 1.12151
1196.28800 1.12398
1194.23956 1.12634
1192.19112 1.12815
1190.14269 1.12946
1188.09425 1.13026
1186.04581 1.13066
1183.99737 1.13095
1181.94893 1.13161
1179.90049 1.13289
1177.85206 1.13455
1175.80362 1.13636
1173.75518 1.13828
1171.70674 1.13971
1169.65830 1.14001
1167.60986 1.13944
1165.56143 1.13891
1163.51299 1.13934
1161.46455 1.14110
1159.41611 1.14375
1157.36767 1.14647
1155.31923 1.14854
1153.27080 1.14953
1151.22236 1.14978
1149.17392 1.14992
1147.12548 1.15033
1145.07704 1.15107
1143.02860 1.15217
1140.98017 1.15379
1138.93173 1.15581
1136.88329 1.15775
1134.83485 1.15923
1132.78641 1.16018
1130.73797 1.16072
1128.68954 1.16071
1126.64110 1.16022
1124.59266 1.15994
1122.54422 1.16007
1120.49578 1.16060
1118.44734 1.16163
1116.39891 1.16313
1114.35047 1.16499
1112.30203 1.16698
1110.25359 1.16867
1108.20515 1.16958
1106.15671 1.16965
1104.10827 1.16954
1102.05984 1.16952
1100.01140 1.16932
1097.96296 1.16967
1095.91452 1.17122
1093.86608 1.17367
1091.81764 1.17643
1089.76921 1.17896
1087.72077 1.18088
1085.67233 1.18187
1083.62389 1.18204
1081.57545 1.18198
1079.52701 1.18203
1077.47858 1.18246
1075.43014 1.18399
1073.38170 1.18650
1071.33326 1.18960
1069.28482 1.19319
1067.23638 1.19670
1065.18795 1.19918
1063.13951 1.20052
1061.09107 1.20145
1059.04263 1.20203
1056.99419 1.20215
1054.94575 1.20243
1052.89732 1.20347
1050.84888 1.20484
1048.80044 1.20616
1046.75200 1.20743
1044.70356 1.20878
1042.65512 1.21008
1040.60669 1.21136
1038.55825 1.21252
1036.50981 1.21301
1034.46137 1.21311
1032.41293 1.21366
1030.36449 1.21462
1028.31606 1.21546
1026.26762 1.21624
1024.21918 1.21709
1022.17074 1.21796
1020.12230 1.21895
1018.07386 1.22090
1016.02543 1.22443
1013.97699 1.22929
1011.92855 1.23492
1009.88011 1.24072
1007.83167 1.24653
1005.78323 1.25195
1003.73480 1.25624
1001.68636 1.25936
999.63792 1.26193
997.58948 1.26417
995.54104 1.26637
993.49260 1.26935
991.44417 1.27375
989.39573 1.27923
987.34729 1.28504
985.29885 1.29064
983.25041 1.29560
981.20197 1.29962
979.15354 1.30250
977.10510 1.30429
975.05666 1.30510
973.00822 1.30555
970.95978 1.30612
968.91134 1.30700
966.86290 1.30846
964.81447 1.31115
962.76603 1.31541
960.71759 1.32071
958.66915 1.32601
956.62071 1.33092
954.57227 1.33583
952.52384 1.33991
950.47540 1.34256
948.42696 1.34405
946.37852 1.34528
944.33008 1.34733
942.28164 1.35017
940.23321 1.35342
938.18477 1.35741
936.13633 1.36236
934.08789 1.36806
932.03945 1.37368
929.99101 1.37906
927.94258 1.38500
925.89414 1.39158
923.84570 1.39845
921.79726 1.40549
919.74882 1.41290
917.70038 1.41948
915.65195 1.42378
913.60351 1.42539
911.55507 1.42317
909.50663 1.41353
907.45819 1.38690
905.40975 1.31786
903.36132 1.16167
901.31288 0.92599
899.26444 0.70934
897.21600 0.57547
895.16756 0.51726
893.11912 0.49904
891.07069 0.49494
889.02225 0.49727
886.97381 0.50873
884.92537 0.54148
882.87693 0.60865
880.82849 0.70463
878.78006 0.80176
876.73162 0.87754
874.68318 0.93295
872.63474 0.97752
870.58630 1.01624
868.53786 1.05027
866.48943 1.07982
864.44099 1.10524
862.39255 1.12666
860.34411 1.14502
858.29567 1.16166
856.24723 1.17588
854.19880 1.18338
852.15036 1.18331
850.10192 1.18361
848.05348 1.18847
846.00504 1.19636
843.95660 1.20583
841.90817 1.21352
839.85973 1.21839
837.81129 1.22451
835.76285 1.23305
833.71441 1.24046
831.66597 1.24513
829.61753 1.24783
827.56910 1.24955
825.52066 1.25144
823.47222 1.25412
821.42378 1.25701
819.37534 1.26006
817.32690 1.26372
815.27847 1.26786
813.23003 1.27165
811.18159 1.27414
809.13315 1.27587
807.08471 1.27821
805.03627 1.28202
802.98784 1.28735
800.93940 1.29370
798.89096 1.29980
796.84252 1.30501
794.79408 1.30924
792.74564 1.31200
790.69721 1.31374
788.64877 1.31546
786.60033 1.31737
784.55189 1.31968
782.50345 1.32408
780.45501 1.32983
778.40658 1.33545
776.35814 1.34232
774.30970 1.34930
772.26126 1.35420
770.21282 1.35836
768.16438 1.36221
766.11595 1.36460
764.06751 1.36708
762.01907 1.37078
759.97063 1.37565
757.92219 1.38275
755.87375 1.39239
753.82532 1.40276
751.77688 1.41253
749.72844 1.42188
747.68000 1.43146
745.63156 1.44331
743.58312 1.45979
741.53469 1.48294
739.48625 1.51484
737.43781 1.55756
735.38937 1.59982
733.34093 1.56399
731.29249 1.39571
729.24406 1.22915
727.19562 1.15787
725.14718 1.16615
723.09874 1.20294
721.05030 1.23702
719.00186 1.26286
716.95343 1.28275
714.90499 1.29851
712.85655 1.30962
710.80811 1.31790
708.75967 1.32707
706.71123 1.33683
704.66280 1.34542
702.61436 1.35259
700.56592 1.35746
698.51748 1.36128
696.46904 1.36709
694.42060 1.37162
692.37216 1.37083
690.32373 1.37067
688.27529 1.37666
686.22685 1.38576
684.17841 1.39453
682.12997 1.40058
680.08153 1.40111
678.03310 1.39871
675.98466 1.39791
673.93622 1.39968
671.88778 1.40372
669.83934 1.40869
667.79090 1.41404
665.74247 1.41713
663.69403 1.41909
661.64559 1.42477
659.59715 1.43273
657.54871 1.43807
655.50027 1.44052
653.45184 1.43874
651.40340 1.43735
649.35496 1.44139
647.30652 1.44479
645.25808 1.44597
643.20964 1.45097
641.16121 1.46050
639.11277 1.46973
637.06433 1.47234
635.01589 1.46759
632.96745 1.46176
630.91901 1.45823
628.87058 1.45976
626.82214 1.46731
624.77370 1.47590
622.72526 1.48007
620.67682 1.47817
618.62838 1.48306
616.57995 1.50243
614.53151 1.51167
612.48307 1.50157
610.43463 1.50137
608.38619 1.51999
606.33775 1.53355
604.28932 1.53133
602.24088 1.52838
600.19244 1.51992
598.14400 1.49451
