3996.50324 1.62698
3994.45480 1.62908
3992.40636 1.63075
3990.35792 1.63108
3988.30948 1.63176
3986.26104 1.63273
3984.21261 1.63375
3982.16417 1.63451
3980.11573 1.63526
3978.06729 1.63690
3976.01885 1.63772
3973.97041 1.63701
3971.92198 1.63671
3969.87354 1.63600
3967.82510 1.63356
3965.77666 1.63172
3963.72822 1.63216
3961.67978 1.63318
3959.63135 1.63270
3957.58291 1.63025
3955.53447 1.62644
3953.48603 1.62341
3951.43759 1.62129
3949.38915 1.61772
3947.34072 1.61323
3945.29228 1.60935
3943.24384 1.60627
3941.19540 1.60369
3939.14696 1.60041
3937.09852 1.59569
3935.05009 1.58921
3933.00165 1.58291
3930.95321 1.57838
3928.90477 1.57306
3926.85633 1.56673
3924.80789 1.56224
3922.75946 1.55976
3920.71102 1.55628
3918.66258 1.55222
3916.61414 1.54964
3914.56570 1.54711
3912.51726 1.54379
3910.46883 1.54065
3908.42039 1.53609
3906.37195 1.52941
3904.32351 1.52677
3902.27507 1.53087
3900.22663 1.53457
3898.17820 1.53688
3896.12976 1.53471
3894.08132 1.52756
3892.03288 1.52372
3889.98444 1.52552
3887.93600 1.52222
3885.88756 1.51914
3883.83913 1.52118
3881.79069 1.52028
3879.74225 1.52172
3877.69381 1.52104
3875.64537 1.51471
3873.59693 1.51163
3871.54850 1.51284
3869.50006 1.51880
3867.45162 1.52209
3865.40318 1.51874
3863.35474 1.52036
3861.30630 1.52246
3859.25787 1.51654
3857.20943 1.50602
3855.16099 1.49693
3853.11255 1.50850
3851.06411 1.52519
3849.01567 1.52353
3846.96724 1.51648
3844.91880 1.51002
3842.87036 1.50669
3840.82192 1.50482
3838.77348 1.50706
3836.72504 1.51616
3834.67661 1.51998
3832.62817 1.51934
3830.57973 1.51900
3828.53129 1.51711
3826.48285 1.51544
3824.43441 1.51290
3822.38598 1.50962
3820.33754 1.51790
3818.28910 1.52228
3816.24066 1.51959
3814.19222 1.52231
3812.14378 1.52087
3810.09535 1.51420
3808.04691 1.51045
3805.99847 1.51453
3803.95003 1.51448
3801.90159 1.51514
3799.85315 1.52373
3797.80472 1.52442
3795.75628 1.52397
3793.70784 1.52432
3791.65940 1.52138
3789.61096 1.51826
3787.56252 1.51637
3785.51409 1.51628
3783.46565 1.51780
3781.41721 1.51813
3779.36877 1.52142
3777.32033 1.52673
3775.27189 1.52582
3773.22346 1.52063
3771.17502 1.51723
3769.12658 1.52099
3767.07814 1.52614
3765.02970 1.52843
3762.98126 1.52666
3760.93283 1.52077
3758.88439 1.52118
3756.83595 1.52780
3754.78751 1.52700
3752.73907 1.52073
3750.69063 1.52588
3748.64219 1.53762
3746.59376 1.53571
3744.54532 1.53680
3742.49688 1.54415
3740.44844 1.54152
3738.40000 1.53305
3736.35156 1.52996
3734.30313 1.54140
3732.25469 1.55259
3730.20625 1.55395
3728.15781 1.55057
3726.10937 1.54938
3724.06093 1.55398
3722.01250 1.55894
3719.96406 1.56103
3717.91562 1.56124
3715.86718 1.55952
3713.81874 1.55558
3711.77030 1.55603
3709.72187 1.56417
3707.67343 1.56740
3705.62499 1.56567
3703.57655 1.56205
3701.52811 1.56159
3699.47967 1.56507
3697.43124 1.56760
3695.38280 1.56892
3693.33436 1.56902
3691.28592 1.57014
3689.23748 1.57832
3687.18904 1.58556
3685.14061 1.58569
3683.09217 1.58424
3681.04373 1.58364
3678.99529 1.58435
3676.94685 1.58804
3674.89841 1.59879
3672.84998 1.60432
3670.80154 1.60486
3668.75310 1.60981
3666.70466 1.61242
3664.65622 1.61212
3662.60778 1.61295
3660.55935 1.61469
3658.51091 1.61696
3656.46247 1.62156
3654.41403 1.62532
3652.36559 1.62443
3650.31715 1.62362
3648.26872 1.63166
3646.22028 1.63894
3644.17184 1.64088
3642.12340 1.64226
3640.07496 1.64520
3638.02652 1.64811
3635.97809 1.64901
3633.92965 1.64875
3631.88121 1.64851
3629.83277 1.64967
3627.78433 1.65529
3625.73589 1.65802
3623.68746 1.65752
3621.63902 1.65852
3619.59058 1.66286
3617.54214 1.66811
3615.49370 1.67001
3613.44526 1.66884
3611.39682 1.66742
3609.34839 1.66748
3607.29995 1.66893
3605.25151 1.67038
3603.20307 1.67075
3601.15463 1.67023
3599.10619 1.66919
3597.05776 1.66812
3595.00932 1.66810
3592.96088 1.66908
3590.91244 1.66911
3588.86400 1.66844
3586.81556 1.66906
3584.76713 1.66988
3582.71869 1.66940
3580.67025 1.66960
3578.62181 1.67134
3576.57337 1.67203
3574.52493 1.67130
3572.47650 1.67019
3570.42806 1.66791
3568.37962 1.66674
3566.33118 1.67123
3564.28274 1.67509
3562.23430 1.67520
3560.18587 1.67429
3558.13743 1.67310
3556.08899 1.67249
3554.04055 1.67293
3551.99211 1.67370
3549.94367 1.67452
3547.89524 1.67640
3545.84680 1.67862
3543.79836 1.67825
3541.74992 1.67591
3539.70148 1.67467
3537.65304 1.67537
3535.60461 1.67768
3533.55617 1.68096
3531.50773 1.68250
3529.45929 1.68058
3527.41085 1.67853
3525.36241 1.68022
3523.31398 1.68353
3521.26554 1.68559
3519.21710 1.68597
3517.16866 1.68540
3515.12022 1.68517
3513.07178 1.68502
3511.02335 1.68437
3508.97491 1.68423
3506.92647 1.68487
3504.87803 1.68507
3502.82959 1.68583
3500.78115 1.68810
3498.73272 1.68980
3496.68428 1.69045
3494.63584 1.69100
3492.58740 1.69123
3490.53896 1.69122
3488.49052 1.69155
3486.44209 1.69177
3484.39365 1.69190
3482.34521 1.69262
3480.29677 1.69327
3478.24833 1.69278
3476.19989 1.69232
3474.15146 1.69319
3472.10302 1.69417
3470.05458 1.69494
3468.00614 1.69626
3465.95770 1.69724
3463.90926 1.69745
3461.86082 1.69821
3459.81239 1.69949
3457.76395 1.69944
3455.71551 1.69906
3453.66707 1.70019
3451.61863 1.70098
3449.57019 1.70100
3447.52176 1.70152
3445.47332 1.70141
3443.42488 1.70124
3441.37644 1.70239
3439.32800 1.70302
3437.27956 1.70263
3435.23113 1.70318
3433.18269 1.70398
3431.13425 1.70411
3429.08581 1.70471
3427.03737 1.70596
3424.98893 1.70721
3422.94050 1.70748
3420.89206 1.70686
3418.84362 1.70787
3416.79518 1.71061
3414.74674 1.71219
3412.69830 1.71215
3410.64987 1.71209
3408.60143 1.71192
3406.55299 1.71183
3404.50455 1.71286
3402.45611 1.71375
3400.40767 1.71372
3398.35924 1.71357
3396.31080 1.71264
3394.26236 1.71155
3392.21392 1.71281
3390.16548 1.71473
3388.11704 1.71417
3386.06861 1.71390
3384.02017 1.71603
3381.97173 1.71755
3379.92329 1.71767
3377.87485 1.71859
3375.82641 1.72016
3373.77798 1.72059
3371.72954 1.71999
3369.68110 1.71934
3367.63266 1.71875
3365.58422 1.71859
3363.53578 1.71956
3361.48735 1.72077
3359.43891 1.72161
3357.39047 1.72257
3355.34203 1.72287
3353.29359 1.72230
3351.24515 1.72182
3349.19672 1.72170
3347.14828 1.72175
3345.09984 1.72209
3343.05140 1.72247
3341.00296 1.72217
3338.95452 1.72212
3336.90609 1.72321
3334.85765 1.72440
3332.80921 1.72496
3330.76077 1.72535
3328.71233 1.72571
3326.66389 1.72587
3324.61545 1.72608
3322.56702 1.72679
3320.51858 1.72814
3318.47014 1.72926
3316.42170 1.72990
3314.37326 1.72996
3312.32482 1.72862
3310.27639 1.72692
3308.22795 1.72677
3306.17951 1.72797
3304.13107 1.72977
3302.08263 1.73103
3300.03419 1.73079
3297.98576 1.73111
3295.93732 1.73283
3293.88888 1.73401
3291.84044 1.73432
3289.79200 1.73426
3287.74356 1.73312
3285.69513 1.73147
3283.64669 1.73066
3281.59825 1.73043
3279.54981 1.73110
3277.50137 1.73218
3275.45293 1.73241
3273.40450 1.73214
3271.35606 1.73180
3269.30762 1.73193
3267.25918 1.73272
3265.21074 1.73392
3263.16230 1.73482
3261.11387 1.73440
3259.06543 1.73326
3257.01699 1.73250
3254.96855 1.73317
3252.92011 1.73497
3250.87167 1.73597
3248.82324 1.73668
3246.77480 1.73773
3244.72636 1.73747
3242.67792 1.73644
3240.62948 1.73590
3238.58104 1.73562
3236.53261 1.73609
3234.48417 1.73606
3232.43573 1.73459
3230.38729 1.73427
3228.33885 1.73567
3226.29041 1.73699
3224.24198 1.73709
3222.19354 1.73602
3220.14510 1.73554
3218.09666 1.73625
3216.04822 1.73694
3213.99978 1.73762
3211.95135 1.73792
3209.90291 1.73691
3207.85447 1.73593
3205.80603 1.73639
3203.75759 1.73715
3201.70915 1.73683
3199.66072 1.73674
3197.61228 1.73781
3195.56384 1.73819
3193.51540 1.73713
3191.46696 1.73522
3189.41852 1.73409
3187.37008 1.73553
3185.32165 1.73738
3183.27321 1.73674
3181.22477 1.73488
3179.17633 1.73424
3177.12789 1.73504
3175.07945 1.73647
3173.03102 1.73759
3170.98258 1.73724
3168.93414 1.73565
3166.88570 1.73422
3164.83726 1.73386
3162.78882 1.73419
3160.74039 1.73460
3158.69195 1.73492
3156.64351 1.73444
3154.59507 1.73333
3152.54663 1.73349
3150.49819 1.73532
3148.44976 1.73703
3146.40132 1.73788
3144.35288 1.73856
3142.30444 1.73783
3140.25600 1.73549
3138.20756 1.73579
3136.15913 1.73984
3134.11069 1.74326
3132.06225 1.74343
3130.01381 1.74193
3127.96537 1.74150
3125.91693 1.74235
3123.86850 1.74177
3121.82006 1.73822
3119.77162 1.73451
3117.72318 1.73398
3115.67474 1.73640
3113.62630 1.74034
3111.57787 1.74313
3109.52943 1.74323
3107.48099 1.74393
3105.43255 1.74617
3103.38411 1.74673
3101.33567 1.74508
3099.28724 1.74469
3097.23880 1.74739
3095.19036 1.75017
3093.14192 1.75057
3091.09348 1.74941
3089.04504 1.74847
3086.99661 1.74869
3084.94817 1.74909
3082.89973 1.74891
3080.85129 1.74857
3078.80285 1.74932
3076.75441 1.75258
3074.70598 1.75683
3072.65754 1.75936
3070.60910 1.75933
3068.56066 1.75764
3066.51222 1.75730
3064.46378 1.76012
3062.41535 1.76307
3060.36691 1.76400
3058.31847 1.76426
3056.27003 1.76504
3054.22159 1.76657
3052.17315 1.76731
3050.12471 1.76714
3048.07628 1.76771
3046.02784 1.76818
3043.97940 1.76849
3041.93096 1.77026
3039.88252 1.77415
3037.83408 1.77771
3035.78565 1.77822
3033.73721 1.77905
3031.68877 1.78292
3029.64033 1.78722
3027.59189 1.79046
3025.54345 1.79194
3023.49502 1.79187
3021.44658 1.79028
3019.39814 1.78594
3017.34970 1.78131
3015.30126 1.77875
3013.25282 1.77836
3011.20439 1.78087
3009.15595 1.78480
3007.10751 1.78689
3005.05907 1.78672
3003.01063 1.78636
3000.96219 1.78654
2998.91376 1.78539
2996.86532 1.78281
2994.81688 1.78148
2992.76844 1.78273
2990.72000 1.78531
2988.67156 1.78663
2986.62313 1.78577
2984.57469 1.78341
2982.52625 1.77988
2980.47781 1.77696
2978.42937 1.77660
2976.38093 1.77757
2974.33250 1.77780
2972.28406 1.77805
2970.23562 1.77901
2968.18718 1.77917
2966.13874 1.77881
2964.09030 1.77933
2962.04187 1.78044
2959.99343 1.78213
2957.94499 1.78398
2955.89655 1.78444
2953.84811 1.78361
2951.79967 1.78362
2949.75124 1.78368
2947.70280 1.78201
2945.65436 1.78017
2943.60592 1.78009
2941.55748 1.78204
2939.50904 1.78332
2937.46061 1.78250
2935.41217 1.78204
2933.36373 1.78258
2931.31529 1.78246
2929.26685 1.78203
2927.21841 1.78265
2925.16998 1.78408
2923.12154 1.78483
2921.07310 1.78373
2919.02466 1.78274
2916.97622 1.78319
2914.92778 1.78417
2912.87934 1.78563
2910.83091 1.78780
2908.78247 1.79045
2906.73403 1.79247
2904.68559 1.79367
2902.63715 1.79417
2900.58871 1.79377
2898.54028 1.79290
2896.49184 1.79241
2894.44340 1.79251
2892.39496 1.79181
2890.34652 1.78998
2888.29808 1.78936
2886.24965 1.79010
2884.20121 1.78928
2882.15277 1.78757
2880.10433 1.78739
2878.05589 1.78692
2876.00745 1.78409
2873.95902 1.78123
2871.91058 1.78053
2869.86214 1.78006
2867.81370 1.77812
2865.76526 1.77560
2863.71682 1.77395
2861.66839 1.77262
2859.61995 1.77103
2857.57151 1.77061
2855.52307 1.77162
2853.47463 1.77280
2851.42619 1.77283
2849.37776 1.77143
2847.32932 1.77025
2845.28088 1.76939
2843.23244 1.76764
2841.18400 1.76595
2839.13556 1.76451
2837.08713 1.76256
2835.03869 1.76022
2832.99025 1.75799
2830.94181 1.75711
2828.89337 1.75741
2826.84493 1.75714
2824.79650 1.75532
2822.74806 1.75298
2820.69962 1.75256
2818.65118 1.75378
2816.60274 1.75392
2814.55430 1.75226
2812.50587 1.74910
2810.45743 1.74488
2808.40899 1.74056
2806.36055 1.73641
2804.31211 1.73270
2802.26367 1.72924
2800.21524 1.72543
2798.16680 1.72201
2796.11836 1.71988
2794.06992 1.71838
2792.02148 1.71664
2789.97304 1.71521
2787.92461 1.71480
2785.87617 1.71458
2783.82773 1.71354
2781.77929 1.71195
2779.73085 1.71059
2777.68241 1.71002
2775.63397 1.70996
2773.58554 1.70997
2771.53710 1.70993
2769.48866 1.70991
2767.44022 1.70970
2765.39178 1.70887
2763.34334 1.70765
2761.29491 1.70671
2759.24647 1.70669
2757.19803 1.70709
2755.14959 1.70654
2753.10115 1.70537
2751.05271 1.70516
2749.00428 1.70587
2746.95584 1.70622
2744.90740 1.70638
2742.85896 1.70709
2740.81052 1.70771
2738.76208 1.70830
2736.71365 1.70975
2734.66521 1.71083
2732.61677 1.71062
2730.56833 1.71053
2728.51989 1.71192
2726.47145 1.71396
2724.42302 1.71544
2722.37458 1.71675
2720.32614 1.71813
2718.27770 1.71895
2716.22926 1.71932
2714.18082 1.72022
2712.13239 1.72212
2710.08395 1.72455
2708.03551 1.72700
2705.98707 1.72999
2703.93863 1.73329
2701.89019 1.73509
2699.84176 1.73626
2697.79332 1.73862
2695.74488 1.74089
2693.69644 1.74271
2691.64800 1.74489
2689.59956 1.74643
2687.55113 1.74719
2685.50269 1.74904
2683.45425 1.75204
2681.40581 1.75416
2679.35737 1.75573
2677.30893 1.75796
2675.26050 1.76079
2673.21206 1.76402
2671.16362 1.76715
2669.11518 1.77036
2667.06674 1.77396
2665.01830 1.77782
2662.96987 1.78121
2660.92143 1.78319
2658.87299 1.78426
2656.82455 1.78489
2654.77611 1.78536
2652.72767 1.78673
2650.67924 1.78903
2648.63080 1.79097
2646.58236 1.79155
2644.53392 1.79134
2642.48548 1.79221
2640.43704 1.79466
2638.38860 1.79652
2636.34017 1.79653
2634.29173 1.79586
2632.24329 1.79551
2630.19485 1.79578
2628.14641 1.79665
2626.09797 1.79719
2624.04954 1.79632
2622.00110 1.79481
2619.95266 1.79391
2617.90422 1.79326
2615.85578 1.79226
2613.80734 1.79105
2611.75891 1.78962
2609.71047 1.78808
2607.66203 1.78752
2605.61359 1.78876
2603.56515 1.79117
2601.51671 1.79391
2599.46828 1.79607
2597.41984 1.79693
2595.37140 1.79783
2593.32296 1.79914
2591.27452 1.79962
2589.22608 1.80005
2587.17765 1.80054
2585.12921 1.79982
2583.08077 1.79910
2581.03233 1.79948
2578.98389 1.79975
2576.93545 1.79936
2574.88702 1.79921
2572.83858 1.79962
2570.79014 1.80048
2568.74170 1.80186
2566.69326 1.80303
2564.64482 1.80362
2562.59639 1.80421
2560.54795 1.80490
2558.49951 1.80587
2556.45107 1.80710
2554.40263 1.80733
2552.35419 1.80665
2550.30576 1.80618
2548.25732 1.80556
2546.20888 1.80513
2544.16044 1.80547
2542.11200 1.80506
2540.06356 1.80300
2538.01513 1.80148
2535.96669 1.80175
2533.91825 1.80191
2531.86981 1.80082
2529.82137 1.79888
2527.77293 1.79663
2525.72450 1.79480
2523.67606 1.79259
2521.62762 1.78883
2519.57918 1.78412
2517.53074 1.78008
2515.48230 1.77717
2513.43387 1.77491
2511.38543 1.77326
2509.33699 1.77163
2507.28855 1.76951
2505.24011 1.76762
2503.19167 1.76674
2501.14324 1.76640
2499.09480 1.76573
2497.04636 1.76484
2494.99792 1.76406
2492.94948 1.76407
2490.90104 1.76517
2488.85260 1.76613
2486.80417 1.76549
2484.75573 1.76381
2482.70729 1.76304
2480.65885 1.76273
2478.61041 1.76120
2476.56197 1.75976
2474.51354 1.75979
2472.46510 1.76011
2470.41666 1.76009
2468.36822 1.76015
2466.31978 1.75984
2464.27134 1.75922
2462.22291 1.75892
2460.17447 1.75852
2458.12603 1.75779
2456.07759 1.75670
2454.02915 1.75513
2451.98071 1.75362
2449.93228 1.75302
2447.88384 1.75320
2445.83540 1.75248
2443.78696 1.75089
2441.73852 1.74984
2439.69008 1.74899
2437.64165 1.74789
2435.59321 1.74748
2433.54477 1.74740
2431.49633 1.74658
2429.44789 1.74580
2427.39945 1.74564
2425.35102 1.74541
2423.30258 1.74541
2421.25414 1.74602
2419.20570 1.74618
2417.15726 1.74601
2415.10882 1.74625
2413.06039 1.74606
2411.01195 1.74545
2408.96351 1.74555
2406.91507 1.74575
2404.86663 1.74453
2402.81819 1.74222
2400.76976 1.74056
2398.72132 1.73980
2396.67288 1.73892
2394.62444 1.73755
2392.57600 1.73533
2390.52756 1.73289
2388.47913 1.73162
2386.43069 1.73135
2384.38225 1.73117
2382.33381 1.73077
2380.28537 1.73031
2378.23693 1.73034
2376.18850 1.73120
2374.14006 1.73250
2372.09162 1.73426
2370.04318 1.73770
2367.99474 1.74104
2365.94630 1.74097
2363.89787 1.73924
2361.84943 1.73741
2359.80099 1.73622
2357.75255 1.73569
2355.70411 1.73789
2353.65567 1.74268
2351.60723 1.74701
2349.55880 1.74977
2347.51036 1.75083
2345.46192 1.75129
2343.41348 1.75229
2341.36504 1.75412
2339.31660 1.75482
2337.26817 1.75310
2335.21973 1.75225
2333.17129 1.75342
2331.12285 1.75316
2329.07441 1.75198
2327.02597 1.75459
2324.97754 1.75959
2322.92910 1.76255
2320.88066 1.76239
2318.83222 1.76039
2316.78378 1.75793
2314.73534 1.75619
2312.68691 1.75583
2310.63847 1.75611
2308.59003 1.75587
2306.54159 1.75396
2304.49315 1.74980
2302.44471 1.74422
2300.39628 1.73897
2298.34784 1.73547
2296.29940 1.73315
2294.25096 1.73095
2292.20252 1.72942
2290.15408 1.72966
2288.10565 1.73194
2286.05721 1.73499
2284.00877 1.73826
2281.96033 1.74234
2279.91189 1.74588
2277.86345 1.74793
2275.81502 1.74987
2273.76658 1.75260
2271.71814 1.75606
2269.66970 1.75947
2267.62126 1.76241
2265.57282 1.76540
2263.52439 1.76864
2261.47595 1.77173
2259.42751 1.77442
2257.37907 1.77622
2255.33063 1.77673
2253.28219 1.77642
2251.23376 1.77588
2249.18532 1.77601
2247.13688 1.77663
2245.08844 1.77527
2243.04000 1.77146
2240.99156 1.76835
2238.94313 1.76691
2236.89469 1.76547
2234.84625 1.76384
2232.79781 1.76224
2230.74937 1.76044
2228.70093 1.75884
2226.65250 1.75845
2224.60406 1.76010
2222.55562 1.76324
2220.50718 1.76664
2218.45874 1.76984
2216.41030 1.77295
2214.36186 1.77699
2212.31343 1.78152
2210.26499 1.78453
2208.21655 1.78659
2206.16811 1.78908
2204.11967 1.79089
2202.07123 1.79114
2200.02280 1.79151
2197.97436 1.79324
2195.92592 1.79598
2193.87748 1.79866
2191.82904 1.80047
2189.78060 1.80146
2187.73217 1.80243
2185.68373 1.80435
2183.63529 1.80706
2181.58685 1.80964
2179.53841 1.81144
2177.48997 1.81280
2175.44154 1.81403
2173.39310 1.81461
2171.34466 1.81512
2169.29622 1.81667
2167.24778 1.81808
2165.19934 1.81843
2163.15091 1.81903
2161.10247 1.82027
2159.05403 1.82077
2157.00559 1.82053
2154.95715 1.81990
2152.90871 1.81904
2150.86028 1.81956
2148.81184 1.82022
2146.76340 1.81931
2144.71496 1.81810
2142.66652 1.81686
2140.61808 1.81484
2138.56965 1.81223
2136.52121 1.80868
2134.47277 1.80402
2132.42433 1.80019
2130.37589 1.79769
2128.32745 1.79454
2126.27902 1.79044
2124.23058 1.78729
2122.18214 1.78503
2120.13370 1.78212
2118.08526 1.77942
2116.03682 1.77822
2113.98839 1.77744
2111.93995 1.77575
2109.89151 1.77364
2107.84307 1.77246
2105.79463 1.77192
2103.74619 1.77041
2101.69776 1.76908
2099.64932 1.76942
2097.60088 1.77029
2095.55244 1.77084
2093.50400 1.77086
2091.45556 1.77013
2089.40713 1.76930
2087.35869 1.76924
2085.31025 1.77000
2083.26181 1.77045
2081.21337 1.76976
2079.16493 1.76912
2077.11649 1.76939
2075.06806 1.77042
2073.01962 1.77243
2070.97118 1.77485
2068.92274 1.77589
2066.87430 1.77604
2064.82586 1.77669
2062.77743 1.77734
2060.72899 1.77838
2058.68055 1.78039
2056.63211 1.78203
2054.58367 1.78219
2052.53523 1.78198
2050.48680 1.78268
2048.43836 1.78460
2046.38992 1.78732
2044.34148 1.78975
2042.29304 1.79128
2040.24460 1.79213
2038.19617 1.79317
2036.14773 1.79474
2034.09929 1.79614
2032.05085 1.79723
2030.00241 1.79861
2027.95397 1.80019
2025.90554 1.80119
2023.85710 1.80226
2021.80866 1.80432
2019.76022 1.80639
2017.71178 1.80776
2015.66334 1.80925
2013.61491 1.81141
2011.56647 1.81327
2009.51803 1.81421
2007.46959 1.81527
2005.42115 1.81676
2003.37271 1.81861
2001.32428 1.82105
1999.27584 1.82332
1997.22740 1.82485
1995.17896 1.82625
1993.13052 1.82904
1991.08208 1.83334
1989.03365 1.83702
1986.98521 1.84123
1984.93677 1.84760
1982.88833 1.85427
1980.83989 1.86055
1978.79145 1.86767
1976.74302 1.87533
1974.69458 1.88126
1972.64614 1.88286
1970.59770 1.87996
1968.54926 1.87521
1966.50082 1.87133
1964.45239 1.86915
1962.40395 1.86811
1960.35551 1.86830
1958.30707 1.86944
1956.25863 1.87163
1954.21019 1.87455
1952.16176 1.87743
1950.11332 1.87937
1948.06488 1.88035
1946.01644 1.88265
1943.96800 1.88638
1941.91956 1.88883
1939.87112 1.88957
1937.82269 1.89131
1935.77425 1.89456
1933.72581 1.89846
1931.67737 1.90249
1929.62893 1.90554
1927.58049 1.90706
1925.53206 1.90813
1923.48362 1.91049
1921.43518 1.91335
1919.38674 1.91603
1917.33830 1.91997
1915.28986 1.92327
1913.24143 1.92419
1911.19299 1.92515
1909.14455 1.92764
1907.09611 1.93103
1905.04767 1.93366
1902.99923 1.93513
1900.95080 1.93755
1898.90236 1.94205
1896.85392 1.94690
1894.80548 1.95022
1892.75704 1.95211
1890.70860 1.95355
1888.66017 1.95700
1886.61173 1.96144
1884.56329 1.96470
1882.51485 1.96747
1880.46641 1.97032
1878.41797 1.97300
1876.36954 1.97542
1874.32110 1.97772
1872.27266 1.97912
1870.22422 1.98104
1868.17578 1.98647
1866.12734 1.99266
1864.07891 1.99599
1862.03047 1.99842
1859.98203 2.00119
1857.93359 2.00550
1855.88515 2.01206
1853.83671 2.01832
1851.78828 2.02194
1849.73984 2.02463
1847.69140 2.02919
1845.64296 2.03509
1843.59452 2.04248
1841.54608 2.05004
1839.49765 2.05809
1837.44921 2.06760
1835.40077 2.07635
1833.35233 2.08275
1831.30389 2.09014
1829.25545 2.09996
1827.20702 2.10547
1825.15858 2.10657
1823.11014 2.10494
1821.06170 2.10050
1819.01326 2.09527
1816.96482 2.09205
1814.91639 2.08919
1812.86795 2.08465
1810.81951 2.07840
1808.77107 2.07227
1806.72263 2.06864
1804.67419 2.06804
1802.62575 2.07011
1800.57732 2.07510
1798.52888 2.08167
1796.48044 2.08667
1794.43200 2.09202
1792.38356 2.09853
1790.33512 2.10196
1788.28669 2.10297
1786.23825 2.10648
1784.18981 2.11245
1782.14137 2.11964
1780.09293 2.12758
1778.04449 2.13067
1775.99606 2.13163
1773.94762 2.13777
1771.89918 2.15073
1769.85074 2.15656
1767.80230 2.15438
1765.75386 2.15478
1763.70543 2.16038
1761.65699 2.16860
1759.60855 2.17531
1757.56011 2.18108
1755.51167 2.18545
1753.46323 2.18878
1751.41480 2.19482
1749.36636 2.20557
1747.31792 2.21413
1745.26948 2.21880
1743.22104 2.22250
1741.17260 2.22780
1739.12417 2.23544
1737.07573 2.24131
1735.02729 2.24721
1732.97885 2.25529
1730.93041 2.26101
1728.88197 2.26528
1726.83354 2.26961
1724.78510 2.27391
1722.73666 2.27859
1720.68822 2.28267
1718.63978 2.28992
1716.59134 2.30499
1714.54291 2.31590
1712.49447 2.32672
1710.44603 2.33944
1708.39759 2.35063
1706.34915 2.36088
1704.30071 2.37161
1702.25228 2.37847
1700.20384 2.39067
1698.15540 2.40950
1696.10696 2.41635
1694.05852 2.41821
1692.01008 2.42094
1689.96165 2.42885
1687.91321 2.44174
1685.86477 2.45704
1683.81633 2.46435
1681.76789 2.46282
1679.71945 2.46073
1677.67102 2.45916
1675.62258 2.46702
1673.57414 2.48161
1671.52570 2.48930
1669.47726 2.48744
1667.42882 2.48053
1665.38038 2.47110
1663.33195 2.46478
1661.28351 2.45721
1659.23507 2.45099
1657.18663 2.45086
1655.13819 2.45562
1653.08975 2.44487
1651.04132 2.41917
1648.99288 2.40557
1646.94444 2.38077
1644.89600 2.35412
1642.84756 2.33443
1640.79912 2.31698
1638.75069 2.29772
1636.70225 2.26199
1634.65381 2.20530
1632.60537 2.17224
1630.55693 2.14542
1628.50849 2.10690
1626.46006 2.06413
1624.41162 2.02183
1622.36318 1.97343
1620.31474 1.93304
1618.26630 1.89476
1616.21786 1.83625
1614.16943 1.78721
1612.12099 1.74974
1610.07255 1.70739
1608.02411 1.65879
1605.97567 1.61022
1603.92723 1.56064
1601.87880 1.50566
1599.83036 1.44866
1597.78192 1.39079
1595.73348 1.32645
1593.68504 1.25406
1591.63660 1.17660
1589.58817 1.09327
1587.53973 1.00799
1585.49129 0.92451
1583.44285 0.84449
1581.39441 0.77281
1579.34597 0.71403
1577.29754 0.64792
1575.24910 0.56621
1573.20066 0.51738
1571.15222 0.48337
1569.10378 0.44613
1567.05534 0.42286
1565.00691 0.41129
1562.95847 0.40297
1560.91003 0.39610
1558.86159 0.38526
1556.81315 0.37991
1554.76471 0.37903
1552.71628 0.37724
1550.66784 0.37524
1548.61940 0.37332
1546.57096 0.37161
1544.52252 0.36935
1542.47408 0.36634
1540.42565 0.36456
1538.37721 0.36697
1536.32877 0.36825
1534.28033 0.36850
1532.23189 0.36910
1530.18345 0.36987
1528.13501 0.37019
1526.08658 0.37043
1524.03814 0.37053
1521.98970 0.37115
1519.94126 0.37353
1517.89282 0.37625
1515.84438 0.37981
1513.79595 0.38322
1511.74751 0.38606
1509.69907 0.38811
1507.65063 0.39296
1505.60219 0.40542
1503.55375 0.41248
1501.50532 0.41717
1499.45688 0.42285
1497.40844 0.43131
1495.36000 0.44051
1493.31156 0.44655
1491.26312 0.45191
1489.21469 0.46083
1487.16625 0.47043
1485.11781 0.47729
1483.06937 0.48317
1481.02093 0.48929
1478.97249 0.49485
1476.92406 0.49966
1474.87562 0.50504
1472.82718 0.51331
1470.77874 0.52243
1468.73030 0.52809
1466.68186 0.53326
1464.63343 0.54045
1462.58499 0.54715
1460.53655 0.55128
1458.48811 0.55628
1456.43967 0.56709
1454.39123 0.57533
1452.34280 0.58034
1450.29436 0.58521
1448.24592 0.59100
1446.19748 0.59691
1444.14904 0.60145
1442.10060 0.60478
1440.05217 0.60714
1438.00373 0.60918
1435.95529 0.61282
1433.90685 0.61659
1431.85841 0.61981
1429.80997 0.62435
1427.76154 0.63007
1425.71310 0.63753
1423.66466 0.64937
1421.61622 0.66514
1419.56778 0.69064
1417.51934 0.72870
1415.47091 0.75830
1413.42247 0.78060
1411.37403 0.79968
1409.32559 0.81401
1407.27715 0.82558
1405.22871 0.83995
1403.18028 0.85588
1401.13184 0.86967
1399.08340 0.88453
1397.03496 0.90037
1394.98652 0.91613
1392.93808 0.93041
1390.88965 0.94117
1388.84121 0.95123
1386.79277 0.96302
1384.74433 0.97342
1382.69589 0.98227
1380.64745 0.99116
1378.59901 0.99997
1376.55058 1.00807
1374.50214 1.01682
1372.45370 1.02587
1370.40526 1.03318
1368.35682 1.04006
1366.30838 1.04633
1364.25995 1.05271
1362.21151 1.06030
1360.16307 1.06726
1358.11463 1.07266
1356.06619 1.07839
1354.01775 1.08444
1351.96932 1.09002
1349.92088 1.09544
1347.87244 1.10074
1345.82400 1.10565
1343.77556 1.10996
1341.72712 1.11454
1339.67869 1.12007
1337.63025 1.12595
1335.58181 1.13049
1333.53337 1.13456
1331.48493 1.13852
1329.43649 1.14220
1327.38806 1.14580
1325.33962 1.14961
1323.29118 1.15374
1321.24274 1.15790
1319.19430 1.16231
1317.14586 1.16648
1315.09743 1.17050
1313.04899 1.17444
1311.00055 1.17814
1308.95211 1.18119
1306.90367 1.18393
1304.85523 1.18651
1302.80680 1.18897
1300.75836 1.19126
1298.70992 1.19348
1296.66148 1.19609
1294.61304 1.19864
1292.56460 1.20107
1290.51617 1.20318
1288.46773 1.20500
1286.41929 1.20665
1284.37085 1.20821
1282.32241 1.20952
1280.27397 1.21072
1278.22554 1.21205
1276.17710 1.21350
1274.12866 1.21485
1272.08022 1.21594
1270.03178 1.21717
1267.98334 1.21860
1265.93491 1.22065
1263.88647 1.22361
1261.83803 1.22783
1259.78959 1.23292
1257.74115 1.23775
1255.69271 1.24148
1253.64428 1.24406
1251.59584 1.24592
1249.54740 1.24725
1247.49896 1.24852
1245.45052 1.25002
1243.40208 1.25169
1241.35364 1.25315
1239.30521 1.25460
1237.25677 1.25606
1235.20833 1.25719
1233.15989 1.25813
1231.11145 1.25915
1229.06301 1.25993
1227.01458 1.26048
1224.96614 1.26115
1222.91770 1.26177
1220.86926 1.26239
1218.82082 1.26320
1216.77238 1.26402
1214.72395 1.26477
1212.67551 1.26588
1210.62707 1.26704
1208.57863 1.26789
1206.53019 1.26883
1204.48175 1.27005
1202.43332 1.27129
1200.38488 1.27231
1198.33644 1.27321
1196.28800 1.27405
1194.23956 1.27494
1192.19112 1.27598
1190.14269 1.27682
1188.09425 1.27729
1186.04581 1.27780
1183.99737 1.27847
1181.94893 1.27910
1179.90049 1.27968
1177.85206 1.28021
1175.80362 1.28062
1173.75518 1.28104
1171.70674 1.28173
1169.65830 1.28256
1167.60986 1.28325
1165.56143 1.28385
1163.51299 1.28437
1161.46455 1.28487
1159.41611 1.28521
1157.36767 1.28520
1155.31923 1.28549
1153.27080 1.28623
1151.22236 1.28660
1149.17392 1.28624
1147.12548 1.28561
1145.07704 1.28505
1143.02860 1.28450
1140.98017 1.28388
1138.93173 1.28310
1136.88329 1.28227
1134.83485 1.28154
1132.78641 1.28075
1130.73797 1.27966
1128.68954 1.27838
1126.64110 1.27728
1124.59266 1.27661
1122.54422 1.27608
1120.49578 1.27538
1118.44734 1.27479
1116.39891 1.27461
1114.35047 1.27435
1112.30203 1.27356
1110.25359 1.27275
1108.20515 1.27236
1106.15671 1.27211
1104.10827 1.27202
1102.05984 1.27263
1100.01140 1.27381
1097.96296 1.27530
1095.91452 1.27685
1093.86608 1.27824
1091.81764 1.27998
1089.76921 1.28219
1087.72077 1.28430
1085.67233 1.28648
1083.62389 1.28900
1081.57545 1.29174
1079.52701 1.29483
1077.47858 1.29779
1075.43014 1.30042
1073.38170 1.30313
1071.33326 1.30602
1069.28482 1.30874
1067.23638 1.31117
1065.18795 1.31357
1063.13951 1.31612
1061.09107 1.31876
1059.04263 1.32156
1056.99419 1.32458
1054.94575 1.32749
1052.89732 1.33002
1050.84888 1.33224
1048.80044 1.33443
1046.75200 1.33629
1044.70356 1.33723
1042.65512 1.33714
1040.60669 1.33666
1038.55825 1.33618
1036.50981 1.33491
1034.46137 1.33225
1032.41293 1.32897
1030.36449 1.32557
1028.31606 1.32105
1026.26762 1.31466
1024.21918 1.30643
1022.17074 1.29718
1020.12230 1.28864
1018.07386 1.28361
1016.02543 1.28489
1013.97699 1.29332
1011.92855 1.30760
1009.88011 1.32547
1007.83167 1.34434
1005.78323 1.36193
1003.73480 1.37760
1001.68636 1.39168
999.63792 1.40412
997.58948 1.41482
995.54104 1.42417
993.49260 1.43231
991.44417 1.43939
989.39573 1.44633
987.34729 1.45365
985.29885 1.46053
983.25041 1.46618
981.20197 1.47088
979.15354 1.47555
977.10510 1.48079
975.05666 1.48559
973.00822 1.48911
970.95978 1.49213
968.91134 1.49509
966.86290 1.49791
964.81447 1.50101
962.76603 1.50425
960.71759 1.50741
958.66915 1.51072
956.62071 1.51439
954.57227 1.51812
952.52384 1.52111
950.47540 1.52345
948.42696 1.52591
946.37852 1.52924
944.33008 1.53309
942.28164 1.53648
940.23321 1.53977
938.18477 1.54339
936.13633 1.54710
934.08789 1.55137
932.03945 1.55635
929.99101 1.56120
927.94258 1.56523
925.89414 1.56916
923.84570 1.57342
921.79726 1.57727
919.74882 1.58135
917.70038 1.58649
915.65195 1.59162
913.60351 1.59428
911.55507 1.59193
909.50663 1.58221
907.45819 1.55564
905.40975 1.47980
903.36132 1.30635
901.31288 1.07088
899.26444 0.87646
897.21600 0.76690
895.16756 0.72639
893.11912 0.72448
891.07069 0.74501
889.02225 0.78571
886.97381 0.84772
884.92537 0.92911
882.87693 1.01883
880.82849 1.10050
878.78006 1.16544
876.73162 1.21401
874.68318 1.25033
872.63474 1.27969
870.58630 1.30437
868.53786 1.32433
866.48943 1.34118
864.44099 1.35666
862.39255 1.37015
860.34411 1.38151
858.29567 1.39183
856.24723 1.40123
854.19880 1.40661
852.15036 1.40728
850.10192 1.40907
848.05348 1.41433
846.00504 1.42054
843.95660 1.42653
841.90817 1.43169
839.85973 1.43510
837.81129 1.43693
835.76285 1.43862
833.71441 1.44129
831.66597 1.44374
829.61753 1.44405
827.56910 1.44264
825.52066 1.44169
823.47222 1.44224
821.42378 1.44324
819.37534 1.44423
817.32690 1.44495
815.27847 1.44468
813.23003 1.44470
811.18159 1.44571
809.13315 1.44663
807.08471 1.44787
805.03627 1.45000
802.98784 1.45232
800.93940 1.45464
798.89096 1.45789
796.84252 1.46280
794.79408 1.46890
792.74564 1.47566
790.69721 1.48230
788.64877 1.48809
786.60033 1.49462
784.55189 1.50294
782.50345 1.51080
780.45501 1.51674
778.40658 1.52245
776.35814 1.52865
774.30970 1.53398
772.26126 1.53757
770.21282 1.54073
768.16438 1.54434
766.11595 1.54782
764.06751 1.55186
762.01907 1.55698
759.97063 1.56381
757.92219 1.56994
755.87375 1.57273
753.82532 1.57713
751.77688 1.58676
749.72844 1.59816
747.68000 1.61065
745.63156 1.62696
743.58312 1.64768
741.53469 1.67463
739.48625 1.70912
737.43781 1.75281
735.38937 1.79594
733.34093 1.75370
731.29249 1.58116
729.24406 1.42000
727.19562 1.35219
725.14718 1.35685
723.09874 1.38593
721.05030 1.41386
719.00186 1.43666
716.95343 1.45279
714.90499 1.46369
712.85655 1.47390
710.80811 1.48460
708.75967 1.49335
706.71123 1.49909
704.66280 1.50265
702.61436 1.50612
700.56592 1.51020
698.51748 1.51463
696.46904 1.52194
694.42060 1.53045
692.37216 1.53464
690.32373 1.53644
688.27529 1.54016
686.22685 1.54333
684.17841 1.54476
682.12997 1.54672
680.08153 1.54797
678.03310 1.54591
675.98466 1.54067
673.93622 1.53565
671.88778 1.53394
669.83934 1.53718
667.79090 1.55143
665.74247 1.56831
663.69403 1.57928
661.64559 1.58711
659.59715 1.59134
657.54871 1.59419
655.50027 1.59977
653.45184 1.60717
651.40340 1.61438
649.35496 1.62469
647.30652 1.63329
645.25808 1.63253
643.20964 1.63272
641.16121 1.64422
639.11277 1.65592
637.06433 1.65108
635.01589 1.64189
632.96745 1.64247
630.91901 1.64426
628.87058 1.64700
626.82214 1.65388
624.77370 1.66429
622.72526 1.68016
620.67682 1.69173
618.62838 1.69056
616.57995 1.68946
614.53151 1.69460
612.48307 1.69678
610.43463 1.68754
608.38619 1.66749
606.33775 1.65596
604.28932 1.66311
602.24088 1.69362
600.19244 1.74388
598.14400 1.78977
