3996.50324 1.64396
3994.45480 1.64587
3992.40636 1.64704
3990.35792 1.64714
3988.30948 1.64804
3986.26104 1.64888
3984.21261 1.64856
3982.16417 1.64887
3980.11573 1.65099
3978.06729 1.65311
3976.01885 1.65413
3973.97041 1.65436
3971.92198 1.65338
3969.87354 1.65151
3967.82510 1.65008
3965.77666 1.64951
3963.72822 1.64849
3961.67978 1.64713
3959.63135 1.64676
3957.58291 1.64648
3955.53447 1.64551
3953.48603 1.64335
3951.43759 1.63922
3949.38915 1.63528
3947.34072 1.63359
3945.29228 1.63209
3943.24384 1.62977
3941.19540 1.62606
3939.14696 1.62086
3937.09852 1.61567
3935.05009 1.61086
3933.00165 1.60729
3930.95321 1.60551
3928.90477 1.60180
3926.85633 1.59554
3924.80789 1.59076
3922.75946 1.58768
3920.71102 1.58303
3918.66258 1.57882
3916.61414 1.57763
3914.56570 1.57667
3912.51726 1.57429
3910.46883 1.57090
3908.42039 1.56606
3906.37195 1.56126
3904.32351 1.56000
3902.27507 1.56101
3900.22663 1.56263
3898.17820 1.56564
3896.12976 1.56455
3894.08132 1.55913
3892.03288 1.55727
3889.98444 1.56100
3887.93600 1.56038
3885.88756 1.55787
3883.83913 1.55696
3881.79069 1.55531
3879.74225 1.55732
3877.69381 1.55659
3875.64537 1.55135
3873.59693 1.55034
3871.54850 1.55297
3869.50006 1.55521
3867.45162 1.55357
3865.40318 1.54989
3863.35474 1.55189
3861.30630 1.55402
3859.25787 1.55009
3857.20943 1.54276
3855.16099 1.53654
3853.11255 1.54577
3851.06411 1.55687
3849.01567 1.55504
3846.96724 1.55044
3844.91880 1.54558
3842.87036 1.54185
3840.82192 1.53991
3838.77348 1.54165
3836.72504 1.54795
3834.67661 1.55086
3832.62817 1.55116
3830.57973 1.55096
3828.53129 1.54949
3826.48285 1.54879
3824.43441 1.54659
3822.38598 1.54290
3820.33754 1.54738
3818.28910 1.55149
3816.24066 1.55270
3814.19222 1.55482
3812.14378 1.55189
3810.09535 1.54681
3808.04691 1.54582
3805.99847 1.54891
3803.95003 1.54577
3801.90159 1.54427
3799.85315 1.55199
3797.80472 1.55428
3795.75628 1.55451
3793.70784 1.55412
3791.65940 1.55139
3789.61096 1.54925
3787.56252 1.54814
3785.51409 1.54886
3783.46565 1.55040
3781.41721 1.54941
3779.36877 1.55034
3777.32033 1.55359
3775.27189 1.55320
3773.22346 1.55047
3771.17502 1.54913
3769.12658 1.55141
3767.07814 1.55371
3765.02970 1.55486
3762.98126 1.55391
3760.93283 1.55095
3758.88439 1.55273
3756.83595 1.55746
3754.78751 1.55656
3752.73907 1.55342
3750.69063 1.55987
3748.64219 1.56756
3746.59376 1.56378
3744.54532 1.56252
3742.49688 1.56676
3740.44844 1.56446
3738.40000 1.55851
3736.35156 1.55811
3734.30313 1.56808
3732.25469 1.57474
3730.20625 1.57388
3728.15781 1.57144
3726.10937 1.57295
3724.06093 1.57801
3722.01250 1.58165
3719.96406 1.58335
3717.91562 1.58271
3715.86718 1.58013
3713.81874 1.57638
3711.77030 1.57711
3709.72187 1.58561
3707.67343 1.58833
3705.62499 1.58530
3703.57655 1.58266
3701.52811 1.58450
3699.47967 1.58686
3697.43124 1.58738
3695.38280 1.58844
3693.33436 1.58778
3691.28592 1.58483
3689.23748 1.58931
3687.18904 1.59944
3685.14061 1.60227
3683.09217 1.60137
3681.04373 1.60097
3678.99529 1.60063
3676.94685 1.60088
3674.89841 1.60878
3672.84998 1.61349
3670.80154 1.61296
3668.75310 1.61737
3666.70466 1.61997
3664.65622 1.61942
3662.60778 1.62051
3660.55935 1.62303
3658.51091 1.62521
3656.46247 1.62900
3654.41403 1.63165
3652.36559 1.62904
3650.31715 1.62782
3648.26872 1.63764
3646.22028 1.64339
3644.17184 1.64358
3642.12340 1.64447
3640.07496 1.64631
3638.02652 1.64837
3635.97809 1.65109
3633.92965 1.65289
3631.88121 1.65263
3629.83277 1.65526
3627.78433 1.66272
3625.73589 1.66434
3623.68746 1.66286
3621.63902 1.66200
3619.59058 1.66380
3617.54214 1.66780
3615.49370 1.67020
3613.44526 1.67146
3611.39682 1.67091
3609.34839 1.66887
3607.29995 1.66885
3605.25151 1.66993
3603.20307 1.66931
3601.15463 1.66695
3599.10619 1.66423
3597.05776 1.66274
3595.00932 1.66385
3592.96088 1.66667
3590.91244 1.66724
3588.86400 1.66646
3586.81556 1.66666
3584.76713 1.66588
3582.71869 1.66496
3580.67025 1.66419
3578.62181 1.66245
3576.57337 1.66140
3574.52493 1.66250
3572.47650 1.66373
3570.42806 1.66344
3568.37962 1.66283
3566.33118 1.66270
3564.28274 1.66142
3562.23430 1.66007
3560.18587 1.66019
3558.13743 1.66093
3556.08899 1.66119
3554.04055 1.66132
3551.99211 1.66157
3549.94367 1.66181
3547.89524 1.66321
3545.84680 1.66624
3543.79836 1.66798
3541.74992 1.66757
3539.70148 1.66656
3537.65304 1.66547
3535.60461 1.66476
3533.55617 1.66486
3531.50773 1.66520
3529.45929 1.66605
3527.41085 1.66714
3525.36241 1.66674
3523.31398 1.66533
3521.26554 1.66457
3519.21710 1.66491
3517.16866 1.66554
3515.12022 1.66628
3513.07178 1.66715
3511.02335 1.66805
3508.97491 1.67008
3506.92647 1.67153
3504.87803 1.67048
3502.82959 1.66935
3500.78115 1.67010
3498.73272 1.67066
3496.68428 1.67026
3494.63584 1.67041
3492.58740 1.67122
3490.53896 1.67134
3488.49052 1.67087
3486.44209 1.67073
3484.39365 1.67095
3482.34521 1.67238
3480.29677 1.67502
3478.24833 1.67617
3476.19989 1.67581
3474.15146 1.67596
3472.10302 1.67562
3470.05458 1.67398
3468.00614 1.67292
3465.95770 1.67299
3463.90926 1.67264
3461.86082 1.67174
3459.81239 1.67203
3457.76395 1.67310
3455.71551 1.67332
3453.66707 1.67330
3451.61863 1.67430
3449.57019 1.67578
3447.52176 1.67623
3445.47332 1.67569
3443.42488 1.67522
3441.37644 1.67488
3439.32800 1.67494
3437.27956 1.67621
3435.23113 1.67780
3433.18269 1.67857
3431.13425 1.67909
3429.08581 1.67934
3427.03737 1.67901
3424.98893 1.67869
3422.94050 1.67846
3420.89206 1.67868
3418.84362 1.67959
3416.79518 1.68009
3414.74674 1.68056
3412.69830 1.68193
3410.64987 1.68300
3408.60143 1.68239
3406.55299 1.68127
3404.50455 1.68124
3402.45611 1.68207
3400.40767 1.68275
3398.35924 1.68326
3396.31080 1.68507
3394.26236 1.68734
3392.21392 1.68748
3390.16548 1.68548
3388.11704 1.68330
3386.06861 1.68235
3384.02017 1.68324
3381.97173 1.68466
3379.92329 1.68428
3377.87485 1.68336
3375.82641 1.68422
3373.77798 1.68579
3371.72954 1.68653
3369.68110 1.68641
3367.63266 1.68563
3365.58422 1.68466
3363.53578 1.68422
3361.48735 1.68435
3359.43891 1.68529
3357.39047 1.68647
3355.34203 1.68636
3353.29359 1.68551
3351.24515 1.68541
3349.19672 1.68579
3347.14828 1.68570
3345.09984 1.68565
3343.05140 1.68637
3341.00296 1.68647
3338.95452 1.68554
3336.90609 1.68639
3334.85765 1.68880
3332.80921 1.68936
3330.76077 1.68810
3328.71233 1.68690
3326.66389 1.68689
3324.61545 1.68729
3322.56702 1.68641
3320.51858 1.68554
3318.47014 1.68692
3316.42170 1.68937
3314.37326 1.68997
3312.32482 1.68880
3310.27639 1.68809
3308.22795 1.68873
3306.17951 1.68932
3304.13107 1.68923
3302.08263 1.68990
3300.03419 1.69091
3297.98576 1.69088
3295.93732 1.69045
3293.88888 1.69139
3291.84044 1.69406
3289.79200 1.69533
3287.74356 1.69328
3285.69513 1.69177
3283.64669 1.69231
3281.59825 1.69266
3279.54981 1.69335
3277.50137 1.69424
3275.45293 1.69394
3273.40450 1.69343
3271.35606 1.69413
3269.30762 1.69523
3267.25918 1.69500
3265.21074 1.69386
3263.16230 1.69322
3261.11387 1.69319
3259.06543 1.69342
3257.01699 1.69421
3254.96855 1.69600
3252.92011 1.69741
3250.87167 1.69724
3248.82324 1.69669
3246.77480 1.69693
3244.72636 1.69762
3242.67792 1.69769
3240.62948 1.69701
3238.58104 1.69633
3236.53261 1.69668
3234.48417 1.69789
3232.43573 1.69858
3230.38729 1.69820
3228.33885 1.69720
3226.29041 1.69672
3224.24198 1.69698
3222.19354 1.69724
3220.14510 1.69742
3218.09666 1.69720
3216.04822 1.69691
3213.99978 1.69758
3211.95135 1.69814
3209.90291 1.69726
3207.85447 1.69615
3205.80603 1.69618
3203.75759 1.69709
3201.70915 1.69774
3199.66072 1.69747
3197.61228 1.69714
3195.56384 1.69795
3193.51540 1.69916
3191.46696 1.69889
3189.41852 1.69751
3187.37008 1.69668
3185.32165 1.69616
3183.27321 1.69551
3181.22477 1.69538
3179.17633 1.69557
3177.12789 1.69602
3175.07945 1.69765
3173.03102 1.69958
3170.98258 1.69952
3168.93414 1.69755
3166.88570 1.69599
3164.83726 1.69592
3162.78882 1.69660
3160.74039 1.69670
3158.69195 1.69575
3156.64351 1.69467
3154.59507 1.69370
3152.54663 1.69334
3150.49819 1.69434
3148.44976 1.69618
3146.40132 1.69816
3144.35288 1.69888
3142.30444 1.69780
3140.25600 1.69630
3138.20756 1.69599
3136.15913 1.69693
3134.11069 1.69805
3132.06225 1.69905
3130.01381 1.69981
3127.96537 1.70063
3125.91693 1.70112
3123.86850 1.69990
3121.82006 1.69716
3119.77162 1.69456
3117.72318 1.69317
3115.67474 1.69353
3113.62630 1.69599
3111.57787 1.69897
3109.52943 1.70041
3107.48099 1.70080
3105.43255 1.70120
3103.38411 1.70089
3101.33567 1.69996
3099.28724 1.70006
3097.23880 1.70177
3095.19036 1.70366
3093.14192 1.70321
3091.09348 1.70106
3089.04504 1.70045
3086.99661 1.70147
3084.94817 1.70196
3082.89973 1.70163
3080.85129 1.70102
3078.80285 1.70145
3076.75441 1.70468
3074.70598 1.70839
3072.65754 1.70933
3070.60910 1.70854
3068.56066 1.70787
3066.51222 1.70815
3064.46378 1.71012
3062.41535 1.71314
3060.36691 1.71504
3058.31847 1.71474
3056.27003 1.71384
3054.22159 1.71349
3052.17315 1.71319
3050.12471 1.71380
3048.07628 1.71561
3046.02784 1.71695
3043.97940 1.71770
3041.93096 1.71871
3039.88252 1.72053
3037.83408 1.72227
3035.78565 1.72250
3033.73721 1.72300
3031.68877 1.72469
3029.64033 1.72593
3027.59189 1.72634
3025.54345 1.72651
3023.49502 1.72679
3021.44658 1.72678
3019.39814 1.72636
3017.34970 1.72604
3015.30126 1.72506
3013.25282 1.72289
3011.20439 1.72129
3009.15595 1.72223
3007.10751 1.72429
3005.05907 1.72458
3003.01063 1.72354
3000.96219 1.72273
2998.91376 1.72214
2996.86532 1.72232
2994.81688 1.72252
2992.76844 1.72149
2990.72000 1.72115
2988.67156 1.72216
2986.62313 1.72340
2984.57469 1.72474
2982.52625 1.72485
2980.47781 1.72339
2978.42937 1.72188
2976.38093 1.72040
2974.33250 1.71924
2972.28406 1.71944
2970.23562 1.71991
2968.18718 1.71876
2966.13874 1.71754
2964.09030 1.71838
2962.04187 1.71949
2959.99343 1.71967
2957.94499 1.72026
2955.89655 1.72107
2953.84811 1.72055
2951.79967 1.71922
2949.75124 1.71891
2947.70280 1.71953
2945.65436 1.72002
2943.60592 1.72026
2941.55748 1.72058
2939.50904 1.72092
2937.46061 1.72144
2935.41217 1.72169
2933.36373 1.72063
2931.31529 1.71869
2929.26685 1.71746
2927.21841 1.71791
2925.16998 1.71870
2923.12154 1.71878
2921.07310 1.71878
2919.02466 1.71854
2916.97622 1.71897
2914.92778 1.72014
2912.87934 1.72030
2910.83091 1.72105
2908.78247 1.72356
2906.73403 1.72523
2904.68559 1.72539
2902.63715 1.72544
2900.58871 1.72563
2898.54028 1.72591
2896.49184 1.72625
2894.44340 1.72673
2892.39496 1.72744
2890.34652 1.72731
2888.29808 1.72583
2886.24965 1.72446
2884.20121 1.72417
2882.15277 1.72429
2880.10433 1.72383
2878.05589 1.72288
2876.00745 1.72194
2873.95902 1.72115
2871.91058 1.72103
2869.86214 1.72197
2867.81370 1.72306
2865.76526 1.72315
2863.71682 1.72200
2861.66839 1.72023
2859.61995 1.71855
2857.57151 1.71738
2855.52307 1.71676
2853.47463 1.71671
2851.42619 1.71723
2849.37776 1.71749
2847.32932 1.71704
2845.28088 1.71665
2843.23244 1.71683
2841.18400 1.71699
2839.13556 1.71613
2837.08713 1.71437
2835.03869 1.71224
2832.99025 1.71003
2830.94181 1.70807
2828.89337 1.70664
2826.84493 1.70658
2824.79650 1.70788
2822.74806 1.70869
2820.69962 1.70833
2818.65118 1.70798
2816.60274 1.70784
2814.55430 1.70709
2812.50587 1.70509
2810.45743 1.70221
2808.40899 1.69909
2806.36055 1.69613
2804.31211 1.69393
2802.26367 1.69199
2800.21524 1.68958
2798.16680 1.68755
2796.11836 1.68661
2794.06992 1.68603
2792.02148 1.68545
2789.97304 1.68493
2787.92461 1.68429
2785.87617 1.68384
2783.82773 1.68346
2781.77929 1.68281
2779.73085 1.68196
2777.68241 1.68128
2775.63397 1.68115
2773.58554 1.68162
2771.53710 1.68204
2769.48866 1.68173
2767.44022 1.68149
2765.39178 1.68150
2763.34334 1.68107
2761.29491 1.68079
2759.24647 1.68117
2757.19803 1.68161
2755.14959 1.68153
2753.10115 1.68079
2751.05271 1.68035
2749.00428 1.68137
2746.95584 1.68263
2744.90740 1.68247
2742.85896 1.68149
2740.81052 1.68101
2738.76208 1.68192
2736.71365 1.68389
2734.66521 1.68533
2732.61677 1.68555
2730.56833 1.68546
2728.51989 1.68586
2726.47145 1.68672
2724.42302 1.68756
2722.37458 1.68848
2720.32614 1.68982
2718.27770 1.69078
2716.22926 1.69114
2714.18082 1.69212
2712.13239 1.69359
2710.08395 1.69455
2708.03551 1.69559
2705.98707 1.69738
2703.93863 1.69885
2701.89019 1.69980
2699.84176 1.70125
2697.79332 1.70310
2695.74488 1.70514
2693.69644 1.70736
2691.64800 1.70907
2689.59956 1.70982
2687.55113 1.71025
2685.50269 1.71121
2683.45425 1.71292
2681.40581 1.71485
2679.35737 1.71658
2677.30893 1.71837
2675.26050 1.72038
2673.21206 1.72268
2671.16362 1.72511
2669.11518 1.72741
2667.06674 1.72990
2665.01830 1.73240
2662.96987 1.73427
2660.92143 1.73538
2658.87299 1.73676
2656.82455 1.73862
2654.77611 1.73961
2652.72767 1.74017
2650.67924 1.74126
2648.63080 1.74242
2646.58236 1.74306
2644.53392 1.74334
2642.48548 1.74321
2640.43704 1.74235
2638.38860 1.74171
2636.34017 1.74176
2634.29173 1.74163
2632.24329 1.74146
2630.19485 1.74176
2628.14641 1.74232
2626.09797 1.74269
2624.04954 1.74257
2622.00110 1.74163
2619.95266 1.74031
2617.90422 1.74016
2615.85578 1.74077
2613.80734 1.74042
2611.75891 1.73942
2609.71047 1.73861
2607.66203 1.73784
2605.61359 1.73780
2603.56515 1.73891
2601.51671 1.74009
2599.46828 1.74111
2597.41984 1.74217
2595.37140 1.74333
2593.32296 1.74464
2591.27452 1.74581
2589.22608 1.74678
2587.17765 1.74787
2585.12921 1.74924
2583.08077 1.75014
2581.03233 1.75002
2578.98389 1.74952
2576.93545 1.74951
2574.88702 1.74952
2572.83858 1.74905
2570.79014 1.74872
2568.74170 1.74836
2566.69326 1.74814
2564.64482 1.74851
2562.59639 1.74925
2560.54795 1.75021
2558.49951 1.75096
2556.45107 1.75124
2554.40263 1.75143
2552.35419 1.75189
2550.30576 1.75253
2548.25732 1.75299
2546.20888 1.75348
2544.16044 1.75375
2542.11200 1.75279
2540.06356 1.75160
2538.01513 1.75184
2535.96669 1.75255
2533.91825 1.75195
2531.86981 1.75020
2529.82137 1.74903
2527.77293 1.74907
2525.72450 1.74899
2523.67606 1.74776
2521.62762 1.74636
2519.57918 1.74575
2517.53074 1.74432
2515.48230 1.74095
2513.43387 1.73743
2511.38543 1.73424
2509.33699 1.73064
2507.28855 1.72814
2505.24011 1.72780
2503.19167 1.72850
2501.14324 1.72911
2499.09480 1.72958
2497.04636 1.73014
2494.99792 1.73061
2492.94948 1.73087
2490.90104 1.73114
2488.85260 1.73173
2486.80417 1.73296
2484.75573 1.73416
2482.70729 1.73414
2480.65885 1.73354
2478.61041 1.73340
2476.56197 1.73295
2474.51354 1.73173
2472.46510 1.73094
2470.41666 1.73121
2468.36822 1.73165
2466.31978 1.73182
2464.27134 1.73253
2462.22291 1.73284
2460.17447 1.73146
2458.12603 1.72988
2456.07759 1.72920
2454.02915 1.72880
2451.98071 1.72808
2449.93228 1.72709
2447.88384 1.72599
2445.83540 1.72503
2443.78696 1.72516
2441.73852 1.72573
2439.69008 1.72472
2437.64165 1.72279
2435.59321 1.72194
2433.54477 1.72239
2431.49633 1.72308
2429.44789 1.72333
2427.39945 1.72321
2425.35102 1.72324
2423.30258 1.72317
2421.25414 1.72256
2419.20570 1.72236
2417.15726 1.72292
2415.10882 1.72315
2413.06039 1.72256
2411.01195 1.72203
2408.96351 1.72193
2406.91507 1.72159
2404.86663 1.72111
2402.81819 1.72067
2400.76976 1.71996
2398.72132 1.71944
2396.67288 1.71954
2394.62444 1.71954
2392.57600 1.71936
2390.52756 1.71933
2388.47913 1.71857
2386.43069 1.71743
2384.38225 1.71700
2382.33381 1.71709
2380.28537 1.71709
2378.23693 1.71616
2376.18850 1.71516
2374.14006 1.71611
2372.09162 1.71793
2370.04318 1.71736
2367.99474 1.71569
2365.94630 1.71946
2363.89787 1.72540
2361.84943 1.72462
2359.80099 1.72502
2357.75255 1.72846
2355.70411 1.72725
2353.65567 1.72566
2351.60723 1.72666
2349.55880 1.72660
2347.51036 1.72572
2345.46192 1.72846
2343.41348 1.73619
2341.36504 1.74290
2339.31660 1.74428
2337.26817 1.74177
2335.21973 1.73931
2333.17129 1.73705
2331.12285 1.73475
2329.07441 1.73437
2327.02597 1.73493
2324.97754 1.73440
2322.92910 1.73424
2320.88066 1.73521
2318.83222 1.73634
2316.78378 1.73704
2314.73534 1.73759
2312.68691 1.73885
2310.63847 1.73918
2308.59003 1.73728
2306.54159 1.73467
2304.49315 1.73233
2302.44471 1.72998
2300.39628 1.72750
2298.34784 1.72498
2296.29940 1.72291
2294.25096 1.72257
2292.20252 1.72362
2290.15408 1.72484
2288.10565 1.72618
2286.05721 1.72734
2284.00877 1.72827
2281.96033 1.72980
2279.91189 1.73274
2277.86345 1.73632
2275.81502 1.73908
2273.76658 1.74075
2271.71814 1.74189
2269.66970 1.74286
2267.62126 1.74484
2265.57282 1.74863
2263.52439 1.75232
2261.47595 1.75406
2259.42751 1.75427
2257.37907 1.75488
2255.33063 1.75678
2253.28219 1.75839
2251.23376 1.75875
2249.18532 1.75884
2247.13688 1.75919
2245.08844 1.75919
2243.04000 1.75836
2240.99156 1.75734
2238.94313 1.75605
2236.89469 1.75405
2234.84625 1.75239
2232.79781 1.75157
2230.74937 1.75099
2228.70093 1.75055
2226.65250 1.75111
2224.60406 1.75292
2222.55562 1.75475
2220.50718 1.75656
2218.45874 1.75931
2216.41030 1.76207
2214.36186 1.76407
2212.31343 1.76586
2210.26499 1.76773
2208.21655 1.76959
2206.16811 1.77073
2204.11967 1.77122
2202.07123 1.77190
2200.02280 1.77350
2197.97436 1.77569
2195.92592 1.77690
2193.87748 1.77789
2191.82904 1.77963
2189.78060 1.78076
2187.73217 1.78129
2185.68373 1.78197
2183.63529 1.78329
2181.58685 1.78572
2179.53841 1.78841
2177.48997 1.79051
2175.44154 1.79163
2173.39310 1.79203
2171.34466 1.79287
2169.29622 1.79464
2167.24778 1.79650
2165.19934 1.79692
2163.15091 1.79634
2161.10247 1.79689
2159.05403 1.79820
2157.00559 1.79839
2154.95715 1.79786
2152.90871 1.79767
2150.86028 1.79750
2148.81184 1.79705
2146.76340 1.79657
2144.71496 1.79608
2142.66652 1.79608
2140.61808 1.79590
2138.56965 1.79419
2136.52121 1.79156
2134.47277 1.78872
2132.42433 1.78616
2130.37589 1.78462
2128.32745 1.78391
2126.27902 1.78288
2124.23058 1.78080
2122.18214 1.77890
2120.13370 1.77851
2118.08526 1.77861
2116.03682 1.77819
2113.98839 1.77783
2111.93995 1.77803
2109.89151 1.77849
2107.84307 1.77909
2105.79463 1.77936
2103.74619 1.77886
2101.69776 1.77901
2099.64932 1.77950
2097.60088 1.77918
2095.55244 1.77926
2093.50400 1.78012
2091.45556 1.78115
2089.40713 1.78268
2087.35869 1.78400
2085.31025 1.78405
2083.26181 1.78349
2081.21337 1.78381
2079.16493 1.78595
2077.11649 1.78805
2075.06806 1.78809
2073.01962 1.78717
2070.97118 1.78711
2068.92274 1.78821
2066.87430 1.78967
2064.82586 1.79054
2062.77743 1.79096
2060.72899 1.79148
2058.68055 1.79184
2056.63211 1.79213
2054.58367 1.79320
2052.53523 1.79546
2050.48680 1.79784
2048.43836 1.79923
2046.38992 1.79957
2044.34148 1.79963
2042.29304 1.80010
2040.24460 1.80123
2038.19617 1.80302
2036.14773 1.80438
2034.09929 1.80536
2032.05085 1.80698
2030.00241 1.80866
2027.95397 1.80992
2025.90554 1.81077
2023.85710 1.81083
2021.80866 1.81095
2019.76022 1.81273
2017.71178 1.81514
2015.66334 1.81642
2013.61491 1.81745
2011.56647 1.81890
2009.51803 1.81997
2007.46959 1.82071
2005.42115 1.82228
2003.37271 1.82418
2001.32428 1.82509
1999.27584 1.82588
1997.22740 1.82798
1995.17896 1.83120
1993.13052 1.83503
1991.08208 1.83843
1989.03365 1.84062
1986.98521 1.84303
1984.93677 1.84584
1982.88833 1.84897
1980.83989 1.85305
1978.79145 1.85811
1976.74302 1.86314
1974.69458 1.86634
1972.64614 1.86758
1970.59770 1.86729
1968.54926 1.86578
1966.50082 1.86393
1964.45239 1.86308
1962.40395 1.86355
1960.35551 1.86419
1958.30707 1.86455
1956.25863 1.86580
1954.21019 1.86787
1952.16176 1.87005
1950.11332 1.87214
1948.06488 1.87336
1946.01644 1.87436
1943.96800 1.87647
1941.91956 1.87961
1939.87112 1.88258
1937.82269 1.88542
1935.77425 1.88842
1933.72581 1.89129
1931.67737 1.89340
1929.62893 1.89511
1927.58049 1.89714
1925.53206 1.89876
1923.48362 1.90079
1921.43518 1.90373
1919.38674 1.90669
1917.33830 1.90998
1915.28986 1.91292
1913.24143 1.91489
1911.19299 1.91641
1909.14455 1.91790
1907.09611 1.91989
1905.04767 1.92247
1902.99923 1.92614
1900.95080 1.93006
1898.90236 1.93168
1896.85392 1.93245
1894.80548 1.93584
1892.75704 1.94060
1890.70860 1.94395
1888.66017 1.94633
1886.61173 1.94840
1884.56329 1.95049
1882.51485 1.95322
1880.46641 1.95705
1878.41797 1.96067
1876.36954 1.96277
1874.32110 1.96480
1872.27266 1.96713
1870.22422 1.96925
1868.17578 1.97183
1866.12734 1.97539
1864.07891 1.97912
1862.03047 1.98309
1859.98203 1.98747
1857.93359 1.99244
1855.88515 1.99682
1853.83671 1.99966
1851.78828 2.00189
1849.73984 2.00393
1847.69140 2.00672
1845.64296 2.01215
1843.59452 2.02127
1841.54608 2.02870
1839.49765 2.03311
1837.44921 2.03723
1835.40077 2.04277
1833.35233 2.04922
1831.30389 2.05798
1829.25545 2.07228
1827.20702 2.08423
1825.15858 2.08992
1823.11014 2.09100
1821.06170 2.08760
1819.01326 2.08054
1816.96482 2.07160
1814.91639 2.06262
1812.86795 2.05491
1810.81951 2.04798
1808.77107 2.04229
1806.72263 2.03937
1804.67419 2.03909
1802.62575 2.04066
1800.57732 2.04439
1798.52888 2.04915
1796.48044 2.05154
1794.43200 2.05353
1792.38356 2.06058
1790.33512 2.06994
1788.28669 2.07520
1786.23825 2.07963
1784.18981 2.08433
1782.14137 2.09037
1780.09293 2.09910
1778.04449 2.10524
1775.99606 2.10780
1773.94762 2.11211
1771.89918 2.12244
1769.85074 2.13070
1767.80230 2.13465
1765.75386 2.13611
1763.70543 2.13660
1761.65699 2.14122
1759.60855 2.14771
1757.56011 2.15176
1755.51167 2.15509
1753.46323 2.15883
1751.41480 2.16399
1749.36636 2.17429
1747.31792 2.18315
1745.26948 2.18576
1743.22104 2.18854
1741.17260 2.19547
1739.12417 2.20431
1737.07573 2.20985
1735.02729 2.21561
1732.97885 2.22331
1730.93041 2.22616
1728.88197 2.23103
1726.83354 2.24036
1724.78510 2.24974
1722.73666 2.25789
1720.68822 2.26593
1718.63978 2.27924
1716.59134 2.29923
1714.54291 2.30649
1712.49447 2.30642
1710.44603 2.30804
1708.39759 2.31621
1706.34915 2.33523
1704.30071 2.35619
1702.25228 2.36694
1700.20384 2.38192
1698.15540 2.39986
1696.10696 2.40641
1694.05852 2.41103
1692.01008 2.41200
1689.96165 2.41649
1687.91321 2.42916
1685.86477 2.45061
1683.81633 2.48443
1681.76789 2.49344
1679.71945 2.48830
1677.67102 2.49002
1675.62258 2.49826
1673.57414 2.50749
1671.52570 2.51802
1669.47726 2.53817
1667.42882 2.55682
1665.38038 2.56023
1663.33195 2.56914
1661.28351 2.58997
1659.23507 2.60435
1657.18663 2.60833
1655.13819 2.61133
1653.08975 2.63042
1651.04132 2.63042
1648.99288 2.61697
1646.94444 2.61799
1644.89600 2.62305
1642.84756 2.60848
1640.79912 2.59396
1638.75069 2.58159
1636.70225 2.57115
1634.65381 2.55461
1632.60537 2.52688
1630.55693 2.49181
1628.50849 2.45295
1626.46006 2.41729
1624.41162 2.37332
1622.36318 2.31835
1620.31474 2.27490
1618.26630 2.23381
1616.21786 2.16528
1614.16943 2.10243
1612.12099 2.05354
1610.07255 2.00139
1608.02411 1.94584
1605.97567 1.89304
1603.92723 1.83825
1601.87880 1.77839
1599.83036 1.71863
1597.78192 1.65724
1595.73348 1.58788
1593.68504 1.51068
1591.63660 1.42764
1589.58817 1.33399
1587.53973 1.23204
1585.49129 1.12794
1583.44285 1.02755
1581.39441 0.93946
1579.34597 0.86912
1577.29754 0.79181
1575.24910 0.69762
1573.20066 0.64175
1571.15222 0.60443
1569.10378 0.56566
1567.05534 0.54103
1565.00691 0.52759
1562.95847 0.51730
1560.91003 0.50854
1558.86159 0.49621
1556.81315 0.48961
1554.76471 0.48711
1552.71628 0.48373
1550.66784 0.48036
1548.61940 0.47720
1546.57096 0.47429
1544.52252 0.47085
1542.47408 0.46671
1540.42565 0.46417
1538.37721 0.46510
1536.32877 0.46449
1534.28033 0.46324
1532.23189 0.46260
1530.18345 0.46184
1528.13501 0.46064
1526.08658 0.45979
1524.03814 0.45906
1521.98970 0.45934
1519.94126 0.46159
1517.89282 0.46417
1515.84438 0.46839
1513.79595 0.47296
1511.74751 0.47775
1509.69907 0.48327
1507.65063 0.50027
1505.60219 0.53459
1503.55375 0.54982
1501.50532 0.55888
1499.45688 0.56947
1497.40844 0.58324
1495.36000 0.59604
1493.31156 0.60281
1491.26312 0.60777
1489.21469 0.61638
1487.16625 0.62476
1485.11781 0.62943
1483.06937 0.63305
1481.02093 0.63712
1478.97249 0.64083
1476.92406 0.64372
1474.87562 0.64691
1472.82718 0.65201
1470.77874 0.65713
1468.73030 0.65936
1466.68186 0.66168
1464.63343 0.66639
1462.58499 0.67084
1460.53655 0.67301
1458.48811 0.67639
1456.43967 0.68576
1454.39123 0.69216
1452.34280 0.69527
1450.29436 0.69824
1448.24592 0.70218
1446.19748 0.70641
1444.14904 0.70946
1442.10060 0.71116
1440.05217 0.71149
1438.00373 0.71098
1435.95529 0.71119
1433.90685 0.71129
1431.85841 0.71070
1429.80997 0.71053
1427.76154 0.71067
1425.71310 0.71114
1423.66466 0.71252
1421.61622 0.71479
1419.56778 0.72048
1417.51934 0.73272
1415.47091 0.74626
1413.42247 0.76297
1411.37403 0.78637
1409.32559 0.81265
1407.27715 0.83691
1405.22871 0.86218
1403.18028 0.88603
1401.13184 0.90364
1399.08340 0.92025
1397.03496 0.93712
1394.98652 0.95358
1392.93808 0.96811
1390.88965 0.97833
1388.84121 0.98792
1386.79277 0.99996
1384.74433 1.01049
1382.69589 1.01887
1380.64745 1.02745
1378.59901 1.03636
1376.55058 1.04492
1374.50214 1.05461
1372.45370 1.06451
1370.40526 1.07242
1368.35682 1.08043
1366.30838 1.08800
1364.25995 1.09528
1362.21151 1.10409
1360.16307 1.11234
1358.11463 1.11869
1356.06619 1.12521
1354.01775 1.13215
1351.96932 1.13868
1349.92088 1.14498
1347.87244 1.15145
1345.82400 1.15790
1343.77556 1.16343
1341.72712 1.16869
1339.67869 1.17542
1337.63025 1.18298
1335.58181 1.18866
1333.53337 1.19338
1331.48493 1.19820
1329.43649 1.20320
1327.38806 1.20822
1325.33962 1.21297
1323.29118 1.21737
1321.24274 1.22168
1319.19430 1.22648
1317.14586 1.23098
1315.09743 1.23514
1313.04899 1.23920
1311.00055 1.24323
1308.95211 1.24718
1306.90367 1.25116
1304.85523 1.25496
1302.80680 1.25863
1300.75836 1.26242
1298.70992 1.26627
1296.66148 1.27033
1294.61304 1.27420
1292.56460 1.27755
1290.51617 1.28027
1288.46773 1.28304
1286.41929 1.28629
1284.37085 1.28959
1282.32241 1.29243
1280.27397 1.29502
1278.22554 1.29762
1276.17710 1.30026
1274.12866 1.30312
1272.08022 1.30613
1270.03178 1.30924
1267.98334 1.31220
1265.93491 1.31501
1263.88647 1.31763
1261.83803 1.32062
1259.78959 1.32422
1257.74115 1.32767
1255.69271 1.33036
1253.64428 1.33288
1251.59584 1.33571
1249.54740 1.33843
1247.49896 1.34111
1245.45052 1.34376
1243.40208 1.34639
1241.35364 1.34936
1239.30521 1.35245
1237.25677 1.35483
1235.20833 1.35675
1233.15989 1.35871
1231.11145 1.36041
1229.06301 1.36193
1227.01458 1.36357
1224.96614 1.36524
1222.91770 1.36664
1220.86926 1.36795
1218.82082 1.36950
1216.77238 1.37117
1214.72395 1.37266
1212.67551 1.37426
1210.62707 1.37618
1208.57863 1.37804
1206.53019 1.37962
1204.48175 1.38125
1202.43332 1.38289
1200.38488 1.38429
1198.33644 1.38580
1196.28800 1.38754
1194.23956 1.38920
1192.19112 1.39058
1190.14269 1.39188
1188.09425 1.39329
1186.04581 1.39478
1183.99737 1.39636
1181.94893 1.39807
1179.90049 1.39951
1177.85206 1.40022
1175.80362 1.40065
1173.75518 1.40180
1171.70674 1.40369
1169.65830 1.40535
1167.60986 1.40642
1165.56143 1.40763
1163.51299 1.40914
1161.46455 1.41044
1159.41611 1.41161
1157.36767 1.41320
1155.31923 1.41506
1153.27080 1.41651
1151.22236 1.41760
1149.17392 1.41830
1147.12548 1.41895
1145.07704 1.42024
1143.02860 1.42156
1140.98017 1.42220
1138.93173 1.42279
1136.88329 1.42401
1134.83485 1.42535
1132.78641 1.42617
1130.73797 1.42669
1128.68954 1.42715
1126.64110 1.42725
1124.59266 1.42732
1122.54422 1.42784
1120.49578 1.42877
1118.44734 1.42965
1116.39891 1.43031
1114.35047 1.43099
1112.30203 1.43168
1110.25359 1.43257
1108.20515 1.43380
1106.15671 1.43458
1104.10827 1.43531
1102.05984 1.43714
1100.01140 1.43836
1097.96296 1.43774
1095.91452 1.43726
1093.86608 1.43791
1091.81764 1.43864
1089.76921 1.43904
1087.72077 1.43980
1085.67233 1.44157
1083.62389 1.44394
1081.57545 1.44611
1079.52701 1.44826
1077.47858 1.45084
1075.43014 1.45352
1073.38170 1.45563
1071.33326 1.45761
1069.28482 1.46002
1067.23638 1.46221
1065.18795 1.46370
1063.13951 1.46522
1061.09107 1.46712
1059.04263 1.46928
1056.99419 1.47170
1054.94575 1.47419
1052.89732 1.47660
1050.84888 1.47860
1048.80044 1.47990
1046.75200 1.48087
1044.70356 1.48216
1042.65512 1.48363
1040.60669 1.48483
1038.55825 1.48511
1036.50981 1.48482
1034.46137 1.48510
1032.41293 1.48559
1030.36449 1.48594
1028.31606 1.48652
1026.26762 1.48724
1024.21918 1.48752
1022.17074 1.48725
1020.12230 1.48682
1018.07386 1.48750
1016.02543 1.49074
1013.97699 1.49648
1011.92855 1.50338
1009.88011 1.51064
1007.83167 1.51816
1005.78323 1.52493
1003.73480 1.53041
1001.68636 1.53476
999.63792 1.53810
997.58948 1.54174
995.54104 1.54676
993.49260 1.55155
991.44417 1.55471
989.39573 1.55708
987.34729 1.55908
985.29885 1.56090
983.25041 1.56327
981.20197 1.56663
979.15354 1.57081
977.10510 1.57475
975.05666 1.57734
973.00822 1.57909
970.95978 1.58057
968.91134 1.58237
966.86290 1.58549
964.81447 1.58959
962.76603 1.59394
960.71759 1.59831
958.66915 1.60228
956.62071 1.60577
954.57227 1.60874
952.52384 1.61087
950.47540 1.61267
948.42696 1.61531
946.37852 1.61838
944.33008 1.62150
942.28164 1.62620
940.23321 1.63232
938.18477 1.63734
936.13633 1.64069
934.08789 1.64417
932.03945 1.64781
929.99101 1.65132
927.94258 1.65619
925.89414 1.66237
923.84570 1.66915
921.79726 1.67630
919.74882 1.68246
917.70038 1.68673
915.65195 1.69016
913.60351 1.69325
911.55507 1.69258
909.50663 1.68263
907.45819 1.65480
905.40975 1.57938
903.36132 1.40383
901.31288 1.16200
899.26444 0.96307
897.21600 0.85126
895.16756 0.80686
893.11912 0.79458
891.07069 0.79384
889.02225 0.79865
886.97381 0.80911
884.92537 0.83161
882.87693 0.87819
880.82849 0.95327
878.78006 1.03896
876.73162 1.11040
874.68318 1.16559
872.63474 1.21422
870.58630 1.25917
868.53786 1.30061
866.48943 1.33784
864.44099 1.36898
862.39255 1.39323
860.34411 1.41266
858.29567 1.43065
856.24723 1.44904
854.19880 1.46344
852.15036 1.46825
850.10192 1.46852
848.05348 1.47170
846.00504 1.47785
843.95660 1.48440
841.90817 1.49068
839.85973 1.49740
837.81129 1.50454
835.76285 1.51225
833.71441 1.51970
831.66597 1.52442
829.61753 1.52708
827.56910 1.52918
825.52066 1.53060
823.47222 1.53274
821.42378 1.53646
819.37534 1.54047
817.32690 1.54368
815.27847 1.54617
813.23003 1.54937
811.18159 1.55338
809.13315 1.55727
807.08471 1.56099
805.03627 1.56378
802.98784 1.56536
800.93940 1.56748
798.89096 1.57187
796.84252 1.57747
794.79408 1.58170
792.74564 1.58417
790.69721 1.58725
788.64877 1.59201
786.60033 1.59725
784.55189 1.60216
782.50345 1.60584
780.45501 1.60773
778.40658 1.60965
776.35814 1.61356
774.30970 1.61868
772.26126 1.62403
770.21282 1.62998
768.16438 1.63663
766.11595 1.64348
764.06751 1.64941
762.01907 1.65348
759.97063 1.65842
757.92219 1.66758
755.87375 1.67690
753.82532 1.68285
751.77688 1.69090
749.72844 1.70163
747.68000 1.71113
745.63156 1.72126
743.58312 1.73693
741.53469 1.76193
739.48625 1.79555
737.43781 1.84424
735.38937 1.90403
733.34093 1.87727
731.29249 1.69035
729.24406 1.50301
727.19562 1.41889
725.14718 1.42137
723.09874 1.45769
721.05030 1.49569
719.00186 1.52659
716.95343 1.54786
714.90499 1.56444
712.85655 1.58062
710.80811 1.59338
708.75967 1.60072
706.71123 1.60592
704.66280 1.61086
702.61436 1.61548
700.56592 1.62027
698.51748 1.62820
696.46904 1.63957
694.42060 1.64681
692.37216 1.64928
690.32373 1.65318
688.27529 1.65519
686.22685 1.65571
684.17841 1.66040
682.12997 1.66463
680.08153 1.66824
678.03310 1.67310
675.98466 1.67530
673.93622 1.67721
671.88778 1.68277
669.83934 1.69800
667.79090 1.71919
665.74247 1.71708
663.69403 1.70724
661.64559 1.70355
659.59715 1.70657
657.54871 1.71399
655.50027 1.72652
653.45184 1.74099
651.40340 1.74526
649.35496 1.73992
647.30652 1.73393
645.25808 1.72725
643.20964 1.72594
641.16121 1.73778
639.11277 1.75786
637.06433 1.76552
635.01589 1.75439
632.96745 1.74837
630.91901 1.75414
628.87058 1.76211
626.82214 1.77701
624.77370 1.79661
622.72526 1.79864
620.67682 1.78168
618.62838 1.77642
616.57995 1.80394
614.53151 1.83552
612.48307 1.82655
610.43463 1.80444
608.38619 1.81285
606.33775 1.83984
604.28932 1.85960
602.24088 1.85392
600.19244 1.84175
598.14400 1.88633
