3996.50324 1.35607
3994.45480 1.35785
3992.40636 1.35929
3990.35792 1.36104
3988.30948 1.36328
3986.26104 1.36556
3984.21261 1.36725
3982.16417 1.36850
3980.11573 1.36953
3978.06729 1.37049
3976.01885 1.37159
3973.97041 1.37261
3971.92198 1.37355
3969.87354 1.37414
3967.82510 1.37377
3965.77666 1.37227
3963.72822 1.37005
3961.67978 1.36768
3959.63135 1.36488
3957.58291 1.36175
3955.53447 1.35848
3953.48603 1.35467
3951.43759 1.35042
3949.38915 1.34533
3947.34072 1.34016
3945.29228 1.33635
3943.24384 1.33254
3941.19540 1.32775
3939.14696 1.32241
3937.09852 1.31638
3935.05009 1.31032
3933.00165 1.30461
3930.95321 1.29921
3928.90477 1.29454
3926.85633 1.29025
3924.80789 1.28617
3922.75946 1.28245
3920.71102 1.27809
3918.66258 1.27386
3916.61414 1.27181
3914.56570 1.27051
3912.51726 1.26821
3910.46883 1.26564
3908.42039 1.26321
3906.37195 1.26050
3904.32351 1.25887
3902.27507 1.25947
3900.22663 1.26026
3898.17820 1.26014
3896.12976 1.25840
3894.08132 1.25525
3892.03288 1.25376
3889.98444 1.25552
3887.93600 1.25546
3885.88756 1.25401
3883.83913 1.25390
3881.79069 1.25277
3879.74225 1.25221
3877.69381 1.25231
3875.64537 1.25072
3873.59693 1.24968
3871.54850 1.24974
3869.50006 1.25139
3867.45162 1.25270
3865.40318 1.25125
3863.35474 1.25166
3861.30630 1.25349
3859.25787 1.25272
3857.20943 1.25001
3855.16099 1.24640
3853.11255 1.24847
3851.06411 1.25452
3849.01567 1.25467
3846.96724 1.25212
3844.91880 1.24936
3842.87036 1.24781
3840.82192 1.24695
3838.77348 1.24742
3836.72504 1.25137
3834.67661 1.25399
3832.62817 1.25405
3830.57973 1.25371
3828.53129 1.25300
3826.48285 1.25214
3824.43441 1.25048
3822.38598 1.24765
3820.33754 1.24939
3818.28910 1.25228
3816.24066 1.25287
3814.19222 1.25528
3812.14378 1.25621
3810.09535 1.25461
3808.04691 1.25324
3805.99847 1.25440
3803.95003 1.25361
3801.90159 1.25242
3799.85315 1.25596
3797.80472 1.25751
3795.75628 1.25807
3793.70784 1.25882
3791.65940 1.25825
3789.61096 1.25779
3787.56252 1.25794
3785.51409 1.25877
3783.46565 1.25964
3781.41721 1.25909
3779.36877 1.25945
3777.32033 1.26148
3775.27189 1.26202
3773.22346 1.26101
3771.17502 1.26017
3769.12658 1.26156
3767.07814 1.26341
3765.02970 1.26430
3762.98126 1.26447
3760.93283 1.26346
3758.88439 1.26376
3756.83595 1.26561
3754.78751 1.26487
3752.73907 1.26153
3750.69063 1.26356
3748.64219 1.27057
3746.59376 1.27085
3744.54532 1.27154
3742.49688 1.27580
3740.44844 1.27642
3738.40000 1.27486
3736.35156 1.27528
3734.30313 1.27961
3732.25469 1.28347
3730.20625 1.28489
3728.15781 1.28480
3726.10937 1.28533
3724.06093 1.28804
3722.01250 1.29136
3719.96406 1.29382
3717.91562 1.29517
3715.86718 1.29505
3713.81874 1.29308
3711.77030 1.29222
3709.72187 1.29601
3707.67343 1.29803
3705.62499 1.29711
3703.57655 1.29560
3701.52811 1.29558
3699.47967 1.29684
3697.43124 1.29779
3695.38280 1.29858
3693.33436 1.29862
3691.28592 1.29844
3689.23748 1.30172
3687.18904 1.30723
3685.14061 1.30990
3683.09217 1.31078
3681.04373 1.31183
3678.99529 1.31324
3676.94685 1.31440
3674.89841 1.31827
3672.84998 1.32167
3670.80154 1.32211
3668.75310 1.32512
3666.70466 1.32945
3664.65622 1.33229
3662.60778 1.33481
3660.55935 1.33733
3658.51091 1.33910
3656.46247 1.34100
3654.41403 1.34339
3652.36559 1.34437
3650.31715 1.34520
3648.26872 1.35128
3646.22028 1.35860
3644.17184 1.36297
3642.12340 1.36661
3640.07496 1.37084
3638.02652 1.37474
3635.97809 1.37709
3633.92965 1.37872
3631.88121 1.38073
3629.83277 1.38357
3627.78433 1.38884
3625.73589 1.39371
3623.68746 1.39729
3621.63902 1.40083
3619.59058 1.40493
3617.54214 1.40854
3615.49370 1.41108
3613.44526 1.41389
3611.39682 1.41653
3609.34839 1.41785
3607.29995 1.41843
3605.25151 1.41844
3603.20307 1.41700
3601.15463 1.41368
3599.10619 1.40924
3597.05776 1.40538
3595.00932 1.40266
3592.96088 1.40077
3590.91244 1.39862
3588.86400 1.39527
3586.81556 1.39126
3584.76713 1.38886
3582.71869 1.38701
3580.67025 1.38493
3578.62181 1.38363
3576.57337 1.38298
3574.52493 1.38155
3572.47650 1.37931
3570.42806 1.37715
3568.37962 1.37530
3566.33118 1.37355
3564.28274 1.37231
3562.23430 1.37184
3560.18587 1.37166
3558.13743 1.37132
3556.08899 1.37049
3554.04055 1.36901
3551.99211 1.36825
3549.94367 1.36869
3547.89524 1.36842
3545.84680 1.36784
3543.79836 1.36830
3541.74992 1.36854
3539.70148 1.36853
3537.65304 1.36860
3535.60461 1.36845
3533.55617 1.36881
3531.50773 1.36982
3529.45929 1.37070
3527.41085 1.37132
3525.36241 1.37175
3523.31398 1.37226
3521.26554 1.37321
3519.21710 1.37444
3517.16866 1.37548
3515.12022 1.37583
3513.07178 1.37623
3511.02335 1.37740
3508.97491 1.37820
3506.92647 1.37786
3504.87803 1.37768
3502.82959 1.37845
3500.78115 1.37967
3498.73272 1.38098
3496.68428 1.38159
3494.63584 1.38162
3492.58740 1.38222
3490.53896 1.38319
3488.49052 1.38372
3486.44209 1.38359
3484.39365 1.38327
3482.34521 1.38370
3480.29677 1.38532
3478.24833 1.38662
3476.19989 1.38699
3474.15146 1.38768
3472.10302 1.38883
3470.05458 1.38953
3468.00614 1.38989
3465.95770 1.39068
3463.90926 1.39158
3461.86082 1.39201
3459.81239 1.39252
3457.76395 1.39351
3455.71551 1.39451
3453.66707 1.39538
3451.61863 1.39638
3449.57019 1.39713
3447.52176 1.39708
3445.47332 1.39703
3443.42488 1.39800
3441.37644 1.39897
3439.32800 1.39944
3437.27956 1.40049
3435.23113 1.40177
3433.18269 1.40239
3431.13425 1.40290
3429.08581 1.40375
3427.03737 1.40453
3424.98893 1.40515
3422.94050 1.40596
3420.89206 1.40681
3418.84362 1.40696
3416.79518 1.40668
3414.74674 1.40717
3412.69830 1.40852
3410.64987 1.40968
3408.60143 1.41041
3406.55299 1.41156
3404.50455 1.41351
3402.45611 1.41563
3400.40767 1.41652
3398.35924 1.41596
3396.31080 1.41547
3394.26236 1.41555
3392.21392 1.41557
3390.16548 1.41556
3388.11704 1.41620
3386.06861 1.41746
3384.02017 1.41841
3381.97173 1.41878
3379.92329 1.41930
3377.87485 1.42047
3375.82641 1.42169
3373.77798 1.42237
3371.72954 1.42292
3369.68110 1.42365
3367.63266 1.42499
3365.58422 1.42677
3363.53578 1.42744
3361.48735 1.42689
3359.43891 1.42702
3357.39047 1.42852
3355.34203 1.43025
3353.29359 1.43148
3351.24515 1.43235
3349.19672 1.43274
3347.14828 1.43315
3345.09984 1.43432
3343.05140 1.43595
3341.00296 1.43699
3338.95452 1.43699
3336.90609 1.43665
3334.85765 1.43663
3332.80921 1.43700
3330.76077 1.43761
3328.71233 1.43848
3326.66389 1.44002
3324.61545 1.44178
3322.56702 1.44270
3320.51858 1.44341
3318.47014 1.44480
3316.42170 1.44633
3314.37326 1.44775
3312.32482 1.44953
3310.27639 1.45157
3308.22795 1.45334
3306.17951 1.45493
3304.13107 1.45738
3302.08263 1.46055
3300.03419 1.46307
3297.98576 1.46510
3295.93732 1.46716
3293.88888 1.46904
3291.84044 1.47064
3289.79200 1.47159
3287.74356 1.47230
3285.69513 1.47348
3283.64669 1.47427
3281.59825 1.47456
3279.54981 1.47546
3277.50137 1.47662
3275.45293 1.47727
3273.40450 1.47858
3271.35606 1.48072
3269.30762 1.48195
3267.25918 1.48231
3265.21074 1.48336
3263.16230 1.48547
3261.11387 1.48783
3259.06543 1.49051
3257.01699 1.49363
3254.96855 1.49626
3252.92011 1.49808
3250.87167 1.49972
3248.82324 1.50226
3246.77480 1.50528
3244.72636 1.50731
3242.67792 1.50863
3240.62948 1.50957
3238.58104 1.50933
3236.53261 1.50872
3234.48417 1.50811
3232.43573 1.50618
3230.38729 1.50376
3228.33885 1.50245
3226.29041 1.50196
3224.24198 1.50181
3222.19354 1.50163
3220.14510 1.50105
3218.09666 1.50075
3216.04822 1.50144
3213.99978 1.50251
3211.95135 1.50304
3209.90291 1.50329
3207.85447 1.50317
3205.80603 1.50229
3203.75759 1.50173
3201.70915 1.50254
3199.66072 1.50402
3197.61228 1.50479
3195.56384 1.50496
3193.51540 1.50545
3191.46696 1.50641
3189.41852 1.50727
3187.37008 1.50733
3185.32165 1.50668
3183.27321 1.50583
3181.22477 1.50466
3179.17633 1.50327
3177.12789 1.50201
3175.07945 1.50019
3173.03102 1.49765
3170.98258 1.49557
3168.93414 1.49406
3166.88570 1.49282
3164.83726 1.49232
3162.78882 1.49254
3160.74039 1.49285
3158.69195 1.49313
3156.64351 1.49342
3154.59507 1.49318
3152.54663 1.49282
3150.49819 1.49355
3148.44976 1.49546
3146.40132 1.49755
3144.35288 1.49888
3142.30444 1.49924
3140.25600 1.49928
3138.20756 1.50019
3136.15913 1.50216
3134.11069 1.50417
3132.06225 1.50567
3130.01381 1.50685
3127.96537 1.50844
3125.91693 1.51055
3123.86850 1.51222
3121.82006 1.51278
3119.77162 1.51302
3117.72318 1.51384
3115.67474 1.51576
3113.62630 1.51889
3111.57787 1.52181
3109.52943 1.52401
3107.48099 1.52678
3105.43255 1.52997
3103.38411 1.53233
3101.33567 1.53432
3099.28724 1.53698
3097.23880 1.53991
3095.19036 1.54246
3093.14192 1.54494
3091.09348 1.54749
3089.04504 1.54996
3086.99661 1.55294
3084.94817 1.55673
3082.89973 1.56056
3080.85129 1.56439
3078.80285 1.56912
3076.75441 1.57448
3074.70598 1.57988
3072.65754 1.58520
3070.60910 1.58977
3068.56066 1.59426
3066.51222 1.60097
3064.46378 1.61005
3062.41535 1.61910
3060.36691 1.62667
3058.31847 1.63317
3056.27003 1.64008
3054.22159 1.64839
3052.17315 1.65795
3050.12471 1.66909
3048.07628 1.68147
3046.02784 1.69427
3043.97940 1.70898
3041.93096 1.72812
3039.88252 1.75168
3037.83408 1.77800
3035.78565 1.80600
3033.73721 1.83466
3031.68877 1.86174
3029.64033 1.88294
3027.59189 1.89485
3025.54345 1.89785
3023.49502 1.89741
3021.44658 1.89782
3019.39814 1.89792
3017.34970 1.89704
3015.30126 1.89444
3013.25282 1.89051
3011.20439 1.88906
3009.15595 1.89129
3007.10751 1.89425
3005.05907 1.89497
3003.01063 1.89354
3000.96219 1.89214
2998.91376 1.89118
2996.86532 1.89051
2994.81688 1.88978
2992.76844 1.88847
2990.72000 1.88777
2988.67156 1.88769
2986.62313 1.88759
2984.57469 1.88661
2982.52625 1.88346
2980.47781 1.88060
2978.42937 1.88017
2976.38093 1.87889
2974.33250 1.87622
2972.28406 1.87467
2970.23562 1.87294
2968.18718 1.87030
2966.13874 1.86856
2964.09030 1.86765
2962.04187 1.86652
2959.99343 1.86600
2957.94499 1.86770
2955.89655 1.87097
2953.84811 1.87276
2951.79967 1.87297
2949.75124 1.87405
2947.70280 1.87536
2945.65436 1.87502
2943.60592 1.87491
2941.55748 1.87758
2939.50904 1.88099
2937.46061 1.88180
2935.41217 1.88057
2933.36373 1.87967
2931.31529 1.87879
2929.26685 1.87748
2927.21841 1.87703
2925.16998 1.87748
2923.12154 1.87800
2921.07310 1.87866
2919.02466 1.88016
2916.97622 1.88067
2914.92778 1.87981
2912.87934 1.88214
2910.83091 1.88860
2908.78247 1.89488
2906.73403 1.89772
2904.68559 1.89770
2902.63715 1.89779
2900.58871 1.89790
2898.54028 1.89628
2896.49184 1.89501
2894.44340 1.89585
2892.39496 1.89665
2890.34652 1.89595
2888.29808 1.89552
2886.24965 1.89568
2884.20121 1.89546
2882.15277 1.89516
2880.10433 1.89369
2878.05589 1.89132
2876.00745 1.89001
2873.95902 1.88924
2871.91058 1.88869
2869.86214 1.88857
2867.81370 1.88732
2865.76526 1.88492
2863.71682 1.88283
2861.66839 1.87962
2859.61995 1.87334
2857.57151 1.86518
2855.52307 1.85579
2853.47463 1.84394
2851.42619 1.83003
2849.37776 1.81403
2847.32932 1.79535
2845.28088 1.77609
2843.23244 1.75777
2841.18400 1.73926
2839.13556 1.72023
2837.08713 1.70223
2835.03869 1.68657
2832.99025 1.67306
2830.94181 1.66141
2828.89337 1.65194
2826.84493 1.64453
2824.79650 1.63934
2822.74806 1.63714
2820.69962 1.63822
2818.65118 1.64093
2816.60274 1.64112
2814.55430 1.63542
2812.50587 1.62484
2810.45743 1.61252
2808.40899 1.60037
2806.36055 1.58978
2804.31211 1.58126
2802.26367 1.57403
2800.21524 1.56800
2798.16680 1.56383
2796.11836 1.56086
2794.06992 1.55791
2792.02148 1.55541
2789.97304 1.55403
2787.92461 1.55324
2785.87617 1.55222
2783.82773 1.55121
2781.77929 1.55064
2779.73085 1.55000
2777.68241 1.54938
2775.63397 1.54905
2773.58554 1.54876
2771.53710 1.54862
2769.48866 1.54818
2767.44022 1.54715
2765.39178 1.54678
2763.34334 1.54739
2761.29491 1.54757
2759.24647 1.54709
2757.19803 1.54674
2755.14959 1.54694
2753.10115 1.54771
2751.05271 1.54841
2749.00428 1.54900
2746.95584 1.54999
2744.90740 1.55110
2742.85896 1.55181
2740.81052 1.55206
2738.76208 1.55226
2736.71365 1.55305
2734.66521 1.55428
2732.61677 1.55574
2730.56833 1.55766
2728.51989 1.55940
2726.47145 1.56054
2724.42302 1.56175
2722.37458 1.56351
2720.32614 1.56585
2718.27770 1.56859
2716.22926 1.57147
2714.18082 1.57461
2712.13239 1.57777
2710.08395 1.58076
2708.03551 1.58449
2705.98707 1.58902
2703.93863 1.59340
2701.89019 1.59777
2699.84176 1.60278
2697.79332 1.60780
2695.74488 1.61157
2693.69644 1.61477
2691.64800 1.61888
2689.59956 1.62373
2687.55113 1.62857
2685.50269 1.63322
2683.45425 1.63837
2681.40581 1.64505
2679.35737 1.65357
2677.30893 1.66398
2675.26050 1.67605
2673.21206 1.68902
2671.16362 1.70345
2669.11518 1.72146
2667.06674 1.74358
2665.01830 1.76675
2662.96987 1.78770
2660.92143 1.80650
2658.87299 1.82378
2656.82455 1.83974
2654.77611 1.85468
2652.72767 1.86707
2650.67924 1.87595
2648.63080 1.88270
2646.58236 1.88797
2644.53392 1.89189
2642.48548 1.89565
2640.43704 1.89941
2638.38860 1.90288
2636.34017 1.90664
2634.29173 1.90883
2632.24329 1.90762
2630.19485 1.90612
2628.14641 1.90701
2626.09797 1.90821
2624.04954 1.90788
2622.00110 1.90678
2619.95266 1.90514
2617.90422 1.90363
2615.85578 1.90181
2613.80734 1.89841
2611.75891 1.89611
2609.71047 1.89574
2607.66203 1.89464
2605.61359 1.89273
2603.56515 1.89063
2601.51671 1.89036
2599.46828 1.89351
2597.41984 1.89719
2595.37140 1.90007
2593.32296 1.90376
2591.27452 1.90842
2589.22608 1.91138
2587.17765 1.91082
2585.12921 1.91038
2583.08077 1.91186
2581.03233 1.91275
2578.98389 1.91387
2576.93545 1.91527
2574.88702 1.91439
2572.83858 1.91308
2570.79014 1.91424
2568.74170 1.91644
2566.69326 1.91722
2564.64482 1.91726
2562.59639 1.91816
2560.54795 1.91871
2558.49951 1.91800
2556.45107 1.91708
2554.40263 1.91662
2552.35419 1.91704
2550.30576 1.91788
2548.25732 1.91796
2546.20888 1.91719
2544.16044 1.91679
2542.11200 1.91663
2540.06356 1.91567
2538.01513 1.91521
2535.96669 1.91529
2533.91825 1.91486
2531.86981 1.91478
2529.82137 1.91385
2527.77293 1.91144
2525.72450 1.91029
2523.67606 1.91085
2521.62762 1.91098
2519.57918 1.90960
2517.53074 1.90685
2515.48230 1.90400
2513.43387 1.90181
2511.38543 1.89953
2509.33699 1.89723
2507.28855 1.89584
2505.24011 1.89497
2503.19167 1.89342
2501.14324 1.89111
2499.09480 1.88832
2497.04636 1.88524
2494.99792 1.88171
2492.94948 1.87606
2490.90104 1.86839
2488.85260 1.86031
2486.80417 1.85122
2484.75573 1.84138
2482.70729 1.83241
2480.65885 1.82371
2478.61041 1.81385
2476.56197 1.80301
2474.51354 1.79180
2472.46510 1.78121
2470.41666 1.77225
2468.36822 1.76481
2466.31978 1.75842
2464.27134 1.75185
2462.22291 1.74381
2460.17447 1.73501
2458.12603 1.72733
2456.07759 1.72108
2454.02915 1.71510
2451.98071 1.70905
2449.93228 1.70315
2447.88384 1.69742
2445.83540 1.69226
2443.78696 1.68839
2441.73852 1.68549
2439.69008 1.68256
2437.64165 1.67923
2435.59321 1.67594
2433.54477 1.67347
2431.49633 1.67205
2429.44789 1.67101
2427.39945 1.66993
2425.35102 1.66919
2423.30258 1.66853
2421.25414 1.66742
2419.20570 1.66651
2417.15726 1.66608
2415.10882 1.66578
2413.06039 1.66544
2411.01195 1.66500
2408.96351 1.66427
2406.91507 1.66307
2404.86663 1.66114
2402.81819 1.65824
2400.76976 1.65511
2398.72132 1.65232
2396.67288 1.64974
2394.62444 1.64798
2392.57600 1.64716
2390.52756 1.64665
2388.47913 1.64652
2386.43069 1.64629
2384.38225 1.64504
2382.33381 1.64359
2380.28537 1.64273
2378.23693 1.64203
2376.18850 1.64207
2374.14006 1.64360
2372.09162 1.64497
2370.04318 1.64361
2367.99474 1.64140
2365.94630 1.64186
2363.89787 1.64049
2361.84943 1.63314
2359.80099 1.62811
2357.75255 1.63264
2355.70411 1.64126
2353.65567 1.64714
2351.60723 1.65138
2349.55880 1.65459
2347.51036 1.65607
2345.46192 1.65715
2343.41348 1.66011
2341.36504 1.66387
2339.31660 1.66736
2337.26817 1.66992
2335.21973 1.66997
2333.17129 1.66962
2331.12285 1.66998
2329.07441 1.67090
2327.02597 1.67256
2324.97754 1.67440
2322.92910 1.67620
2320.88066 1.67650
2318.83222 1.67571
2316.78378 1.67497
2314.73534 1.67372
2312.68691 1.67200
2310.63847 1.67113
2308.59003 1.67198
2306.54159 1.67223
2304.49315 1.66845
2302.44471 1.66160
2300.39628 1.65580
2298.34784 1.65263
2296.29940 1.65100
2294.25096 1.64996
2292.20252 1.64942
2290.15408 1.65014
2288.10565 1.65236
2286.05721 1.65584
2284.00877 1.66010
2281.96033 1.66422
2279.91189 1.66855
2277.86345 1.67327
2275.81502 1.67780
2273.76658 1.68267
2271.71814 1.68793
2269.66970 1.69277
2267.62126 1.69726
2265.57282 1.70241
2263.52439 1.70819
2261.47595 1.71386
2259.42751 1.71931
2257.37907 1.72401
2255.33063 1.72706
2253.28219 1.72850
2251.23376 1.72943
2249.18532 1.72935
2247.13688 1.72706
2245.08844 1.72421
2243.04000 1.72174
2240.99156 1.71809
2238.94313 1.71356
2236.89469 1.70994
2234.84625 1.70706
2232.79781 1.70447
2230.74937 1.70274
2228.70093 1.70197
2226.65250 1.70256
2224.60406 1.70469
2222.55562 1.70801
2220.50718 1.71313
2218.45874 1.72021
2216.41030 1.72775
2214.36186 1.73513
2212.31343 1.74154
2210.26499 1.74509
2208.21655 1.74799
2206.16811 1.75289
2204.11967 1.75733
2202.07123 1.75981
2200.02280 1.76219
2197.97436 1.76583
2195.92592 1.77067
2193.87748 1.77547
2191.82904 1.77995
2189.78060 1.78515
2187.73217 1.79117
2185.68373 1.79724
2183.63529 1.80345
2181.58685 1.80993
2179.53841 1.81581
2177.48997 1.82174
2175.44154 1.82796
2173.39310 1.83432
2171.34466 1.84184
2169.29622 1.84874
2167.24778 1.85236
2165.19934 1.85326
2163.15091 1.85350
2161.10247 1.85421
2159.05403 1.85459
2157.00559 1.85372
2154.95715 1.85240
2152.90871 1.85090
2150.86028 1.84814
2148.81184 1.84441
2146.76340 1.83969
2144.71496 1.83235
2142.66652 1.82289
2140.61808 1.81267
2138.56965 1.80129
2136.52121 1.78873
2134.47277 1.77718
2132.42433 1.76896
2130.37589 1.76302
2128.32745 1.75729
2126.27902 1.75202
2124.23058 1.74787
2122.18214 1.74469
2120.13370 1.74214
2118.08526 1.73957
2116.03682 1.73711
2113.98839 1.73543
2111.93995 1.73451
2109.89151 1.73393
2107.84307 1.73343
2105.79463 1.73353
2103.74619 1.73414
2101.69776 1.73472
2099.64932 1.73548
2097.60088 1.73645
2095.55244 1.73718
2093.50400 1.73741
2091.45556 1.73761
2089.40713 1.73807
2087.35869 1.73832
2085.31025 1.73878
2083.26181 1.74012
2081.21337 1.74142
2079.16493 1.74157
2077.11649 1.74106
2075.06806 1.74144
2073.01962 1.74312
2070.97118 1.74524
2068.92274 1.74674
2066.87430 1.74749
2064.82586 1.74888
2062.77743 1.75069
2060.72899 1.75169
2058.68055 1.75283
2056.63211 1.75447
2054.58367 1.75491
2052.53523 1.75406
2050.48680 1.75414
2048.43836 1.75637
2046.38992 1.75963
2044.34148 1.76220
2042.29304 1.76367
2040.24460 1.76485
2038.19617 1.76636
2036.14773 1.76787
2034.09929 1.76867
2032.05085 1.76979
2030.00241 1.77253
2027.95397 1.77535
2025.90554 1.77749
2023.85710 1.78029
2021.80866 1.78271
2019.76022 1.78292
2017.71178 1.78332
2015.66334 1.78584
2013.61491 1.78858
2011.56647 1.79070
2009.51803 1.79227
2007.46959 1.79401
2005.42115 1.79677
2003.37271 1.79986
2001.32428 1.80244
1999.27584 1.80417
1997.22740 1.80572
1995.17896 1.80809
1993.13052 1.81151
1991.08208 1.81577
1989.03365 1.82095
1986.98521 1.82726
1984.93677 1.83445
1982.88833 1.84307
1980.83989 1.85413
1978.79145 1.86727
1976.74302 1.88020
1974.69458 1.88870
1972.64614 1.88968
1970.59770 1.88484
1968.54926 1.87824
1966.50082 1.87191
1964.45239 1.86678
1962.40395 1.86423
1960.35551 1.86509
1958.30707 1.86780
1956.25863 1.87071
1954.21019 1.87379
1952.16176 1.87700
1950.11332 1.87935
1948.06488 1.88100
1946.01644 1.88314
1943.96800 1.88666
1941.91956 1.89168
1939.87112 1.89557
1937.82269 1.89842
1935.77425 1.90258
1933.72581 1.90750
1931.67737 1.91143
1929.62893 1.91497
1927.58049 1.91988
1925.53206 1.92664
1923.48362 1.93446
1921.43518 1.94056
1919.38674 1.94426
1917.33830 1.94841
1915.28986 1.95362
1913.24143 1.95894
1911.19299 1.96429
1909.14455 1.96979
1907.09611 1.97574
1905.04767 1.98180
1902.99923 1.98849
1900.95080 1.99507
1898.90236 1.99998
1896.85392 2.00423
1894.80548 2.01005
1892.75704 2.01675
1890.70860 2.02174
1888.66017 2.02614
1886.61173 2.03080
1884.56329 2.03581
1882.51485 2.04092
1880.46641 2.04607
1878.41797 2.05247
1876.36954 2.05826
1874.32110 2.06105
1872.27266 2.06288
1870.22422 2.06814
1868.17578 2.07502
1866.12734 2.07898
1864.07891 2.08452
1862.03047 2.09401
1859.98203 2.10308
1857.93359 2.10962
1855.88515 2.11562
1853.83671 2.12037
1851.78828 2.12615
1849.73984 2.13496
1847.69140 2.14221
1845.64296 2.14584
1843.59452 2.15255
1841.54608 2.16196
1839.49765 2.16966
1837.44921 2.17709
1835.40077 2.18556
1833.35233 2.19308
1831.30389 2.20004
1829.25545 2.21181
1827.20702 2.22436
1825.15858 2.23233
1823.11014 2.23405
1821.06170 2.22894
1819.01326 2.22276
1816.96482 2.22079
1814.91639 2.21866
1812.86795 2.21167
1810.81951 2.20293
1808.77107 2.19573
1806.72263 2.18906
1804.67419 2.18473
1802.62575 2.18510
1800.57732 2.18927
1798.52888 2.19516
1796.48044 2.20170
1794.43200 2.20973
1792.38356 2.21686
1790.33512 2.22128
1788.28669 2.22713
1786.23825 2.23554
1784.18981 2.24240
1782.14137 2.24610
1780.09293 2.25111
1778.04449 2.25547
1775.99606 2.25817
1773.94762 2.26315
1771.89918 2.26930
1769.85074 2.27404
1767.80230 2.28017
1765.75386 2.28427
1763.70543 2.28651
1761.65699 2.29153
1759.60855 2.29809
1757.56011 2.30310
1755.51167 2.30584
1753.46323 2.30810
1751.41480 2.31385
1749.36636 2.32041
1747.31792 2.32337
1745.26948 2.33006
1743.22104 2.33881
1741.17260 2.34647
1739.12417 2.35156
1737.07573 2.35435
1735.02729 2.36624
1732.97885 2.38114
1730.93041 2.37863
1728.88197 2.37694
1726.83354 2.38037
1724.78510 2.38648
1722.73666 2.39765
1720.68822 2.41040
1718.63978 2.42204
1716.59134 2.43316
1714.54291 2.43378
1712.49447 2.43183
1710.44603 2.43850
1708.39759 2.45240
1706.34915 2.47357
1704.30071 2.49889
1702.25228 2.51290
1700.20384 2.52212
1698.15540 2.53269
1696.10696 2.54478
1694.05852 2.55667
1692.01008 2.56433
1689.96165 2.57537
1687.91321 2.58735
1685.86477 2.60002
1683.81633 2.61126
1681.76789 2.61389
1679.71945 2.62397
1677.67102 2.63914
1675.62258 2.64516
1673.57414 2.64114
1671.52570 2.64701
1669.47726 2.66336
1667.42882 2.67855
1665.38038 2.69425
1663.33195 2.71717
1661.28351 2.73020
1659.23507 2.73094
1657.18663 2.73154
1655.13819 2.74049
1653.08975 2.76406
1651.04132 2.77385
1648.99288 2.78775
1646.94444 2.77268
1644.89600 2.71822
1642.84756 2.69303
1640.79912 2.69183
1638.75069 2.69941
1636.70225 2.70064
1634.65381 2.65789
1632.60537 2.62212
1630.55693 2.59746
1628.50849 2.56026
1626.46006 2.51964
1624.41162 2.47539
1622.36318 2.41918
1620.31474 2.37299
1618.26630 2.33198
1616.21786 2.27139
1614.16943 2.21501
1612.12099 2.16612
1610.07255 2.11153
1608.02411 2.05396
1605.97567 2.00135
1603.92723 1.94818
1601.87880 1.88962
1599.83036 1.83012
1597.78192 1.76857
1595.73348 1.69911
1593.68504 1.62215
1591.63660 1.53987
1589.58817 1.44752
1587.53973 1.34695
1585.49129 1.24282
1583.44285 1.14081
1581.39441 1.05126
1579.34597 0.98080
1577.29754 0.90543
1575.24910 0.81398
1573.20066 0.75840
1571.15222 0.71998
1569.10378 0.67980
1567.05534 0.65434
1565.00691 0.64050
1562.95847 0.62973
1560.91003 0.62036
1558.86159 0.60830
1556.81315 0.60242
1554.76471 0.59960
1552.71628 0.59578
1550.66784 0.59210
1548.61940 0.58872
1546.57096 0.58544
1544.52252 0.58156
1542.47408 0.57729
1540.42565 0.57543
1538.37721 0.57695
1536.32877 0.57623
1534.28033 0.57501
1532.23189 0.57469
1530.18345 0.57404
1528.13501 0.57295
1526.08658 0.57254
1524.03814 0.57245
1521.98970 0.57447
1519.94126 0.57976
1517.89282 0.58572
1515.84438 0.59473
1513.79595 0.60373
1511.74751 0.61186
1509.69907 0.61983
1507.65063 0.63778
1505.60219 0.67053
1503.55375 0.68361
1501.50532 0.69065
1499.45688 0.69934
1497.40844 0.71157
1495.36000 0.72314
1493.31156 0.72894
1491.26312 0.73304
1489.21469 0.74091
1487.16625 0.74884
1485.11781 0.75293
1483.06937 0.75571
1481.02093 0.75887
1478.97249 0.76178
1476.92406 0.76394
1474.87562 0.76657
1472.82718 0.77164
1470.77874 0.77694
1468.73030 0.77895
1466.68186 0.78071
1464.63343 0.78464
1462.58499 0.78827
1460.53655 0.78966
1458.48811 0.79223
1456.43967 0.80107
1454.39123 0.80734
1452.34280 0.81028
1450.29436 0.81300
1448.24592 0.81662
1446.19748 0.82045
1444.14904 0.82301
1442.10060 0.82417
1440.05217 0.82401
1438.00373 0.82329
1435.95529 0.82358
1433.90685 0.82347
1431.85841 0.82249
1429.80997 0.82212
1427.76154 0.82214
1425.71310 0.82240
1423.66466 0.82369
1421.61622 0.82603
1419.56778 0.83185
1417.51934 0.84395
1415.47091 0.85688
1413.42247 0.87274
1411.37403 0.89508
1409.32559 0.92021
1407.27715 0.94330
1405.22871 0.96701
1403.18028 0.98899
1401.13184 1.00514
1399.08340 1.02097
1397.03496 1.03797
1394.98652 1.05606
1392.93808 1.07317
1390.88965 1.08540
1388.84121 1.09662
1386.79277 1.11042
1384.74433 1.12244
1382.69589 1.13171
1380.64745 1.14071
1378.59901 1.14954
1376.55058 1.15768
1374.50214 1.16682
1372.45370 1.17653
1370.40526 1.18456
1368.35682 1.19251
1366.30838 1.19980
1364.25995 1.20688
1362.21151 1.21571
1360.16307 1.22410
1358.11463 1.23032
1356.06619 1.23630
1354.01775 1.24271
1351.96932 1.24906
1349.92088 1.25519
1347.87244 1.26118
1345.82400 1.26732
1343.77556 1.27299
1341.72712 1.27835
1339.67869 1.28457
1337.63025 1.29112
1335.58181 1.29631
1333.53337 1.30100
1331.48493 1.30576
1329.43649 1.31073
1327.38806 1.31557
1325.33962 1.32005
1323.29118 1.32436
1321.24274 1.32839
1319.19430 1.33271
1317.14586 1.33718
1315.09743 1.34149
1313.04899 1.34540
1311.00055 1.34912
1308.95211 1.35294
1306.90367 1.35684
1304.85523 1.36039
1302.80680 1.36373
1300.75836 1.36707
1298.70992 1.37033
1296.66148 1.37387
1294.61304 1.37737
1292.56460 1.38039
1290.51617 1.38296
1288.46773 1.38576
1286.41929 1.38865
1284.37085 1.39145
1282.32241 1.39407
1280.27397 1.39644
1278.22554 1.39867
1276.17710 1.40070
1274.12866 1.40271
1272.08022 1.40486
1270.03178 1.40720
1267.98334 1.40936
1265.93491 1.41132
1263.88647 1.41339
1261.83803 1.41621
1259.78959 1.42010
1257.74115 1.42432
1255.69271 1.42775
1253.64428 1.43045
1251.59584 1.43313
1249.54740 1.43585
1247.49896 1.43835
1245.45052 1.44038
1243.40208 1.44248
1241.35364 1.44478
1239.30521 1.44694
1237.25677 1.44877
1235.20833 1.45063
1233.15989 1.45269
1231.11145 1.45448
1229.06301 1.45567
1227.01458 1.45651
1224.96614 1.45763
1222.91770 1.45904
1220.86926 1.46055
1218.82082 1.46198
1216.77238 1.46330
1214.72395 1.46446
1212.67551 1.46558
1210.62707 1.46681
1208.57863 1.46814
1206.53019 1.46965
1204.48175 1.47123
1202.43332 1.47276
1200.38488 1.47451
1198.33644 1.47628
1196.28800 1.47782
1194.23956 1.47921
1192.19112 1.47984
1190.14269 1.47995
1188.09425 1.48081
1186.04581 1.48237
1183.99737 1.48357
1181.94893 1.48426
1179.90049 1.48501
1177.85206 1.48620
1175.80362 1.48731
1173.75518 1.48802
1171.70674 1.48884
1169.65830 1.48964
1167.60986 1.49022
1165.56143 1.49103
1163.51299 1.49211
1161.46455 1.49290
1159.41611 1.49345
1157.36767 1.49426
1155.31923 1.49545
1153.27080 1.49675
1151.22236 1.49795
1149.17392 1.49857
1147.12548 1.49861
1145.07704 1.49866
1143.02860 1.49869
1140.98017 1.49872
1138.93173 1.49899
1136.88329 1.49909
1134.83485 1.49897
1132.78641 1.49893
1130.73797 1.49876
1128.68954 1.49833
1126.64110 1.49788
1124.59266 1.49811
1122.54422 1.49857
1120.49578 1.49818
1118.44734 1.49753
1116.39891 1.49723
1114.35047 1.49676
1112.30203 1.49619
1110.25359 1.49620
1108.20515 1.49698
1106.15671 1.49842
1104.10827 1.50011
1102.05984 1.50140
1100.01140 1.50172
1097.96296 1.50065
1095.91452 1.49915
1093.86608 1.49898
1091.81764 1.50000
1089.76921 1.50134
1087.72077 1.50260
1085.67233 1.50353
1083.62389 1.50501
1081.57545 1.50777
1079.52701 1.51093
1077.47858 1.51344
1075.43014 1.51573
1073.38170 1.51852
1071.33326 1.52142
1069.28482 1.52404
1067.23638 1.52631
1065.18795 1.52796
1063.13951 1.52944
1061.09107 1.53107
1059.04263 1.53287
1056.99419 1.53510
1054.94575 1.53731
1052.89732 1.53934
1050.84888 1.54174
1048.80044 1.54455
1046.75200 1.54704
1044.70356 1.54889
1042.65512 1.55037
1040.60669 1.55165
1038.55825 1.55245
1036.50981 1.55266
1034.46137 1.55263
1032.41293 1.55207
1030.36449 1.55040
1028.31606 1.54806
1026.26762 1.54586
1024.21918 1.54286
1022.17074 1.53815
1020.12230 1.53303
1018.07386 1.53043
1016.02543 1.53224
1013.97699 1.53786
1011.92855 1.54651
1009.88011 1.55788
1007.83167 1.57018
1005.78323 1.58089
1003.73480 1.58924
1001.68636 1.59671
999.63792 1.60455
997.58948 1.61189
995.54104 1.61809
993.49260 1.62301
991.44417 1.62658
989.39573 1.62961
987.34729 1.63240
985.29885 1.63469
983.25041 1.63688
981.20197 1.63920
979.15354 1.64122
977.10510 1.64309
975.05666 1.64560
973.00822 1.64819
970.95978 1.64969
968.91134 1.65086
966.86290 1.65295
964.81447 1.65594
962.76603 1.65923
960.71759 1.66210
958.66915 1.66449
956.62071 1.66784
954.57227 1.67237
952.52384 1.67607
950.47540 1.67849
948.42696 1.68107
946.37852 1.68393
944.33008 1.68689
942.28164 1.68985
940.23321 1.69233
938.18477 1.69532
936.13633 1.69925
934.08789 1.70367
932.03945 1.70759
929.99101 1.71123
927.94258 1.71578
925.89414 1.72142
923.84570 1.72766
921.79726 1.73287
919.74882 1.73643
917.70038 1.73979
915.65195 1.74334
913.60351 1.74534
911.55507 1.74447
909.50663 1.73712
907.45819 1.71254
905.40975 1.64733
903.36132 1.49042
901.31288 1.24631
899.26444 1.02796
897.21600 0.90000
895.16756 0.84887
893.11912 0.83582
891.07069 0.83570
889.02225 0.84085
886.97381 0.85117
884.92537 0.87361
882.87693 0.92088
880.82849 0.99799
878.78006 1.08651
876.73162 1.15914
874.68318 1.21347
872.63474 1.26094
870.58630 1.30554
868.53786 1.34769
866.48943 1.38538
864.44099 1.41617
862.39255 1.44101
860.34411 1.46167
858.29567 1.47944
856.24723 1.49732
854.19880 1.51243
852.15036 1.51759
850.10192 1.51671
848.05348 1.51797
846.00504 1.52201
843.95660 1.52673
841.90817 1.53147
839.85973 1.53505
837.81129 1.53785
835.76285 1.54266
833.71441 1.54886
831.66597 1.55252
829.61753 1.55336
827.56910 1.55380
825.52066 1.55559
823.47222 1.55823
821.42378 1.56015
819.37534 1.56207
817.32690 1.56439
815.27847 1.56588
813.23003 1.56681
811.18159 1.56887
809.13315 1.57204
807.08471 1.57445
805.03627 1.57616
802.98784 1.57960
800.93940 1.58396
798.89096 1.58675
796.84252 1.58962
794.79408 1.59477
792.74564 1.60093
790.69721 1.60612
788.64877 1.61124
786.60033 1.61653
784.55189 1.61968
782.50345 1.62200
780.45501 1.62711
778.40658 1.63419
776.35814 1.63940
774.30970 1.64234
772.26126 1.64664
770.21282 1.65319
768.16438 1.65774
766.11595 1.66072
764.06751 1.66712
762.01907 1.67600
759.97063 1.68544
757.92219 1.69497
755.87375 1.70273
753.82532 1.71064
751.77688 1.72103
749.72844 1.73289
747.68000 1.74628
745.63156 1.76017
743.58312 1.77539
741.53469 1.79671
739.48625 1.82948
737.43781 1.88136
735.38937 1.94774
733.34093 1.94106
731.29249 1.76282
729.24406 1.56480
727.19562 1.46828
725.14718 1.46237
723.09874 1.49431
721.05030 1.52709
719.00186 1.55335
716.95343 1.57721
714.90499 1.59774
712.85655 1.61128
710.80811 1.62021
708.75967 1.62733
706.71123 1.63373
704.66280 1.64135
702.61436 1.64874
700.56592 1.65346
698.51748 1.65568
696.46904 1.65819
694.42060 1.66438
692.37216 1.67165
690.32373 1.67476
688.27529 1.67445
686.22685 1.67650
684.17841 1.68097
682.12997 1.68298
680.08153 1.68391
678.03310 1.68304
675.98466 1.67921
673.93622 1.68112
671.88778 1.68930
669.83934 1.69587
667.79090 1.69711
665.74247 1.69519
663.69403 1.70040
661.64559 1.71710
659.59715 1.73123
657.54871 1.72733
655.50027 1.71952
653.45184 1.72159
651.40340 1.72684
649.35496 1.73302
647.30652 1.73954
645.25808 1.74231
643.20964 1.74400
641.16121 1.74187
639.11277 1.73321
637.06433 1.72818
635.01589 1.73154
632.96745 1.73169
630.91901 1.72747
628.87058 1.73148
626.82214 1.74633
624.77370 1.76161
622.72526 1.76655
620.67682 1.77084
618.62838 1.78708
616.57995 1.78511
614.53151 1.75119
612.48307 1.72445
610.43463 1.72579
608.38619 1.75759
606.33775 1.78097
604.28932 1.77345
602.24088 1.78220
600.19244 1.81266
598.14400 1.83100
