3996.50324 1.18910
3994.45480 1.19046
3992.40636 1.19128
3990.35792 1.19200
3988.30948 1.19307
3986.26104 1.19393
3984.21261 1.19465
3982.16417 1.19548
3980.11573 1.19584
3978.06729 1.19602
3976.01885 1.19677
3973.97041 1.19758
3971.92198 1.19772
3969.87354 1.19700
3967.82510 1.19575
3965.77666 1.19465
3963.72822 1.19363
3961.67978 1.19226
3959.63135 1.19053
3957.58291 1.18877
3955.53447 1.18707
3953.48603 1.18518
3951.43759 1.18296
3949.38915 1.18085
3947.34072 1.17881
3945.29228 1.17608
3943.24384 1.17268
3941.19540 1.16925
3939.14696 1.16606
3937.09852 1.16303
3935.05009 1.16000
3933.00165 1.15631
3930.95321 1.15234
3928.90477 1.14935
3926.85633 1.14695
3924.80789 1.14477
3922.75946 1.14242
3920.71102 1.13964
3918.66258 1.13739
3916.61414 1.13626
3914.56570 1.13538
3912.51726 1.13420
3910.46883 1.13268
3908.42039 1.13074
3906.37195 1.12873
3904.32351 1.12767
3902.27507 1.12747
3900.22663 1.12716
3898.17820 1.12704
3896.12976 1.12655
3894.08132 1.12547
3892.03288 1.12501
3889.98444 1.12502
3887.93600 1.12385
3885.88756 1.12274
3883.83913 1.12269
3881.79069 1.12211
3879.74225 1.12177
3877.69381 1.12119
3875.64537 1.11964
3873.59693 1.11871
3871.54850 1.11847
3869.50006 1.11923
3867.45162 1.11986
3865.40318 1.11898
3863.35474 1.11884
3861.30630 1.11927
3859.25787 1.11856
3857.20943 1.11693
3855.16099 1.11501
3853.11255 1.11612
3851.06411 1.11866
3849.01567 1.11850
3846.96724 1.11766
3844.91880 1.11673
3842.87036 1.11573
3840.82192 1.11498
3838.77348 1.11530
3836.72504 1.11652
3834.67661 1.11634
3832.62817 1.11546
3830.57973 1.11505
3828.53129 1.11498
3826.48285 1.11508
3824.43441 1.11448
3822.38598 1.11359
3820.33754 1.11515
3818.28910 1.11600
3816.24066 1.11509
3814.19222 1.11524
3812.14378 1.11533
3810.09535 1.11450
3808.04691 1.11316
3805.99847 1.11249
3803.95003 1.11196
3801.90159 1.11211
3799.85315 1.11359
3797.80472 1.11349
3795.75628 1.11348
3793.70784 1.11428
3791.65940 1.11430
3789.61096 1.11347
3787.56252 1.11252
3785.51409 1.11227
3783.46565 1.11242
3781.41721 1.11224
3779.36877 1.11291
3777.32033 1.11386
3775.27189 1.11346
3773.22346 1.11252
3771.17502 1.11191
3769.12658 1.11196
3767.07814 1.11190
3765.02970 1.11182
3762.98126 1.11174
3760.93283 1.11120
3758.88439 1.11143
3756.83595 1.11202
3754.78751 1.11086
3752.73907 1.10870
3750.69063 1.10935
3748.64219 1.11174
3746.59376 1.11162
3744.54532 1.11180
3742.49688 1.11332
3740.44844 1.11356
3738.40000 1.11243
3736.35156 1.11102
3734.30313 1.11138
3732.25469 1.11308
3730.20625 1.11375
3728.15781 1.11351
3726.10937 1.11363
3724.06093 1.11480
3722.01250 1.11580
3719.96406 1.11591
3717.91562 1.11591
3715.86718 1.11593
3713.81874 1.11495
3711.77030 1.11308
3709.72187 1.11237
3707.67343 1.11226
3705.62499 1.11134
3703.57655 1.11008
3701.52811 1.10963
3699.47967 1.10973
3697.43124 1.10946
3695.38280 1.10881
3693.33436 1.10792
3691.28592 1.10729
3689.23748 1.10785
3687.18904 1.10888
3685.14061 1.10934
3683.09217 1.10945
3681.04373 1.10928
3678.99529 1.10886
3676.94685 1.10831
3674.89841 1.10980
3672.84998 1.11168
3670.80154 1.11167
3668.75310 1.11220
3666.70466 1.11338
3664.65622 1.11416
3662.60778 1.11500
3660.55935 1.11580
3658.51091 1.11616
3656.46247 1.11678
3654.41403 1.11765
3652.36559 1.11748
3650.31715 1.11755
3648.26872 1.12165
3646.22028 1.12586
3644.17184 1.12801
3642.12340 1.12972
3640.07496 1.13137
3638.02652 1.13286
3635.97809 1.13433
3633.92965 1.13610
3631.88121 1.13774
3629.83277 1.13940
3627.78433 1.14204
3625.73589 1.14378
3623.68746 1.14492
3621.63902 1.14657
3619.59058 1.14911
3617.54214 1.15162
3615.49370 1.15309
3613.44526 1.15433
3611.39682 1.15571
3609.34839 1.15648
3607.29995 1.15675
3605.25151 1.15678
3603.20307 1.15591
3601.15463 1.15422
3599.10619 1.15265
3597.05776 1.15123
3595.00932 1.14959
3592.96088 1.14803
3590.91244 1.14636
3588.86400 1.14445
3586.81556 1.14296
3584.76713 1.14231
3582.71869 1.14172
3580.67025 1.14066
3578.62181 1.13924
3576.57337 1.13804
3574.52493 1.13746
3572.47650 1.13729
3570.42806 1.13698
3568.37962 1.13621
3566.33118 1.13533
3564.28274 1.13478
3562.23430 1.13433
3560.18587 1.13399
3558.13743 1.13384
3556.08899 1.13376
3554.04055 1.13369
3551.99211 1.13339
3549.94367 1.13303
3547.89524 1.13295
3545.84680 1.13335
3543.79836 1.13450
3541.74992 1.13558
3539.70148 1.13593
3537.65304 1.13623
3535.60461 1.13691
3533.55617 1.13767
3531.50773 1.13829
3529.45929 1.13849
3527.41085 1.13857
3525.36241 1.13935
3523.31398 1.14048
3521.26554 1.14136
3519.21710 1.14229
3517.16866 1.14357
3515.12022 1.14476
3513.07178 1.14552
3511.02335 1.14595
3508.97491 1.14636
3506.92647 1.14707
3504.87803 1.14797
3502.82959 1.14896
3500.78115 1.15000
3498.73272 1.15087
3496.68428 1.15182
3494.63584 1.15304
3492.58740 1.15395
3490.53896 1.15447
3488.49052 1.15499
3486.44209 1.15563
3484.39365 1.15655
3482.34521 1.15791
3480.29677 1.15938
3478.24833 1.16055
3476.19989 1.16148
3474.15146 1.16258
3472.10302 1.16401
3470.05458 1.16535
3468.00614 1.16653
3465.95770 1.16756
3463.90926 1.16822
3461.86082 1.16889
3459.81239 1.17003
3457.76395 1.17126
3455.71551 1.17239
3453.66707 1.17348
3451.61863 1.17443
3449.57019 1.17528
3447.52176 1.17651
3445.47332 1.17836
3443.42488 1.17969
3441.37644 1.18041
3439.32800 1.18173
3437.27956 1.18369
3435.23113 1.18546
3433.18269 1.18668
3431.13425 1.18763
3429.08581 1.18874
3427.03737 1.19008
3424.98893 1.19145
3422.94050 1.19279
3420.89206 1.19427
3418.84362 1.19567
3416.79518 1.19671
3414.74674 1.19778
3412.69830 1.19901
3410.64987 1.20049
3408.60143 1.20235
3406.55299 1.20414
3404.50455 1.20578
3402.45611 1.20730
3400.40767 1.20844
3398.35924 1.20900
3396.31080 1.20921
3394.26236 1.21014
3392.21392 1.21208
3390.16548 1.21398
3388.11704 1.21527
3386.06861 1.21622
3384.02017 1.21733
3381.97173 1.21898
3379.92329 1.22083
3377.87485 1.22235
3375.82641 1.22369
3373.77798 1.22527
3371.72954 1.22692
3369.68110 1.22823
3367.63266 1.22926
3365.58422 1.23035
3363.53578 1.23177
3361.48735 1.23338
3359.43891 1.23461
3357.39047 1.23545
3355.34203 1.23642
3353.29359 1.23767
3351.24515 1.23917
3349.19672 1.24066
3347.14828 1.24181
3345.09984 1.24277
3343.05140 1.24364
3341.00296 1.24437
3338.95452 1.24508
3336.90609 1.24573
3334.85765 1.24629
3332.80921 1.24732
3330.76077 1.24887
3328.71233 1.25027
3326.66389 1.25131
3324.61545 1.25231
3322.56702 1.25322
3320.51858 1.25392
3318.47014 1.25493
3316.42170 1.25678
3314.37326 1.25870
3312.32482 1.25968
3310.27639 1.26034
3308.22795 1.26151
3306.17951 1.26279
3304.13107 1.26393
3302.08263 1.26540
3300.03419 1.26695
3297.98576 1.26813
3295.93732 1.26917
3293.88888 1.27060
3291.84044 1.27206
3289.79200 1.27247
3287.74356 1.27249
3285.69513 1.27310
3283.64669 1.27395
3281.59825 1.27490
3279.54981 1.27578
3277.50137 1.27648
3275.45293 1.27765
3273.40450 1.27937
3271.35606 1.28084
3269.30762 1.28159
3267.25918 1.28201
3265.21074 1.28244
3263.16230 1.28284
3261.11387 1.28354
3259.06543 1.28476
3257.01699 1.28606
3254.96855 1.28705
3252.92011 1.28763
3250.87167 1.28820
3248.82324 1.28939
3246.77480 1.29083
3244.72636 1.29202
3242.67792 1.29297
3240.62948 1.29359
3238.58104 1.29395
3236.53261 1.29415
3234.48417 1.29430
3232.43573 1.29442
3230.38729 1.29426
3228.33885 1.29420
3226.29041 1.29478
3224.24198 1.29542
3222.19354 1.29593
3220.14510 1.29693
3218.09666 1.29781
3216.04822 1.29799
3213.99978 1.29825
3211.95135 1.29904
3209.90291 1.29995
3207.85447 1.30043
3205.80603 1.30044
3203.75759 1.30069
3201.70915 1.30147
3199.66072 1.30226
3197.61228 1.30294
3195.56384 1.30382
3193.51540 1.30455
3191.46696 1.30471
3189.41852 1.30484
3187.37008 1.30548
3185.32165 1.30643
3183.27321 1.30707
3181.22477 1.30712
3179.17633 1.30683
3177.12789 1.30686
3175.07945 1.30727
3173.03102 1.30729
3170.98258 1.30726
3168.93414 1.30770
3166.88570 1.30779
3164.83726 1.30767
3162.78882 1.30812
3160.74039 1.30876
3158.69195 1.30925
3156.64351 1.30929
3154.59507 1.30868
3152.54663 1.30858
3150.49819 1.31020
3148.44976 1.31274
3146.40132 1.31462
3144.35288 1.31555
3142.30444 1.31532
3140.25600 1.31421
3138.20756 1.31413
3136.15913 1.31566
3134.11069 1.31729
3132.06225 1.31784
3130.01381 1.31795
3127.96537 1.31892
3125.91693 1.32038
3123.86850 1.32059
3121.82006 1.31928
3119.77162 1.31805
3117.72318 1.31807
3115.67474 1.31936
3113.62630 1.32158
3111.57787 1.32325
3109.52943 1.32379
3107.48099 1.32515
3105.43255 1.32750
3103.38411 1.32857
3101.33567 1.32793
3099.28724 1.32804
3097.23880 1.32973
3095.19036 1.33088
3093.14192 1.33043
3091.09348 1.32939
3089.04504 1.32915
3086.99661 1.32950
3084.94817 1.32996
3082.89973 1.33069
3080.85129 1.33116
3078.80285 1.33190
3076.75441 1.33416
3074.70598 1.33718
3072.65754 1.33909
3070.60910 1.33944
3068.56066 1.33942
3066.51222 1.34026
3064.46378 1.34189
3062.41535 1.34406
3060.36691 1.34625
3058.31847 1.34711
3056.27003 1.34737
3054.22159 1.34836
3052.17315 1.34947
3050.12471 1.35092
3048.07628 1.35261
3046.02784 1.35315
3043.97940 1.35347
3041.93096 1.35559
3039.88252 1.35933
3037.83408 1.36284
3035.78565 1.36494
3033.73721 1.36679
3031.68877 1.36922
3029.64033 1.37140
3027.59189 1.37246
3025.54345 1.37227
3023.49502 1.37168
3021.44658 1.37023
3019.39814 1.36756
3017.34970 1.36539
3015.30126 1.36447
3013.25282 1.36407
3011.20439 1.36446
3009.15595 1.36646
3007.10751 1.36874
3005.05907 1.36950
3003.01063 1.36930
3000.96219 1.36887
2998.91376 1.36788
2996.86532 1.36733
2994.81688 1.36723
2992.76844 1.36678
2990.72000 1.36739
2988.67156 1.36879
2986.62313 1.36926
2984.57469 1.36856
2982.52625 1.36696
2980.47781 1.36537
2978.42937 1.36478
2976.38093 1.36493
2974.33250 1.36523
2972.28406 1.36572
2970.23562 1.36627
2968.18718 1.36639
2966.13874 1.36578
2964.09030 1.36450
2962.04187 1.36364
2959.99343 1.36410
2957.94499 1.36487
2955.89655 1.36455
2953.84811 1.36346
2951.79967 1.36290
2949.75124 1.36270
2947.70280 1.36222
2945.65436 1.36209
2943.60592 1.36276
2941.55748 1.36373
2939.50904 1.36410
2937.46061 1.36367
2935.41217 1.36290
2933.36373 1.36153
2931.31529 1.35931
2929.26685 1.35744
2927.21841 1.35670
2925.16998 1.35582
2923.12154 1.35399
2921.07310 1.35132
2919.02466 1.34824
2916.97622 1.34673
2914.92778 1.34829
2912.87934 1.35215
2910.83091 1.35690
2908.78247 1.36130
2906.73403 1.36385
2904.68559 1.36443
2902.63715 1.36452
2900.58871 1.36446
2898.54028 1.36352
2896.49184 1.36218
2894.44340 1.36177
2892.39496 1.36235
2890.34652 1.36296
2888.29808 1.36328
2886.24965 1.36346
2884.20121 1.36324
2882.15277 1.36270
2880.10433 1.36229
2878.05589 1.36180
2876.00745 1.36064
2873.95902 1.35914
2871.91058 1.35888
2869.86214 1.35996
2867.81370 1.36042
2865.76526 1.35981
2863.71682 1.35877
2861.66839 1.35711
2859.61995 1.35509
2857.57151 1.35335
2855.52307 1.35152
2853.47463 1.34914
2851.42619 1.34637
2849.37776 1.34414
2847.32932 1.34397
2845.28088 1.34547
2843.23244 1.34629
2841.18400 1.34525
2839.13556 1.34342
2837.08713 1.34213
2835.03869 1.34122
2832.99025 1.34045
2830.94181 1.33951
2828.89337 1.33795
2826.84493 1.33654
2824.79650 1.33592
2822.74806 1.33584
2820.69962 1.33641
2818.65118 1.33740
2816.60274 1.33807
2814.55430 1.33745
2812.50587 1.33504
2810.45743 1.33213
2808.40899 1.33006
2806.36055 1.32851
2804.31211 1.32710
2802.26367 1.32564
2800.21524 1.32394
2798.16680 1.32249
2796.11836 1.32168
2794.06992 1.32120
2792.02148 1.32058
2789.97304 1.31997
2787.92461 1.31973
2785.87617 1.31972
2783.82773 1.31974
2781.77929 1.31981
2779.73085 1.31988
2777.68241 1.31974
2775.63397 1.31923
2773.58554 1.31888
2771.53710 1.31897
2769.48866 1.31920
2767.44022 1.31944
2765.39178 1.31963
2763.34334 1.31968
2761.29491 1.31930
2759.24647 1.31866
2757.19803 1.31846
2755.14959 1.31890
2753.10115 1.31972
2751.05271 1.32053
2749.00428 1.32091
2746.95584 1.32080
2744.90740 1.32083
2742.85896 1.32104
2740.81052 1.32104
2738.76208 1.32115
2736.71365 1.32174
2734.66521 1.32265
2732.61677 1.32338
2730.56833 1.32383
2728.51989 1.32415
2726.47145 1.32415
2724.42302 1.32394
2722.37458 1.32406
2720.32614 1.32497
2718.27770 1.32618
2716.22926 1.32704
2714.18082 1.32750
2712.13239 1.32793
2710.08395 1.32876
2708.03551 1.32999
2705.98707 1.33129
2703.93863 1.33238
2701.89019 1.33340
2699.84176 1.33471
2697.79332 1.33613
2695.74488 1.33736
2693.69644 1.33849
2691.64800 1.33954
2689.59956 1.34042
2687.55113 1.34123
2685.50269 1.34232
2683.45425 1.34393
2681.40581 1.34559
2679.35737 1.34698
2677.30893 1.34841
2675.26050 1.35029
2673.21206 1.35279
2671.16362 1.35582
2669.11518 1.35924
2667.06674 1.36314
2665.01830 1.36700
2662.96987 1.37000
2660.92143 1.37231
2658.87299 1.37461
2656.82455 1.37690
2654.77611 1.37905
2652.72767 1.38094
2650.67924 1.38218
2648.63080 1.38294
2646.58236 1.38356
2644.53392 1.38408
2642.48548 1.38475
2640.43704 1.38576
2638.38860 1.38655
2636.34017 1.38651
2634.29173 1.38615
2632.24329 1.38604
2630.19485 1.38548
2628.14641 1.38422
2626.09797 1.38321
2624.04954 1.38275
2622.00110 1.38261
2619.95266 1.38262
2617.90422 1.38269
2615.85578 1.38283
2613.80734 1.38294
2611.75891 1.38299
2609.71047 1.38295
2607.66203 1.38321
2605.61359 1.38399
2603.56515 1.38493
2601.51671 1.38590
2599.46828 1.38709
2597.41984 1.38851
2595.37140 1.38965
2593.32296 1.39052
2591.27452 1.39142
2589.22608 1.39190
2587.17765 1.39194
2585.12921 1.39193
2583.08077 1.39177
2581.03233 1.39191
2578.98389 1.39281
2576.93545 1.39364
2574.88702 1.39364
2572.83858 1.39349
2570.79014 1.39394
2568.74170 1.39445
2566.69326 1.39490
2564.64482 1.39570
2562.59639 1.39633
2560.54795 1.39669
2558.49951 1.39716
2556.45107 1.39720
2554.40263 1.39614
2552.35419 1.39443
2550.30576 1.39305
2548.25732 1.39242
2546.20888 1.39217
2544.16044 1.39202
2542.11200 1.39147
2540.06356 1.39031
2538.01513 1.38919
2535.96669 1.38822
2533.91825 1.38719
2531.86981 1.38581
2529.82137 1.38402
2527.77293 1.38238
2525.72450 1.38090
2523.67606 1.37924
2521.62762 1.37734
2519.57918 1.37496
2517.53074 1.37226
2515.48230 1.37038
2513.43387 1.36980
2511.38543 1.37018
2509.33699 1.37087
2507.28855 1.37150
2505.24011 1.37217
2503.19167 1.37297
2501.14324 1.37366
2499.09480 1.37405
2497.04636 1.37435
2494.99792 1.37463
2492.94948 1.37461
2490.90104 1.37409
2488.85260 1.37330
2486.80417 1.37263
2484.75573 1.37211
2482.70729 1.37128
2480.65885 1.37026
2478.61041 1.36938
2476.56197 1.36856
2474.51354 1.36761
2472.46510 1.36647
2470.41666 1.36522
2468.36822 1.36427
2466.31978 1.36399
2464.27134 1.36363
2462.22291 1.36259
2460.17447 1.36103
2458.12603 1.35948
2456.07759 1.35833
2454.02915 1.35740
2451.98071 1.35642
2449.93228 1.35545
2447.88384 1.35444
2445.83540 1.35311
2443.78696 1.35185
2441.73852 1.35109
2439.69008 1.35075
2437.64165 1.35077
2435.59321 1.35107
2433.54477 1.35121
2431.49633 1.35085
2429.44789 1.35056
2427.39945 1.35067
2425.35102 1.35043
2423.30258 1.34976
2421.25414 1.34940
2419.20570 1.34967
2417.15726 1.35032
2415.10882 1.35049
2413.06039 1.35008
2411.01195 1.34988
2408.96351 1.35012
2406.91507 1.35037
2404.86663 1.34993
2402.81819 1.34897
2400.76976 1.34811
2398.72132 1.34729
2396.67288 1.34654
2394.62444 1.34614
2392.57600 1.34593
2390.52756 1.34553
2388.47913 1.34490
2386.43069 1.34440
2384.38225 1.34401
2382.33381 1.34338
2380.28537 1.34245
2378.23693 1.34130
2376.18850 1.34020
2374.14006 1.33953
2372.09162 1.33841
2370.04318 1.33585
2367.99474 1.33302
2365.94630 1.33076
2363.89787 1.32979
2361.84943 1.33015
2359.80099 1.33000
2357.75255 1.32992
2355.70411 1.33208
2353.65567 1.33637
2351.60723 1.34043
2349.55880 1.34242
2347.51036 1.34225
2345.46192 1.34085
2343.41348 1.34046
2341.36504 1.34231
2339.31660 1.34426
2337.26817 1.34503
2335.21973 1.34633
2333.17129 1.34870
2331.12285 1.34973
2329.07441 1.34938
2327.02597 1.35056
2324.97754 1.35223
2322.92910 1.35208
2320.88066 1.35224
2318.83222 1.35401
2316.78378 1.35518
2314.73534 1.35510
2312.68691 1.35480
2310.63847 1.35465
2308.59003 1.35470
2306.54159 1.35510
2304.49315 1.35520
2302.44471 1.35425
2300.39628 1.35251
2298.34784 1.35089
2296.29940 1.35011
2294.25096 1.35045
2292.20252 1.35156
2290.15408 1.35304
2288.10565 1.35463
2286.05721 1.35607
2284.00877 1.35764
2281.96033 1.35931
2279.91189 1.36072
2277.86345 1.36208
2275.81502 1.36369
2273.76658 1.36560
2271.71814 1.36786
2269.66970 1.37017
2267.62126 1.37241
2265.57282 1.37460
2263.52439 1.37653
2261.47595 1.37810
2259.42751 1.37958
2257.37907 1.38099
2255.33063 1.38211
2253.28219 1.38305
2251.23376 1.38373
2249.18532 1.38391
2247.13688 1.38376
2245.08844 1.38341
2243.04000 1.38251
2240.99156 1.38106
2238.94313 1.37963
2236.89469 1.37857
2234.84625 1.37772
2232.79781 1.37677
2230.74937 1.37597
2228.70093 1.37562
2226.65250 1.37604
2224.60406 1.37740
2222.55562 1.37935
2220.50718 1.38193
2218.45874 1.38490
2216.41030 1.38733
2214.36186 1.38945
2212.31343 1.39181
2210.26499 1.39397
2208.21655 1.39565
2206.16811 1.39685
2204.11967 1.39794
2202.07123 1.39932
2200.02280 1.40076
2197.97436 1.40200
2195.92592 1.40324
2193.87748 1.40479
2191.82904 1.40673
2189.78060 1.40849
2187.73217 1.41003
2185.68373 1.41224
2183.63529 1.41496
2181.58685 1.41727
2179.53841 1.41918
2177.48997 1.42117
2175.44154 1.42331
2173.39310 1.42542
2171.34466 1.42711
2169.29622 1.42821
2167.24778 1.42905
2165.19934 1.43010
2163.15091 1.43102
2161.10247 1.43174
2159.05403 1.43262
2157.00559 1.43302
2154.95715 1.43266
2152.90871 1.43210
2150.86028 1.43164
2148.81184 1.43107
2146.76340 1.43039
2144.71496 1.42946
2142.66652 1.42785
2140.61808 1.42569
2138.56965 1.42325
2136.52121 1.42060
2134.47277 1.41765
2132.42433 1.41469
2130.37589 1.41206
2128.32745 1.40956
2126.27902 1.40728
2124.23058 1.40599
2122.18214 1.40550
2120.13370 1.40487
2118.08526 1.40390
2116.03682 1.40318
2113.98839 1.40314
2111.93995 1.40333
2109.89151 1.40298
2107.84307 1.40231
2105.79463 1.40237
2103.74619 1.40324
2101.69776 1.40407
2099.64932 1.40455
2097.60088 1.40484
2095.55244 1.40498
2093.50400 1.40494
2091.45556 1.40511
2089.40713 1.40597
2087.35869 1.40727
2085.31025 1.40866
2083.26181 1.40991
2081.21337 1.41041
2079.16493 1.41050
2077.11649 1.41091
2075.06806 1.41163
2073.01962 1.41242
2070.97118 1.41356
2068.92274 1.41468
2066.87430 1.41492
2064.82586 1.41502
2062.77743 1.41597
2060.72899 1.41717
2058.68055 1.41793
2056.63211 1.41866
2054.58367 1.41967
2052.53523 1.42083
2050.48680 1.42178
2048.43836 1.42235
2046.38992 1.42313
2044.34148 1.42436
2042.29304 1.42570
2040.24460 1.42719
2038.19617 1.42860
2036.14773 1.42972
2034.09929 1.43071
2032.05085 1.43166
2030.00241 1.43258
2027.95397 1.43377
2025.90554 1.43541
2023.85710 1.43696
2021.80866 1.43820
2019.76022 1.43932
2017.71178 1.44067
2015.66334 1.44247
2013.61491 1.44409
2011.56647 1.44536
2009.51803 1.44665
2007.46959 1.44780
2005.42115 1.44892
2003.37271 1.45067
2001.32428 1.45279
1999.27584 1.45436
1997.22740 1.45517
1995.17896 1.45621
1993.13052 1.45853
1991.08208 1.46179
1989.03365 1.46472
1986.98521 1.46775
1984.93677 1.47157
1982.88833 1.47640
1980.83989 1.48239
1978.79145 1.48878
1976.74302 1.49456
1974.69458 1.49864
1972.64614 1.49979
1970.59770 1.49810
1968.54926 1.49530
1966.50082 1.49320
1964.45239 1.49275
1962.40395 1.49325
1960.35551 1.49398
1958.30707 1.49510
1956.25863 1.49715
1954.21019 1.49970
1952.16176 1.50172
1950.11332 1.50328
1948.06488 1.50505
1946.01644 1.50691
1943.96800 1.50898
1941.91956 1.51234
1939.87112 1.51572
1937.82269 1.51790
1935.77425 1.51971
1933.72581 1.52218
1931.67737 1.52512
1929.62893 1.52816
1927.58049 1.53118
1925.53206 1.53363
1923.48362 1.53634
1921.43518 1.53998
1919.38674 1.54362
1917.33830 1.54690
1915.28986 1.54977
1913.24143 1.55260
1911.19299 1.55609
1909.14455 1.56002
1907.09611 1.56386
1905.04767 1.56732
1902.99923 1.57086
1900.95080 1.57489
1898.90236 1.57894
1896.85392 1.58244
1894.80548 1.58533
1892.75704 1.58807
1890.70860 1.59112
1888.66017 1.59517
1886.61173 1.59892
1884.56329 1.60211
1882.51485 1.60517
1880.46641 1.60789
1878.41797 1.61097
1876.36954 1.61522
1874.32110 1.61960
1872.27266 1.62242
1870.22422 1.62505
1868.17578 1.62915
1866.12734 1.63369
1864.07891 1.63707
1862.03047 1.64071
1859.98203 1.64568
1857.93359 1.65076
1855.88515 1.65497
1853.83671 1.65893
1851.78828 1.66326
1849.73984 1.66772
1847.69140 1.67229
1845.64296 1.67774
1843.59452 1.68636
1841.54608 1.69427
1839.49765 1.70011
1837.44921 1.70619
1835.40077 1.71257
1833.35233 1.71837
1831.30389 1.72505
1829.25545 1.73295
1827.20702 1.73635
1825.15858 1.73437
1823.11014 1.72956
1821.06170 1.72434
1819.01326 1.71847
1816.96482 1.71219
1814.91639 1.70611
1812.86795 1.70074
1810.81951 1.69595
1808.77107 1.69253
1806.72263 1.69179
1804.67419 1.69384
1802.62575 1.69829
1800.57732 1.70436
1798.52888 1.71093
1796.48044 1.71763
1794.43200 1.72650
1792.38356 1.73699
1790.33512 1.74297
1788.28669 1.74514
1786.23825 1.74965
1784.18981 1.75720
1782.14137 1.76463
1780.09293 1.77141
1778.04449 1.77758
1775.99606 1.78411
1773.94762 1.79162
1771.89918 1.79934
1769.85074 1.80306
1767.80230 1.80519
1765.75386 1.80815
1763.70543 1.81244
1761.65699 1.81916
1759.60855 1.82635
1757.56011 1.83377
1755.51167 1.84035
1753.46323 1.84557
1751.41480 1.85324
1749.36636 1.86368
1747.31792 1.87021
1745.26948 1.87484
1743.22104 1.88045
1741.17260 1.88774
1739.12417 1.89543
1737.07573 1.90054
1735.02729 1.90933
1732.97885 1.92535
1730.93041 1.93519
1728.88197 1.94123
1726.83354 1.94847
1724.78510 1.95803
1722.73666 1.96866
1720.68822 1.97741
1718.63978 1.99123
1716.59134 2.01538
1714.54291 2.02641
1712.49447 2.03129
1710.44603 2.04021
1708.39759 2.05339
1706.34915 2.06993
1704.30071 2.08653
1702.25228 2.10081
1700.20384 2.12083
1698.15540 2.14238
1696.10696 2.15671
1694.05852 2.16267
1692.01008 2.16668
1689.96165 2.18103
1687.91321 2.20000
1685.86477 2.22265
1683.81633 2.25756
1681.76789 2.27602
1679.71945 2.28381
1677.67102 2.29575
1675.62258 2.31510
1673.57414 2.33939
1671.52570 2.36729
1669.47726 2.39320
1667.42882 2.40394
1665.38038 2.41153
1663.33195 2.43565
1661.28351 2.45794
1659.23507 2.46484
1657.18663 2.47553
1655.13819 2.51644
1653.08975 2.59060
1651.04132 2.56750
1648.99288 2.55153
1646.94444 2.54462
1644.89600 2.50274
1642.84756 2.46000
1640.79912 2.43412
1638.75069 2.41307
1636.70225 2.38660
1634.65381 2.33020
1632.60537 2.28078
1630.55693 2.24128
1628.50849 2.19615
1626.46006 2.14972
1624.41162 2.09392
1622.36318 2.02069
1620.31474 1.96036
1618.26630 1.90637
1616.21786 1.82292
1614.16943 1.75112
1612.12099 1.69793
1610.07255 1.64107
1608.02411 1.57817
1605.97567 1.51779
1603.92723 1.45771
1601.87880 1.39289
1599.83036 1.32762
1597.78192 1.26206
1595.73348 1.18968
1593.68504 1.10929
1591.63660 1.02385
1589.58817 0.93058
1587.53973 0.83233
1585.49129 0.73383
1583.44285 0.63897
1581.39441 0.55508
1579.34597 0.48772
1577.29754 0.41370
1575.24910 0.32287
1573.20066 0.26774
1571.15222 0.22839
1569.10378 0.18558
1567.05534 0.15885
1565.00691 0.14518
1562.95847 0.13506
1560.91003 0.12649
1558.86159 0.11279
1556.81315 0.10530
1554.76471 0.10358
1552.71628 0.10104
1550.66784 0.09855
1548.61940 0.09642
1546.57096 0.09461
1544.52252 0.09217
1542.47408 0.08870
1540.42565 0.08588
1538.37721 0.08701
1536.32877 0.08711
1534.28033 0.08547
1532.23189 0.08362
1530.18345 0.08261
1528.13501 0.08124
1526.08658 0.07955
1524.03814 0.07798
1521.98970 0.07693
1519.94126 0.07780
1517.89282 0.07953
1515.84438 0.08227
1513.79595 0.08518
1511.74751 0.08793
1509.69907 0.09054
1507.65063 0.10106
1505.60219 0.12686
1503.55375 0.14062
1501.50532 0.14970
1499.45688 0.15993
1497.40844 0.17291
1495.36000 0.18541
1493.31156 0.19280
1491.26312 0.19842
1489.21469 0.20723
1487.16625 0.21649
1485.11781 0.22274
1483.06937 0.22773
1481.02093 0.23273
1478.97249 0.23714
1476.92406 0.24060
1474.87562 0.24400
1472.82718 0.24919
1470.77874 0.25529
1468.73030 0.25881
1466.68186 0.26167
1464.63343 0.26584
1462.58499 0.26979
1460.53655 0.27177
1458.48811 0.27387
1456.43967 0.28061
1454.39123 0.28655
1452.34280 0.28988
1450.29436 0.29265
1448.24592 0.29584
1446.19748 0.29916
1444.14904 0.30161
1442.10060 0.30296
1440.05217 0.30337
1438.00373 0.30337
1435.95529 0.30462
1433.90685 0.30658
1431.85841 0.30842
1429.80997 0.31136
1427.76154 0.31529
1425.71310 0.32085
1423.66466 0.33034
1421.61622 0.34373
1419.56778 0.36698
1417.51934 0.40347
1415.47091 0.43336
1413.42247 0.45705
1411.37403 0.47795
1409.32559 0.49346
1407.27715 0.50520
1405.22871 0.51940
1403.18028 0.53534
1401.13184 0.54926
1399.08340 0.56462
1397.03496 0.58137
1394.98652 0.59810
1392.93808 0.61332
1390.88965 0.62475
1388.84121 0.63554
1386.79277 0.64851
1384.74433 0.66002
1382.69589 0.66941
1380.64745 0.67862
1378.59901 0.68775
1376.55058 0.69635
1374.50214 0.70583
1372.45370 0.71544
1370.40526 0.72326
1368.35682 0.73112
1366.30838 0.73848
1364.25995 0.74553
1362.21151 0.75373
1360.16307 0.76149
1358.11463 0.76750
1356.06619 0.77341
1354.01775 0.77974
1351.96932 0.78604
1349.92088 0.79219
1347.87244 0.79809
1345.82400 0.80373
1343.77556 0.80876
1341.72712 0.81361
1339.67869 0.81918
1337.63025 0.82530
1335.58181 0.83024
1333.53337 0.83451
1331.48493 0.83871
1329.43649 0.84309
1327.38806 0.84760
1325.33962 0.85208
1323.29118 0.85655
1321.24274 0.86086
1319.19430 0.86536
1317.14586 0.86967
1315.09743 0.87375
1313.04899 0.87768
1311.00055 0.88164
1308.95211 0.88555
1306.90367 0.88952
1304.85523 0.89324
1302.80680 0.89661
1300.75836 0.89982
1298.70992 0.90285
1296.66148 0.90598
1294.61304 0.90905
1292.56460 0.91214
1290.51617 0.91513
1288.46773 0.91819
1286.41929 0.92125
1284.37085 0.92424
1282.32241 0.92709
1280.27397 0.93003
1278.22554 0.93313
1276.17710 0.93606
1274.12866 0.93897
1272.08022 0.94192
1270.03178 0.94478
1267.98334 0.94734
1265.93491 0.94982
1263.88647 0.95219
1261.83803 0.95457
1259.78959 0.95703
1257.74115 0.95962
1255.69271 0.96231
1253.64428 0.96491
1251.59584 0.96737
1249.54740 0.96987
1247.49896 0.97255
1245.45052 0.97498
1243.40208 0.97708
1241.35364 0.97899
1239.30521 0.98094
1237.25677 0.98291
1235.20833 0.98485
1233.15989 0.98664
1231.11145 0.98834
1229.06301 0.98995
1227.01458 0.99140
1224.96614 0.99300
1222.91770 0.99485
1220.86926 0.99687
1218.82082 0.99895
1216.77238 1.00102
1214.72395 1.00294
1212.67551 1.00494
1210.62707 1.00707
1208.57863 1.00911
1206.53019 1.01101
1204.48175 1.01295
1202.43332 1.01491
1200.38488 1.01687
1198.33644 1.01888
1196.28800 1.02067
1194.23956 1.02210
1192.19112 1.02340
1190.14269 1.02476
1188.09425 1.02610
1186.04581 1.02731
1183.99737 1.02844
1181.94893 1.02961
1179.90049 1.03098
1177.85206 1.03240
1175.80362 1.03379
1173.75518 1.03526
1171.70674 1.03671
1169.65830 1.03807
1167.60986 1.03942
1165.56143 1.04089
1163.51299 1.04263
1161.46455 1.04435
1159.41611 1.04582
1157.36767 1.04729
1155.31923 1.04883
1153.27080 1.05035
1151.22236 1.05179
1149.17392 1.05313
1147.12548 1.05441
1145.07704 1.05564
1143.02860 1.05674
1140.98017 1.05772
1138.93173 1.05889
1136.88329 1.06024
1134.83485 1.06148
1132.78641 1.06259
1130.73797 1.06355
1128.68954 1.06447
1126.64110 1.06551
1124.59266 1.06667
1122.54422 1.06770
1120.49578 1.06858
1118.44734 1.06952
1116.39891 1.07052
1114.35047 1.07127
1112.30203 1.07192
1110.25359 1.07292
1108.20515 1.07437
1106.15671 1.07619
1104.10827 1.07798
1102.05984 1.07919
1100.01140 1.07939
1097.96296 1.07917
1095.91452 1.07962
1093.86608 1.08086
1091.81764 1.08221
1089.76921 1.08358
1087.72077 1.08501
1085.67233 1.08628
1083.62389 1.08745
1081.57545 1.08880
1079.52701 1.09047
1077.47858 1.09225
1075.43014 1.09412
1073.38170 1.09595
1071.33326 1.09751
1069.28482 1.09869
1067.23638 1.09971
1065.18795 1.10089
1063.13951 1.10232
1061.09107 1.10386
1059.04263 1.10542
1056.99419 1.10677
1054.94575 1.10774
1052.89732 1.10899
1050.84888 1.11099
1048.80044 1.11335
1046.75200 1.11543
1044.70356 1.11691
1042.65512 1.11786
1040.60669 1.11896
1038.55825 1.12041
1036.50981 1.12175
1034.46137 1.12288
1032.41293 1.12396
1030.36449 1.12524
1028.31606 1.12662
1026.26762 1.12774
1024.21918 1.12824
1022.17074 1.12822
1020.12230 1.12837
1018.07386 1.12931
1016.02543 1.13096
1013.97699 1.13319
1011.92855 1.13597
1009.88011 1.13896
1007.83167 1.14189
1005.78323 1.14478
1003.73480 1.14770
1001.68636 1.15034
999.63792 1.15274
997.58948 1.15504
995.54104 1.15714
993.49260 1.15935
991.44417 1.16188
989.39573 1.16404
987.34729 1.16575
985.29885 1.16765
983.25041 1.16987
981.20197 1.17239
979.15354 1.17507
977.10510 1.17752
975.05666 1.17957
973.00822 1.18156
970.95978 1.18343
968.91134 1.18546
966.86290 1.18807
964.81447 1.19080
962.76603 1.19285
960.71759 1.19471
958.66915 1.19741
956.62071 1.20088
954.57227 1.20459
952.52384 1.20817
950.47540 1.21142
948.42696 1.21439
946.37852 1.21777
944.33008 1.22181
942.28164 1.22589
940.23321 1.22946
938.18477 1.23279
936.13633 1.23639
934.08789 1.24082
932.03945 1.24593
929.99101 1.25154
927.94258 1.25732
925.89414 1.26257
923.84570 1.26782
921.79726 1.27334
919.74882 1.27919
917.70038 1.28589
915.65195 1.29290
913.60351 1.29820
911.55507 1.30064
909.50663 1.29805
907.45819 1.28252
905.40975 1.23016
903.36132 1.08371
901.31288 0.83916
899.26444 0.61284
897.21600 0.47648
895.16756 0.41975
893.11912 0.40433
891.07069 0.40441
889.02225 0.41412
886.97381 0.44024
884.92537 0.49796
882.87693 0.59445
880.82849 0.70803
878.78006 0.80159
876.73162 0.86315
874.68318 0.90427
872.63474 0.93594
870.58630 0.96249
868.53786 0.98486
866.48943 1.00386
864.44099 1.02018
862.39255 1.03392
860.34411 1.04601
858.29567 1.05795
856.24723 1.06935
854.19880 1.07569
852.15036 1.07681
850.10192 1.07976
848.05348 1.08553
846.00504 1.09082
843.95660 1.09512
841.90817 1.09911
839.85973 1.10301
837.81129 1.10676
835.76285 1.10977
833.71441 1.11217
831.66597 1.11537
829.61753 1.11940
827.56910 1.12331
825.52066 1.12682
823.47222 1.12970
821.42378 1.13193
819.37534 1.13501
817.32690 1.13908
815.27847 1.14264
813.23003 1.14605
811.18159 1.14972
809.13315 1.15261
807.08471 1.15454
805.03627 1.15772
802.98784 1.16312
800.93940 1.16827
798.89096 1.17080
796.84252 1.17207
794.79408 1.17536
792.74564 1.18121
790.69721 1.18676
788.64877 1.19008
786.60033 1.19254
784.55189 1.19588
782.50345 1.20074
780.45501 1.20649
778.40658 1.21116
776.35814 1.21388
774.30970 1.21694
772.26126 1.22238
770.21282 1.22922
768.16438 1.23528
766.11595 1.24056
764.06751 1.24673
762.01907 1.25367
759.97063 1.26072
757.92219 1.26840
755.87375 1.27697
753.82532 1.28619
751.77688 1.29601
749.72844 1.30579
747.68000 1.31700
745.63156 1.33251
743.58312 1.35255
741.53469 1.37663
739.48625 1.40860
737.43781 1.45299
735.38937 1.48610
733.34093 1.41765
731.29249 1.23371
729.24406 1.07899
727.19562 1.02457
725.14718 1.04391
723.09874 1.08297
721.05030 1.11508
719.00186 1.14052
716.95343 1.16120
714.90499 1.17678
712.85655 1.18761
710.80811 1.19596
708.75967 1.20399
706.71123 1.21137
704.66280 1.21823
702.61436 1.22540
700.56592 1.23111
698.51748 1.23586
696.46904 1.24260
694.42060 1.24906
692.37216 1.25260
690.32373 1.25470
688.27529 1.25735
686.22685 1.26338
684.17841 1.27329
682.12997 1.28098
680.08153 1.28295
678.03310 1.28465
675.98466 1.28818
673.93622 1.29115
671.88778 1.29572
669.83934 1.30657
667.79090 1.31876
665.74247 1.31846
663.69403 1.31801
661.64559 1.32196
659.59715 1.32488
657.54871 1.32508
655.50027 1.32679
653.45184 1.33185
651.40340 1.34005
649.35496 1.34827
647.30652 1.35305
645.25808 1.35898
643.20964 1.36755
641.16121 1.37295
639.11277 1.37880
637.06433 1.38860
635.01589 1.39423
632.96745 1.39342
630.91901 1.39086
628.87058 1.39361
626.82214 1.40584
624.77370 1.41951
622.72526 1.43176
620.67682 1.44641
618.62838 1.46053
616.57995 1.46571
614.53151 1.46197
612.48307 1.46945
610.43463 1.48951
608.38619 1.49973
606.33775 1.50247
604.28932 1.51261
602.24088 1.52484
600.19244 1.53986
598.14400 1.56586
