3996.50324 1.16089
3994.45480 1.16168
3992.40636 1.16262
3990.35792 1.16359
3988.30948 1.16441
3986.26104 1.16513
3984.21261 1.16599
3982.16417 1.16660
3980.11573 1.16700
3978.06729 1.16727
3976.01885 1.16734
3973.97041 1.16794
3971.92198 1.16895
3969.87354 1.16872
3967.82510 1.16721
3965.77666 1.16573
3963.72822 1.16458
3961.67978 1.16360
3959.63135 1.16227
3957.58291 1.16071
3955.53447 1.15920
3953.48603 1.15730
3951.43759 1.15502
3949.38915 1.15288
3947.34072 1.15091
3945.29228 1.14829
3943.24384 1.14520
3941.19540 1.14263
3939.14696 1.14026
3937.09852 1.13737
3935.05009 1.13393
3933.00165 1.13030
3930.95321 1.12728
3928.90477 1.12467
3926.85633 1.12165
3924.80789 1.11938
3922.75946 1.11815
3920.71102 1.11619
3918.66258 1.11428
3916.61414 1.11391
3914.56570 1.11334
3912.51726 1.11187
3910.46883 1.11041
3908.42039 1.10830
3906.37195 1.10511
3904.32351 1.10333
3902.27507 1.10449
3900.22663 1.10585
3898.17820 1.10653
3896.12976 1.10558
3894.08132 1.10327
3892.03288 1.10260
3889.98444 1.10364
3887.93600 1.10232
3885.88756 1.10091
3883.83913 1.10146
3881.79069 1.10117
3879.74225 1.10176
3877.69381 1.10156
3875.64537 1.09916
3873.59693 1.09757
3871.54850 1.09736
3869.50006 1.09866
3867.45162 1.09904
3865.40318 1.09746
3863.35474 1.09822
3861.30630 1.09965
3859.25787 1.09812
3857.20943 1.09444
3855.16099 1.09103
3853.11255 1.09628
3851.06411 1.10322
3849.01567 1.10257
3846.96724 1.09987
3844.91880 1.09720
3842.87036 1.09526
3840.82192 1.09401
3838.77348 1.09469
3836.72504 1.09743
3834.67661 1.09807
3832.62817 1.09754
3830.57973 1.09736
3828.53129 1.09650
3826.48285 1.09577
3824.43441 1.09457
3822.38598 1.09219
3820.33754 1.09395
3818.28910 1.09651
3816.24066 1.09761
3814.19222 1.09983
3812.14378 1.09935
3810.09535 1.09655
3808.04691 1.09478
3805.99847 1.09606
3803.95003 1.09593
3801.90159 1.09592
3799.85315 1.09901
3797.80472 1.09956
3795.75628 1.09958
3793.70784 1.09993
3791.65940 1.09942
3789.61096 1.09887
3787.56252 1.09835
3785.51409 1.09828
3783.46565 1.09863
3781.41721 1.09816
3779.36877 1.09859
3777.32033 1.09985
3775.27189 1.09929
3773.22346 1.09748
3771.17502 1.09621
3769.12658 1.09750
3767.07814 1.09937
3765.02970 1.10033
3762.98126 1.10004
3760.93283 1.09836
3758.88439 1.09863
3756.83595 1.10035
3754.78751 1.09921
3752.73907 1.09593
3750.69063 1.09609
3748.64219 1.09951
3746.59376 1.09976
3744.54532 1.10154
3742.49688 1.10434
3740.44844 1.10305
3738.40000 1.09985
3736.35156 1.09885
3734.30313 1.10322
3732.25469 1.10769
3730.20625 1.10870
3728.15781 1.10756
3726.10937 1.10688
3724.06093 1.10851
3722.01250 1.11090
3719.96406 1.11264
3717.91562 1.11319
3715.86718 1.11220
3713.81874 1.11001
3711.77030 1.10952
3709.72187 1.11282
3707.67343 1.11418
3705.62499 1.11290
3703.57655 1.11141
3701.52811 1.11235
3699.47967 1.11410
3697.43124 1.11415
3695.38280 1.11362
3693.33436 1.11265
3691.28592 1.11189
3689.23748 1.11525
3687.18904 1.11993
3685.14061 1.12128
3683.09217 1.12128
3681.04373 1.12103
3678.99529 1.12034
3676.94685 1.11989
3674.89841 1.12310
3672.84998 1.12560
3670.80154 1.12631
3668.75310 1.12923
3666.70466 1.13119
3664.65622 1.13178
3662.60778 1.13239
3660.55935 1.13300
3658.51091 1.13363
3656.46247 1.13534
3654.41403 1.13701
3652.36559 1.13676
3650.31715 1.13692
3648.26872 1.14222
3646.22028 1.14683
3644.17184 1.14818
3642.12340 1.14909
3640.07496 1.15056
3638.02652 1.15219
3635.97809 1.15374
3633.92965 1.15516
3631.88121 1.15594
3629.83277 1.15742
3627.78433 1.16182
3625.73589 1.16418
3623.68746 1.16445
3621.63902 1.16463
3619.59058 1.16636
3617.54214 1.16913
3615.49370 1.17033
3613.44526 1.17159
3611.39682 1.17353
3609.34839 1.17483
3607.29995 1.17563
3605.25151 1.17561
3603.20307 1.17427
3601.15463 1.17196
3599.10619 1.16941
3597.05776 1.16746
3595.00932 1.16630
3592.96088 1.16512
3590.91244 1.16338
3588.86400 1.16196
3586.81556 1.16261
3584.76713 1.16349
3582.71869 1.16287
3580.67025 1.16195
3578.62181 1.16114
3576.57337 1.15998
3574.52493 1.15845
3572.47650 1.15675
3570.42806 1.15516
3568.37962 1.15390
3566.33118 1.15321
3564.28274 1.15292
3562.23430 1.15299
3560.18587 1.15331
3558.13743 1.15319
3556.08899 1.15268
3554.04055 1.15238
3551.99211 1.15269
3549.94367 1.15312
3547.89524 1.15324
3545.84680 1.15386
3543.79836 1.15471
3541.74992 1.15458
3539.70148 1.15379
3537.65304 1.15343
3535.60461 1.15401
3533.55617 1.15470
3531.50773 1.15485
3529.45929 1.15483
3527.41085 1.15519
3525.36241 1.15596
3523.31398 1.15700
3521.26554 1.15802
3519.21710 1.15889
3517.16866 1.15912
3515.12022 1.15860
3513.07178 1.15827
3511.02335 1.15830
3508.97491 1.15814
3506.92647 1.15793
3504.87803 1.15830
3502.82959 1.15943
3500.78115 1.16042
3498.73272 1.16098
3496.68428 1.16174
3494.63584 1.16250
3492.58740 1.16269
3490.53896 1.16246
3488.49052 1.16262
3486.44209 1.16344
3484.39365 1.16409
3482.34521 1.16438
3480.29677 1.16471
3478.24833 1.16464
3476.19989 1.16437
3474.15146 1.16467
3472.10302 1.16544
3470.05458 1.16601
3468.00614 1.16643
3465.95770 1.16703
3463.90926 1.16770
3461.86082 1.16850
3459.81239 1.16925
3457.76395 1.16976
3455.71551 1.17030
3453.66707 1.17068
3451.61863 1.17058
3449.57019 1.17018
3447.52176 1.16999
3445.47332 1.17007
3443.42488 1.17030
3441.37644 1.17102
3439.32800 1.17214
3437.27956 1.17291
3435.23113 1.17323
3433.18269 1.17373
3431.13425 1.17432
3429.08581 1.17466
3427.03737 1.17507
3424.98893 1.17542
3422.94050 1.17545
3420.89206 1.17576
3418.84362 1.17669
3416.79518 1.17754
3414.74674 1.17779
3412.69830 1.17758
3410.64987 1.17731
3408.60143 1.17724
3406.55299 1.17758
3404.50455 1.17840
3402.45611 1.17920
3400.40767 1.17978
3398.35924 1.18030
3396.31080 1.18062
3394.26236 1.18078
3392.21392 1.18101
3390.16548 1.18109
3388.11704 1.18111
3386.06861 1.18124
3384.02017 1.18123
3381.97173 1.18144
3379.92329 1.18227
3377.87485 1.18305
3375.82641 1.18332
3373.77798 1.18377
3371.72954 1.18465
3369.68110 1.18517
3367.63266 1.18527
3365.58422 1.18540
3363.53578 1.18549
3361.48735 1.18579
3359.43891 1.18630
3357.39047 1.18664
3355.34203 1.18700
3353.29359 1.18762
3351.24515 1.18809
3349.19672 1.18793
3347.14828 1.18745
3345.09984 1.18723
3343.05140 1.18765
3341.00296 1.18838
3338.95452 1.18901
3336.90609 1.18949
3334.85765 1.18976
3332.80921 1.18991
3330.76077 1.19014
3328.71233 1.19055
3326.66389 1.19091
3324.61545 1.19089
3322.56702 1.19073
3320.51858 1.19110
3318.47014 1.19194
3316.42170 1.19256
3314.37326 1.19308
3312.32482 1.19374
3310.27639 1.19458
3308.22795 1.19586
3306.17951 1.19743
3304.13107 1.19861
3302.08263 1.19931
3300.03419 1.20014
3297.98576 1.20112
3295.93732 1.20174
3293.88888 1.20236
3291.84044 1.20331
3289.79200 1.20417
3287.74356 1.20487
3285.69513 1.20534
3283.64669 1.20540
3281.59825 1.20542
3279.54981 1.20557
3277.50137 1.20592
3275.45293 1.20674
3273.40450 1.20772
3271.35606 1.20827
3269.30762 1.20841
3267.25918 1.20877
3265.21074 1.20954
3263.16230 1.21024
3261.11387 1.21076
3259.06543 1.21185
3257.01699 1.21365
3254.96855 1.21540
3252.92011 1.21657
3250.87167 1.21743
3248.82324 1.21837
3246.77480 1.21935
3244.72636 1.22026
3242.67792 1.22059
3240.62948 1.22012
3238.58104 1.21951
3236.53261 1.21893
3234.48417 1.21845
3232.43573 1.21821
3230.38729 1.21779
3228.33885 1.21708
3226.29041 1.21658
3224.24198 1.21633
3222.19354 1.21628
3220.14510 1.21647
3218.09666 1.21659
3216.04822 1.21650
3213.99978 1.21625
3211.95135 1.21580
3209.90291 1.21535
3207.85447 1.21527
3205.80603 1.21568
3203.75759 1.21617
3201.70915 1.21628
3199.66072 1.21623
3197.61228 1.21655
3195.56384 1.21711
3193.51540 1.21741
3191.46696 1.21730
3189.41852 1.21707
3187.37008 1.21691
3185.32165 1.21666
3183.27321 1.21617
3181.22477 1.21526
3179.17633 1.21385
3177.12789 1.21231
3175.07945 1.21083
3173.03102 1.20950
3170.98258 1.20856
3168.93414 1.20799
3166.88570 1.20759
3164.83726 1.20749
3162.78882 1.20791
3160.74039 1.20825
3158.69195 1.20821
3156.64351 1.20821
3154.59507 1.20791
3152.54663 1.20725
3150.49819 1.20708
3148.44976 1.20767
3146.40132 1.20867
3144.35288 1.20940
3142.30444 1.20926
3140.25600 1.20896
3138.20756 1.20992
3136.15913 1.21188
3134.11069 1.21337
3132.06225 1.21408
3130.01381 1.21469
3127.96537 1.21564
3125.91693 1.21653
3123.86850 1.21665
3121.82006 1.21591
3119.77162 1.21510
3117.72318 1.21530
3115.67474 1.21671
3113.62630 1.21873
3111.57787 1.22014
3109.52943 1.22067
3107.48099 1.22197
3105.43255 1.22439
3103.38411 1.22634
3101.33567 1.22711
3099.28724 1.22813
3097.23880 1.23055
3095.19036 1.23277
3093.14192 1.23350
3091.09348 1.23398
3089.04504 1.23556
3086.99661 1.23769
3084.94817 1.23942
3082.89973 1.24127
3080.85129 1.24358
3078.80285 1.24603
3076.75441 1.24928
3074.70598 1.25365
3072.65754 1.25769
3070.60910 1.26053
3068.56066 1.26291
3066.51222 1.26615
3064.46378 1.27070
3062.41535 1.27579
3060.36691 1.28071
3058.31847 1.28518
3056.27003 1.28987
3054.22159 1.29560
3052.17315 1.30178
3050.12471 1.30879
3048.07628 1.31747
3046.02784 1.32698
3043.97940 1.33767
3041.93096 1.35125
3039.88252 1.36850
3037.83408 1.38934
3035.78565 1.41381
3033.73721 1.44257
3031.68877 1.47405
3029.64033 1.50217
3027.59189 1.52099
3025.54345 1.52963
3023.49502 1.53263
3021.44658 1.53421
3019.39814 1.53381
3017.34970 1.53066
3015.30126 1.52680
3013.25282 1.52416
3011.20439 1.52316
3009.15595 1.52310
3007.10751 1.52281
3005.05907 1.52191
3003.01063 1.52074
3000.96219 1.51934
2998.91376 1.51773
2996.86532 1.51706
2994.81688 1.51749
2992.76844 1.51780
2990.72000 1.51772
2988.67156 1.51724
2986.62313 1.51636
2984.57469 1.51450
2982.52625 1.51101
2980.47781 1.50723
2978.42937 1.50432
2976.38093 1.50089
2974.33250 1.49655
2972.28406 1.49315
2970.23562 1.49050
2968.18718 1.48714
2966.13874 1.48361
2964.09030 1.48102
2962.04187 1.47967
2959.99343 1.48006
2957.94499 1.48275
2955.89655 1.48679
2953.84811 1.49026
2951.79967 1.49286
2949.75124 1.49449
2947.70280 1.49461
2945.65436 1.49470
2943.60592 1.49680
2941.55748 1.50059
2939.50904 1.50337
2937.46061 1.50361
2935.41217 1.50304
2933.36373 1.50354
2931.31529 1.50427
2929.26685 1.50449
2927.21841 1.50491
2925.16998 1.50533
2923.12154 1.50600
2921.07310 1.50723
2919.02466 1.50848
2916.97622 1.50989
2914.92778 1.51256
2912.87934 1.51772
2910.83091 1.52461
2908.78247 1.53100
2906.73403 1.53524
2904.68559 1.53721
2902.63715 1.53847
2900.58871 1.54028
2898.54028 1.54146
2896.49184 1.54096
2894.44340 1.54015
2892.39496 1.53980
2890.34652 1.53939
2888.29808 1.53910
2886.24965 1.53886
2884.20121 1.53818
2882.15277 1.53729
2880.10433 1.53555
2878.05589 1.53270
2876.00745 1.52942
2873.95902 1.52609
2871.91058 1.52380
2869.86214 1.52218
2867.81370 1.51903
2865.76526 1.51358
2863.71682 1.50681
2861.66839 1.49911
2859.61995 1.48942
2857.57151 1.47719
2855.52307 1.46297
2853.47463 1.44726
2851.42619 1.43036
2849.37776 1.41309
2847.32932 1.39657
2845.28088 1.38100
2843.23244 1.36554
2841.18400 1.35014
2839.13556 1.33591
2837.08713 1.32359
2835.03869 1.31294
2832.99025 1.30370
2830.94181 1.29591
2828.89337 1.28923
2826.84493 1.28388
2824.79650 1.28066
2822.74806 1.27971
2820.69962 1.28082
2818.65118 1.28277
2816.60274 1.28270
2814.55430 1.27859
2812.50587 1.27089
2810.45743 1.26176
2808.40899 1.25347
2806.36055 1.24689
2804.31211 1.24185
2802.26367 1.23792
2800.21524 1.23474
2798.16680 1.23213
2796.11836 1.23011
2794.06992 1.22857
2792.02148 1.22709
2789.97304 1.22562
2787.92461 1.22463
2785.87617 1.22419
2783.82773 1.22371
2781.77929 1.22306
2779.73085 1.22258
2777.68241 1.22230
2775.63397 1.22215
2773.58554 1.22203
2771.53710 1.22205
2769.48866 1.22227
2767.44022 1.22225
2765.39178 1.22201
2763.34334 1.22194
2761.29491 1.22190
2759.24647 1.22178
2757.19803 1.22163
2755.14959 1.22151
2753.10115 1.22144
2751.05271 1.22156
2749.00428 1.22213
2746.95584 1.22297
2744.90740 1.22354
2742.85896 1.22397
2740.81052 1.22476
2738.76208 1.22569
2736.71365 1.22654
2734.66521 1.22752
2732.61677 1.22858
2730.56833 1.22976
2728.51989 1.23110
2726.47145 1.23243
2724.42302 1.23350
2722.37458 1.23437
2720.32614 1.23539
2718.27770 1.23656
2716.22926 1.23776
2714.18082 1.23935
2712.13239 1.24153
2710.08395 1.24403
2708.03551 1.24681
2705.98707 1.24984
2703.93863 1.25285
2701.89019 1.25593
2699.84176 1.25924
2697.79332 1.26242
2695.74488 1.26536
2693.69644 1.26828
2691.64800 1.27123
2689.59956 1.27427
2687.55113 1.27756
2685.50269 1.28129
2683.45425 1.28541
2681.40581 1.28959
2679.35737 1.29438
2677.30893 1.30069
2675.26050 1.30886
2673.21206 1.31899
2671.16362 1.33134
2669.11518 1.34604
2667.06674 1.36281
2665.01830 1.38053
2662.96987 1.39791
2660.92143 1.41453
2658.87299 1.43071
2656.82455 1.44633
2654.77611 1.46025
2652.72767 1.47247
2650.67924 1.48393
2648.63080 1.49443
2646.58236 1.50422
2644.53392 1.51332
2642.48548 1.52102
2640.43704 1.52816
2638.38860 1.53572
2636.34017 1.54249
2634.29173 1.54721
2632.24329 1.55043
2630.19485 1.55247
2628.14641 1.55277
2626.09797 1.55134
2624.04954 1.54897
2622.00110 1.54627
2619.95266 1.54260
2617.90422 1.53774
2615.85578 1.53242
2613.80734 1.52707
2611.75891 1.52207
2609.71047 1.51787
2607.66203 1.51471
2605.61359 1.51256
2603.56515 1.51181
2601.51671 1.51303
2599.46828 1.51614
2597.41984 1.52189
2595.37140 1.53097
2593.32296 1.54099
2591.27452 1.54905
2589.22608 1.55465
2587.17765 1.55793
2585.12921 1.55955
2583.08077 1.56103
2581.03233 1.56255
2578.98389 1.56360
2576.93545 1.56453
2574.88702 1.56515
2572.83858 1.56551
2570.79014 1.56640
2568.74170 1.56751
2566.69326 1.56823
2564.64482 1.56889
2562.59639 1.56970
2560.54795 1.57042
2558.49951 1.57140
2556.45107 1.57283
2554.40263 1.57386
2552.35419 1.57428
2550.30576 1.57434
2548.25732 1.57348
2546.20888 1.57195
2544.16044 1.57113
2542.11200 1.57106
2540.06356 1.57074
2538.01513 1.56987
2535.96669 1.56864
2533.91825 1.56729
2531.86981 1.56600
2529.82137 1.56480
2527.77293 1.56343
2525.72450 1.56155
2523.67606 1.55933
2521.62762 1.55692
2519.57918 1.55476
2517.53074 1.55272
2515.48230 1.55011
2513.43387 1.54767
2511.38543 1.54588
2509.33699 1.54397
2507.28855 1.54148
2505.24011 1.53787
2503.19167 1.53310
2501.14324 1.52803
2499.09480 1.52255
2497.04636 1.51587
2494.99792 1.50763
2492.94948 1.49757
2490.90104 1.48575
2488.85260 1.47335
2486.80417 1.46127
2484.75573 1.44959
2482.70729 1.43829
2480.65885 1.42738
2478.61041 1.41720
2476.56197 1.40805
2474.51354 1.39964
2472.46510 1.39181
2470.41666 1.38480
2468.36822 1.37851
2466.31978 1.37283
2464.27134 1.36761
2462.22291 1.36256
2460.17447 1.35724
2458.12603 1.35145
2456.07759 1.34557
2454.02915 1.34002
2451.98071 1.33474
2449.93228 1.32974
2447.88384 1.32556
2445.83540 1.32254
2443.78696 1.32029
2441.73852 1.31852
2439.69008 1.31724
2437.64165 1.31604
2435.59321 1.31460
2433.54477 1.31312
2431.49633 1.31179
2429.44789 1.31043
2427.39945 1.30886
2425.35102 1.30742
2423.30258 1.30658
2421.25414 1.30619
2419.20570 1.30586
2417.15726 1.30578
2415.10882 1.30634
2413.06039 1.30757
2411.01195 1.30894
2408.96351 1.30939
2406.91507 1.30827
2404.86663 1.30604
2402.81819 1.30360
2400.76976 1.30125
2398.72132 1.29885
2396.67288 1.29652
2394.62444 1.29460
2392.57600 1.29332
2390.52756 1.29274
2388.47913 1.29230
2386.43069 1.29157
2384.38225 1.29094
2382.33381 1.29074
2380.28537 1.29106
2378.23693 1.29169
2376.18850 1.29184
2374.14006 1.29098
2372.09162 1.28899
2370.04318 1.28665
2367.99474 1.28476
2365.94630 1.28251
2363.89787 1.28086
2361.84943 1.28054
2359.80099 1.27966
2357.75255 1.27982
2355.70411 1.28467
2353.65567 1.29227
2351.60723 1.29892
2349.55880 1.30275
2347.51036 1.30314
2345.46192 1.30174
2343.41348 1.30298
2341.36504 1.30654
2339.31660 1.30779
2337.26817 1.30743
2335.21973 1.30814
2333.17129 1.31046
2331.12285 1.31346
2329.07441 1.31516
2327.02597 1.31503
2324.97754 1.31524
2322.92910 1.31712
2320.88066 1.31956
2318.83222 1.32098
2316.78378 1.32126
2314.73534 1.32125
2312.68691 1.32086
2310.63847 1.32019
2308.59003 1.31966
2306.54159 1.31835
2304.49315 1.31555
2302.44471 1.31156
2300.39628 1.30714
2298.34784 1.30355
2296.29940 1.30151
2294.25096 1.30095
2292.20252 1.30185
2290.15408 1.30430
2288.10565 1.30786
2286.05721 1.31187
2284.00877 1.31595
2281.96033 1.31979
2279.91189 1.32294
2277.86345 1.32533
2275.81502 1.32743
2273.76658 1.32970
2271.71814 1.33247
2269.66970 1.33571
2267.62126 1.33924
2265.57282 1.34317
2263.52439 1.34766
2261.47595 1.35292
2259.42751 1.35861
2257.37907 1.36373
2255.33063 1.36776
2253.28219 1.37051
2251.23376 1.37154
2249.18532 1.37065
2247.13688 1.36815
2245.08844 1.36428
2243.04000 1.35941
2240.99156 1.35465
2238.94313 1.35119
2236.89469 1.34916
2234.84625 1.34799
2232.79781 1.34754
2230.74937 1.34825
2228.70093 1.34985
2226.65250 1.35177
2224.60406 1.35414
2222.55562 1.35699
2220.50718 1.36007
2218.45874 1.36359
2216.41030 1.36744
2214.36186 1.37120
2212.31343 1.37481
2210.26499 1.37851
2208.21655 1.38266
2206.16811 1.38717
2204.11967 1.39175
2202.07123 1.39610
2200.02280 1.40003
2197.97436 1.40370
2195.92592 1.40699
2193.87748 1.40994
2191.82904 1.41294
2189.78060 1.41596
2187.73217 1.41933
2185.68373 1.42349
2183.63529 1.42843
2181.58685 1.43441
2179.53841 1.44143
2177.48997 1.44894
2175.44154 1.45605
2173.39310 1.46197
2171.34466 1.46686
2169.29622 1.47090
2167.24778 1.47345
2165.19934 1.47453
2163.15091 1.47477
2161.10247 1.47482
2159.05403 1.47496
2157.00559 1.47480
2154.95715 1.47429
2152.90871 1.47333
2150.86028 1.47168
2148.81184 1.46883
2146.76340 1.46429
2144.71496 1.45815
2142.66652 1.45091
2140.61808 1.44291
2138.56965 1.43451
2136.52121 1.42654
2134.47277 1.41946
2132.42433 1.41346
2130.37589 1.40876
2128.32745 1.40473
2126.27902 1.40070
2124.23058 1.39701
2122.18214 1.39364
2120.13370 1.39045
2118.08526 1.38795
2116.03682 1.38648
2113.98839 1.38611
2111.93995 1.38681
2109.89151 1.38834
2107.84307 1.39005
2105.79463 1.39119
2103.74619 1.39143
2101.69776 1.39114
2099.64932 1.39072
2097.60088 1.39002
2095.55244 1.38893
2093.50400 1.38780
2091.45556 1.38741
2089.40713 1.38857
2087.35869 1.39127
2085.31025 1.39483
2083.26181 1.39847
2081.21337 1.40145
2079.16493 1.40355
2077.11649 1.40443
2075.06806 1.40377
2073.01962 1.40206
2070.97118 1.40014
2068.92274 1.39867
2066.87430 1.39815
2064.82586 1.39900
2062.77743 1.40175
2060.72899 1.40605
2058.68055 1.41044
2056.63211 1.41372
2054.58367 1.41573
2052.53523 1.41689
2050.48680 1.41742
2048.43836 1.41710
2046.38992 1.41610
2044.34148 1.41533
2042.29304 1.41565
2040.24460 1.41756
2038.19617 1.42058
2036.14773 1.42386
2034.09929 1.42705
2032.05085 1.42988
2030.00241 1.43190
2027.95397 1.43300
2025.90554 1.43364
2023.85710 1.43403
2021.80866 1.43417
2019.76022 1.43433
2017.71178 1.43547
2015.66334 1.43794
2013.61491 1.44067
2011.56647 1.44329
2009.51803 1.44591
2007.46959 1.44825
2005.42115 1.45036
2003.37271 1.45268
2001.32428 1.45488
1999.27584 1.45680
1997.22740 1.45899
1995.17896 1.46151
1993.13052 1.46446
1991.08208 1.46790
1989.03365 1.47126
1986.98521 1.47501
1984.93677 1.47992
1982.88833 1.48669
1980.83989 1.49643
1978.79145 1.50887
1976.74302 1.52124
1974.69458 1.52937
1972.64614 1.53073
1970.59770 1.52653
1968.54926 1.52020
1966.50082 1.51434
1964.45239 1.51040
1962.40395 1.50838
1960.35551 1.50791
1958.30707 1.50925
1956.25863 1.51290
1954.21019 1.51826
1952.16176 1.52373
1950.11332 1.52821
1948.06488 1.53110
1946.01644 1.53246
1943.96800 1.53326
1941.91956 1.53495
1939.87112 1.53747
1937.82269 1.54089
1935.77425 1.54560
1933.72581 1.55123
1931.67737 1.55761
1929.62893 1.56389
1927.58049 1.56870
1925.53206 1.57219
1923.48362 1.57583
1921.43518 1.57912
1919.38674 1.58236
1917.33830 1.58765
1915.28986 1.59385
1913.24143 1.59937
1911.19299 1.60479
1909.14455 1.60995
1907.09611 1.61478
1905.04767 1.61997
1902.99923 1.62574
1900.95080 1.63218
1898.90236 1.63893
1896.85392 1.64565
1894.80548 1.65208
1892.75704 1.65725
1890.70860 1.66170
1888.66017 1.66712
1886.61173 1.67160
1884.56329 1.67513
1882.51485 1.68034
1880.46641 1.68734
1878.41797 1.69465
1876.36954 1.70096
1874.32110 1.70590
1872.27266 1.70920
1870.22422 1.71209
1868.17578 1.71720
1866.12734 1.72533
1864.07891 1.73462
1862.03047 1.74402
1859.98203 1.75258
1857.93359 1.76067
1855.88515 1.76848
1853.83671 1.77561
1851.78828 1.78333
1849.73984 1.79333
1847.69140 1.80527
1845.64296 1.81819
1843.59452 1.83384
1841.54608 1.84752
1839.49765 1.85849
1837.44921 1.87042
1835.40077 1.88313
1833.35233 1.89372
1831.30389 1.90241
1829.25545 1.91034
1827.20702 1.91425
1825.15858 1.91521
1823.11014 1.91263
1821.06170 1.90575
1819.01326 1.89755
1816.96482 1.89090
1814.91639 1.88539
1812.86795 1.88095
1810.81951 1.87696
1808.77107 1.87286
1806.72263 1.87061
1804.67419 1.87122
1802.62575 1.87499
1800.57732 1.88158
1798.52888 1.88884
1796.48044 1.89486
1794.43200 1.90161
1792.38356 1.91061
1790.33512 1.91706
1788.28669 1.92091
1786.23825 1.92684
1784.18981 1.93332
1782.14137 1.93896
1780.09293 1.94520
1778.04449 1.94971
1775.99606 1.95424
1773.94762 1.96287
1771.89918 1.97402
1769.85074 1.97872
1767.80230 1.97965
1765.75386 1.97966
1763.70543 1.98069
1761.65699 1.98521
1759.60855 1.99218
1757.56011 2.00056
1755.51167 2.00682
1753.46323 2.01063
1751.41480 2.01686
1749.36636 2.02610
1747.31792 2.03304
1745.26948 2.03942
1743.22104 2.04794
1741.17260 2.05803
1739.12417 2.06746
1737.07573 2.07415
1735.02729 2.08449
1732.97885 2.10046
1730.93041 2.10769
1728.88197 2.11037
1726.83354 2.11582
1724.78510 2.12567
1722.73666 2.13636
1720.68822 2.14527
1718.63978 2.16177
1716.59134 2.18741
1714.54291 2.19762
1712.49447 2.20406
1710.44603 2.21409
1708.39759 2.22711
1706.34915 2.24358
1704.30071 2.26099
1702.25228 2.27883
1700.20384 2.30666
1698.15540 2.32944
1696.10696 2.33395
1694.05852 2.33319
1692.01008 2.33734
1689.96165 2.35381
1687.91321 2.37618
1685.86477 2.40809
1683.81633 2.45363
1681.76789 2.46613
1679.71945 2.46896
1677.67102 2.48321
1675.62258 2.50693
1673.57414 2.52464
1671.52570 2.54038
1669.47726 2.56867
1667.42882 2.59142
1665.38038 2.59982
1663.33195 2.61451
1661.28351 2.63009
1659.23507 2.64252
1657.18663 2.66170
1655.13819 2.71330
1653.08975 2.81170
1651.04132 2.79052
1648.99288 2.76960
1646.94444 2.75056
1644.89600 2.69661
1642.84756 2.66122
1640.79912 2.64849
1638.75069 2.64234
1636.70225 2.62664
1634.65381 2.55736
1632.60537 2.49324
1630.55693 2.44392
1628.50849 2.39015
1626.46006 2.33781
1624.41162 2.28047
1622.36318 2.21071
1620.31474 2.15503
1618.26630 2.10555
1616.21786 2.02627
1614.16943 1.95556
1612.12099 1.90173
1610.07255 1.84450
1608.02411 1.78249
1605.97567 1.72350
1603.92723 1.66487
1601.87880 1.60160
1599.83036 1.53750
1597.78192 1.47270
1595.73348 1.40146
1593.68504 1.32304
1591.63660 1.23970
1589.58817 1.14765
1587.53973 1.04870
1585.49129 0.94654
1583.44285 0.84498
1581.39441 0.75287
1579.34597 0.67774
1577.29754 0.59642
1575.24910 0.49938
1573.20066 0.44045
1571.15222 0.39881
1569.10378 0.35518
1567.05534 0.32798
1565.00691 0.31350
1562.95847 0.30225
1560.91003 0.29234
1558.86159 0.27973
1556.81315 0.27373
1554.76471 0.27101
1552.71628 0.26741
1550.66784 0.26409
1548.61940 0.26109
1546.57096 0.25795
1544.52252 0.25398
1542.47408 0.24953
1540.42565 0.24816
1538.37721 0.25060
1536.32877 0.24979
1534.28033 0.24808
1532.23189 0.24751
1530.18345 0.24659
1528.13501 0.24480
1526.08658 0.24328
1524.03814 0.24182
1521.98970 0.24145
1519.94126 0.24332
1517.89282 0.24522
1515.84438 0.24830
1513.79595 0.25115
1511.74751 0.25328
1509.69907 0.25517
1507.65063 0.26648
1505.60219 0.29488
1503.55375 0.30887
1501.50532 0.31830
1499.45688 0.33047
1497.40844 0.34728
1495.36000 0.36297
1493.31156 0.37087
1491.26312 0.37647
1489.21469 0.38676
1487.16625 0.39718
1485.11781 0.40294
1483.06937 0.40710
1481.02093 0.41151
1478.97249 0.41525
1476.92406 0.41781
1474.87562 0.42066
1472.82718 0.42642
1470.77874 0.43281
1468.73030 0.43526
1466.68186 0.43708
1464.63343 0.44110
1462.58499 0.44469
1460.53655 0.44551
1458.48811 0.44710
1456.43967 0.45554
1454.39123 0.46173
1452.34280 0.46427
1450.29436 0.46651
1448.24592 0.46971
1446.19748 0.47320
1444.14904 0.47548
1442.10060 0.47645
1440.05217 0.47627
1438.00373 0.47585
1435.95529 0.47735
1433.90685 0.47891
1431.85841 0.47973
1429.80997 0.48201
1427.76154 0.48523
1425.71310 0.48963
1423.66466 0.49772
1421.61622 0.50940
1419.56778 0.53054
1417.51934 0.56443
1415.47091 0.59145
1413.42247 0.61310
1411.37403 0.63430
1409.32559 0.65223
1407.27715 0.66631
1405.22871 0.68199
1403.18028 0.69840
1401.13184 0.71178
1399.08340 0.72659
1397.03496 0.74359
1394.98652 0.76179
1392.93808 0.77876
1390.88965 0.79092
1388.84121 0.80233
1386.79277 0.81670
1384.74433 0.82917
1382.69589 0.83867
1380.64745 0.84795
1378.59901 0.85727
1376.55058 0.86601
1374.50214 0.87593
1372.45370 0.88605
1370.40526 0.89381
1368.35682 0.90148
1366.30838 0.90857
1364.25995 0.91533
1362.21151 0.92371
1360.16307 0.93169
1358.11463 0.93782
1356.06619 0.94417
1354.01775 0.95098
1351.96932 0.95737
1349.92088 0.96343
1347.87244 0.96937
1345.82400 0.97515
1343.77556 0.98018
1341.72712 0.98489
1339.67869 0.99043
1337.63025 0.99657
1335.58181 1.00148
1333.53337 1.00597
1331.48493 1.01061
1329.43649 1.01516
1327.38806 1.01928
1325.33962 1.02319
1323.29118 1.02738
1321.24274 1.03177
1319.19430 1.03667
1317.14586 1.04127
1315.09743 1.04508
1313.04899 1.04853
1311.00055 1.05233
1308.95211 1.05647
1306.90367 1.06092
1304.85523 1.06517
1302.80680 1.06879
1300.75836 1.07181
1298.70992 1.07437
1296.66148 1.07716
1294.61304 1.08027
1292.56460 1.08374
1290.51617 1.08730
1288.46773 1.09071
1286.41929 1.09356
1284.37085 1.09578
1282.32241 1.09742
1280.27397 1.09939
1278.22554 1.10209
1276.17710 1.10489
1274.12866 1.10812
1272.08022 1.11156
1270.03178 1.11413
1267.98334 1.11577
1265.93491 1.11719
1263.88647 1.11831
1261.83803 1.12023
1259.78959 1.12392
1257.74115 1.12821
1255.69271 1.13167
1253.64428 1.13447
1251.59584 1.13688
1249.54740 1.13834
1247.49896 1.13937
1245.45052 1.14116
1243.40208 1.14403
1241.35364 1.14705
1239.30521 1.14964
1237.25677 1.15197
1235.20833 1.15420
1233.15989 1.15579
1231.11145 1.15656
1229.06301 1.15707
1227.01458 1.15785
1224.96614 1.15911
1222.91770 1.16055
1220.86926 1.16213
1218.82082 1.16429
1216.77238 1.16704
1214.72395 1.16911
1212.67551 1.16954
1210.62707 1.16924
1208.57863 1.17012
1206.53019 1.17249
1204.48175 1.17508
1202.43332 1.17739
1200.38488 1.17994
1198.33644 1.18318
1196.28800 1.18627
1194.23956 1.18790
1192.19112 1.18810
1190.14269 1.18782
1188.09425 1.18781
1186.04581 1.18853
1183.99737 1.18989
1181.94893 1.19157
1179.90049 1.19303
1177.85206 1.19391
1175.80362 1.19461
1173.75518 1.19590
1171.70674 1.19742
1169.65830 1.19775
1167.60986 1.19644
1165.56143 1.19487
1163.51299 1.19503
1161.46455 1.19779
1159.41611 1.20180
1157.36767 1.20455
1155.31923 1.20488
1153.27080 1.20399
1151.22236 1.20400
1149.17392 1.20572
1147.12548 1.20807
1145.07704 1.20916
1143.02860 1.20818
1140.98017 1.20592
1138.93173 1.20451
1136.88329 1.20615
1134.83485 1.21055
1132.78641 1.21490
1130.73797 1.21633
1128.68954 1.21423
1126.64110 1.21050
1124.59266 1.20785
1122.54422 1.20800
1120.49578 1.21074
1118.44734 1.21410
1116.39891 1.21594
1114.35047 1.21500
1112.30203 1.21204
1110.25359 1.20989
1108.20515 1.21114
1106.15671 1.21611
1104.10827 1.22271
1102.05984 1.22782
1100.01140 1.22858
1097.96296 1.22502
1095.91452 1.22058
1093.86608 1.21868
1091.81764 1.22044
1089.76921 1.22502
1087.72077 1.22999
1085.67233 1.23290
1083.62389 1.23271
1081.57545 1.22957
1079.52701 1.22578
1077.47858 1.22454
1075.43014 1.22735
1073.38170 1.23346
1071.33326 1.24066
1069.28482 1.24560
1067.23638 1.24610
1065.18795 1.24285
1063.13951 1.23854
1061.09107 1.23631
1059.04263 1.23823
1056.99419 1.24422
1054.94575 1.25176
1052.89732 1.25735
1050.84888 1.25863
1048.80044 1.25615
1046.75200 1.25320
1044.70356 1.25283
1042.65512 1.25564
1040.60669 1.26095
1038.55825 1.26728
1036.50981 1.27272
1034.46137 1.27588
1032.41293 1.27588
1030.36449 1.27300
1028.31606 1.26918
1026.26762 1.26651
1024.21918 1.26607
1022.17074 1.26882
1020.12230 1.27392
1018.07386 1.27847
1016.02543 1.28044
1013.97699 1.27997
1011.92855 1.27866
1009.88011 1.27868
1007.83167 1.28145
1005.78323 1.28744
1003.73480 1.29642
1001.68636 1.30656
999.63792 1.31504
997.58948 1.31958
995.54104 1.31963
993.49260 1.31605
991.44417 1.31108
989.39573 1.30802
987.34729 1.30966
985.29885 1.31626
983.25041 1.32513
981.20197 1.33334
979.15354 1.33925
977.10510 1.34179
975.05666 1.34045
973.00822 1.33608
970.95978 1.33131
968.91134 1.32994
966.86290 1.33427
964.81447 1.34374
962.76603 1.35554
960.71759 1.36505
958.66915 1.36848
956.62071 1.36564
954.57227 1.35877
952.52384 1.35241
950.47540 1.35172
948.42696 1.35779
946.37852 1.36829
944.33008 1.38112
942.28164 1.39362
940.23321 1.40247
938.18477 1.40661
936.13633 1.40537
934.08789 1.39993
932.03945 1.39505
929.99101 1.39572
927.94258 1.40344
925.89414 1.41695
923.84570 1.43412
921.79726 1.45014
919.74882 1.46054
917.70038 1.46440
915.65195 1.46337
913.60351 1.45917
911.55507 1.45447
909.50663 1.45048
907.45819 1.44076
905.40975 1.40116
903.36132 1.26937
901.31288 1.02719
899.26444 0.79326
897.21600 0.64841
895.16756 0.58486
893.11912 0.56380
891.07069 0.55852
889.02225 0.56226
886.97381 0.58042
884.92537 0.62873
882.87693 0.71843
880.82849 0.83236
878.78006 0.93269
876.73162 1.00216
874.68318 1.04879
872.63474 1.08213
870.58630 1.10741
868.53786 1.12821
866.48943 1.14731
864.44099 1.16613
862.39255 1.18491
860.34411 1.20319
858.29567 1.21984
856.24723 1.23195
854.19880 1.23429
852.15036 1.22851
850.10192 1.22549
848.05348 1.22792
846.00504 1.23227
843.95660 1.23924
841.90817 1.24741
839.85973 1.25678
837.81129 1.26902
835.76285 1.27352
833.71441 1.26206
831.66597 1.24853
829.61753 1.24797
827.56910 1.25681
825.52066 1.26363
823.47222 1.26626
821.42378 1.27077
819.37534 1.28101
817.32690 1.29157
815.27847 1.29372
813.23003 1.28727
811.18159 1.27954
809.13315 1.27672
807.08471 1.28045
805.03627 1.28903
802.98784 1.29974
800.93940 1.30893
798.89096 1.31382
796.84252 1.31445
794.79408 1.31287
792.74564 1.31320
790.69721 1.31556
788.64877 1.31808
786.60033 1.32260
784.55189 1.32992
782.50345 1.33932
780.45501 1.34910
778.40658 1.35681
776.35814 1.36146
774.30970 1.36319
772.26126 1.36379
770.21282 1.36598
768.16438 1.37067
766.11595 1.37931
764.06751 1.39070
762.01907 1.39968
759.97063 1.40776
757.92219 1.41886
755.87375 1.43074
753.82532 1.44176
751.77688 1.45338
749.72844 1.46338
747.68000 1.47352
745.63156 1.49194
743.58312 1.51655
741.53469 1.54096
739.48625 1.57149
737.43781 1.61637
735.38937 1.65757
733.34093 1.60606
731.29249 1.42503
729.24406 1.26076
727.19562 1.19711
725.14718 1.21198
723.09874 1.25175
721.05030 1.28558
719.00186 1.30953
716.95343 1.32839
714.90499 1.34454
712.85655 1.35622
710.80811 1.36435
708.75967 1.37083
706.71123 1.37667
704.66280 1.38356
702.61436 1.39196
700.56592 1.40069
698.51748 1.40814
696.46904 1.41241
694.42060 1.41378
692.37216 1.41611
690.32373 1.42233
688.27529 1.42973
686.22685 1.43240
684.17841 1.43202
682.12997 1.43481
680.08153 1.44004
678.03310 1.44471
675.98466 1.44933
673.93622 1.45475
671.88778 1.46066
669.83934 1.46841
667.79090 1.47519
665.74247 1.47386
663.69403 1.47147
661.64559 1.47493
659.59715 1.48795
657.54871 1.50143
655.50027 1.50630
653.45184 1.50697
651.40340 1.50992
649.35496 1.51627
647.30652 1.52041
645.25808 1.51849
643.20964 1.51657
641.16121 1.52454
639.11277 1.54223
637.06433 1.55687
635.01589 1.56146
632.96745 1.55797
630.91901 1.55353
628.87058 1.55155
626.82214 1.54614
624.77370 1.54690
622.72526 1.56677
620.67682 1.59519
618.62838 1.62826
616.57995 1.65808
614.53151 1.65657
612.48307 1.64477
610.43463 1.65120
608.38619 1.65916
606.33775 1.65442
604.28932 1.65349
602.24088 1.67152
600.19244 1.69357
598.14400 1.70283
