3996.50324 1.41774
3994.45480 1.41809
3992.40636 1.41872
3990.35792 1.41951
3988.30948 1.42071
3986.26104 1.42148
3984.21261 1.42125
3982.16417 1.42095
3980.11573 1.42150
3978.06729 1.42228
3976.01885 1.42225
3973.97041 1.42151
3971.92198 1.42123
3969.87354 1.42193
3967.82510 1.42215
3965.77666 1.42068
3963.72822 1.41893
3961.67978 1.41814
3959.63135 1.41739
3957.58291 1.41637
3955.53447 1.41544
3953.48603 1.41405
3951.43759 1.41270
3949.38915 1.41216
3947.34072 1.41106
3945.29228 1.40877
3943.24384 1.40636
3941.19540 1.40384
3939.14696 1.40076
3937.09852 1.39776
3935.05009 1.39462
3933.00165 1.39109
3930.95321 1.38850
3928.90477 1.38583
3926.85633 1.38197
3924.80789 1.37869
3922.75946 1.37677
3920.71102 1.37496
3918.66258 1.37327
3916.61414 1.37214
3914.56570 1.37071
3912.51726 1.36877
3910.46883 1.36704
3908.42039 1.36497
3906.37195 1.36196
3904.32351 1.36022
3902.27507 1.36093
3900.22663 1.36297
3898.17820 1.36505
3896.12976 1.36300
3894.08132 1.35804
3892.03288 1.35669
3889.98444 1.35909
3887.93600 1.35731
3885.88756 1.35470
3883.83913 1.35561
3881.79069 1.35617
3879.74225 1.35692
3877.69381 1.35574
3875.64537 1.35235
3873.59693 1.35071
3871.54850 1.35012
3869.50006 1.35117
3867.45162 1.35231
3865.40318 1.35137
3863.35474 1.35296
3861.30630 1.35448
3859.25787 1.35159
3857.20943 1.34559
3855.16099 1.33971
3853.11255 1.34602
3851.06411 1.35569
3849.01567 1.35456
3846.96724 1.35110
3844.91880 1.34882
3842.87036 1.34737
3840.82192 1.34601
3838.77348 1.34764
3836.72504 1.35160
3834.67661 1.35145
3832.62817 1.34928
3830.57973 1.34819
3828.53129 1.34757
3826.48285 1.34741
3824.43441 1.34603
3822.38598 1.34301
3820.33754 1.34533
3818.28910 1.34755
3816.24066 1.34787
3814.19222 1.35084
3812.14378 1.35023
3810.09535 1.34632
3808.04691 1.34373
3805.99847 1.34481
3803.95003 1.34337
3801.90159 1.34215
3799.85315 1.34738
3797.80472 1.34961
3795.75628 1.34982
3793.70784 1.34976
3791.65940 1.34832
3789.61096 1.34676
3787.56252 1.34603
3785.51409 1.34707
3783.46565 1.34851
3781.41721 1.34760
3779.36877 1.34757
3777.32033 1.34972
3775.27189 1.34936
3773.22346 1.34702
3771.17502 1.34620
3769.12658 1.34843
3767.07814 1.34965
3765.02970 1.34901
3762.98126 1.34751
3760.93283 1.34548
3758.88439 1.34670
3756.83595 1.34937
3754.78751 1.34782
3752.73907 1.34447
3750.69063 1.34830
3748.64219 1.35513
3746.59376 1.35520
3744.54532 1.35651
3742.49688 1.35878
3740.44844 1.35677
3738.40000 1.35341
3736.35156 1.35252
3734.30313 1.35692
3732.25469 1.36090
3730.20625 1.36070
3728.15781 1.35823
3726.10937 1.35690
3724.06093 1.35908
3722.01250 1.36224
3719.96406 1.36407
3717.91562 1.36431
3715.86718 1.36320
3713.81874 1.36150
3711.77030 1.36213
3709.72187 1.36621
3707.67343 1.36758
3705.62499 1.36586
3703.57655 1.36346
3701.52811 1.36317
3699.47967 1.36433
3697.43124 1.36480
3695.38280 1.36484
3693.33436 1.36422
3691.28592 1.36347
3689.23748 1.36607
3687.18904 1.37068
3685.14061 1.37265
3683.09217 1.37274
3681.04373 1.37249
3678.99529 1.37294
3676.94685 1.37413
3674.89841 1.37752
3672.84998 1.37913
3670.80154 1.37812
3668.75310 1.37929
3666.70466 1.38141
3664.65622 1.38271
3662.60778 1.38412
3660.55935 1.38559
3658.51091 1.38667
3656.46247 1.38857
3654.41403 1.39067
3652.36559 1.39086
3650.31715 1.39207
3648.26872 1.39666
3646.22028 1.39801
3644.17184 1.39798
3642.12340 1.39856
3640.07496 1.39975
3638.02652 1.40095
3635.97809 1.40163
3633.92965 1.40191
3631.88121 1.40189
3629.83277 1.40243
3627.78433 1.40525
3625.73589 1.40703
3623.68746 1.40711
3621.63902 1.40751
3619.59058 1.40916
3617.54214 1.41067
3615.49370 1.41153
3613.44526 1.41308
3611.39682 1.41448
3609.34839 1.41412
3607.29995 1.41268
3605.25151 1.41182
3603.20307 1.41152
3601.15463 1.41148
3599.10619 1.41168
3597.05776 1.41164
3595.00932 1.41125
3592.96088 1.41058
3590.91244 1.40960
3588.86400 1.40853
3586.81556 1.40804
3584.76713 1.40826
3582.71869 1.40808
3580.67025 1.40731
3578.62181 1.40634
3576.57337 1.40557
3574.52493 1.40548
3572.47650 1.40624
3570.42806 1.40701
3568.37962 1.40678
3566.33118 1.40643
3564.28274 1.40747
3562.23430 1.40853
3560.18587 1.40918
3558.13743 1.40901
3556.08899 1.40760
3554.04055 1.40610
3551.99211 1.40591
3549.94367 1.40655
3547.89524 1.40729
3545.84680 1.40835
3543.79836 1.40900
3541.74992 1.40882
3539.70148 1.40892
3537.65304 1.40981
3535.60461 1.41074
3533.55617 1.41076
3531.50773 1.40997
3529.45929 1.40944
3527.41085 1.40972
3525.36241 1.41032
3523.31398 1.41085
3521.26554 1.41095
3519.21710 1.41079
3517.16866 1.41099
3515.12022 1.41174
3513.07178 1.41246
3511.02335 1.41255
3508.97491 1.41248
3506.92647 1.41311
3504.87803 1.41436
3502.82959 1.41528
3500.78115 1.41575
3498.73272 1.41651
3496.68428 1.41675
3494.63584 1.41589
3492.58740 1.41516
3490.53896 1.41508
3488.49052 1.41498
3486.44209 1.41459
3484.39365 1.41446
3482.34521 1.41540
3480.29677 1.41718
3478.24833 1.41830
3476.19989 1.41849
3474.15146 1.41860
3472.10302 1.41912
3470.05458 1.41969
3468.00614 1.41953
3465.95770 1.41900
3463.90926 1.41914
3461.86082 1.41982
3459.81239 1.42051
3457.76395 1.42111
3455.71551 1.42193
3453.66707 1.42312
3451.61863 1.42365
3449.57019 1.42322
3447.52176 1.42331
3445.47332 1.42432
3443.42488 1.42510
3441.37644 1.42538
3439.32800 1.42534
3437.27956 1.42518
3435.23113 1.42544
3433.18269 1.42625
3431.13425 1.42660
3429.08581 1.42624
3427.03737 1.42678
3424.98893 1.42795
3422.94050 1.42823
3420.89206 1.42807
3418.84362 1.42819
3416.79518 1.42855
3414.74674 1.42913
3412.69830 1.43009
3410.64987 1.43143
3408.60143 1.43247
3406.55299 1.43274
3404.50455 1.43261
3402.45611 1.43243
3400.40767 1.43204
3398.35924 1.43150
3396.31080 1.43139
3394.26236 1.43166
3392.21392 1.43214
3390.16548 1.43301
3388.11704 1.43396
3386.06861 1.43449
3384.02017 1.43462
3381.97173 1.43499
3379.92329 1.43571
3377.87485 1.43620
3375.82641 1.43621
3373.77798 1.43632
3371.72954 1.43725
3369.68110 1.43867
3367.63266 1.43921
3365.58422 1.43888
3363.53578 1.43922
3361.48735 1.43993
3359.43891 1.43993
3357.39047 1.43909
3355.34203 1.43787
3353.29359 1.43809
3351.24515 1.44024
3349.19672 1.44217
3347.14828 1.44255
3345.09984 1.44240
3343.05140 1.44267
3341.00296 1.44295
3338.95452 1.44295
3336.90609 1.44317
3334.85765 1.44398
3332.80921 1.44518
3330.76077 1.44622
3328.71233 1.44632
3326.66389 1.44558
3324.61545 1.44532
3322.56702 1.44579
3320.51858 1.44629
3318.47014 1.44654
3316.42170 1.44641
3314.37326 1.44631
3312.32482 1.44689
3310.27639 1.44758
3308.22795 1.44788
3306.17951 1.44846
3304.13107 1.44914
3302.08263 1.44953
3300.03419 1.45002
3297.98576 1.45063
3295.93732 1.45139
3293.88888 1.45240
3291.84044 1.45290
3289.79200 1.45245
3287.74356 1.45188
3285.69513 1.45127
3283.64669 1.45045
3281.59825 1.45051
3279.54981 1.45124
3277.50137 1.45164
3275.45293 1.45209
3273.40450 1.45305
3271.35606 1.45392
3269.30762 1.45384
3267.25918 1.45332
3265.21074 1.45341
3263.16230 1.45399
3261.11387 1.45429
3259.06543 1.45435
3257.01699 1.45409
3254.96855 1.45346
3252.92011 1.45367
3250.87167 1.45447
3248.82324 1.45487
3246.77480 1.45549
3244.72636 1.45640
3242.67792 1.45657
3240.62948 1.45599
3238.58104 1.45551
3236.53261 1.45556
3234.48417 1.45610
3232.43573 1.45676
3230.38729 1.45703
3228.33885 1.45675
3226.29041 1.45660
3224.24198 1.45727
3222.19354 1.45823
3220.14510 1.45843
3218.09666 1.45801
3216.04822 1.45806
3213.99978 1.45886
3211.95135 1.45983
3209.90291 1.46012
3207.85447 1.45946
3205.80603 1.45911
3203.75759 1.45972
3201.70915 1.46040
3199.66072 1.46084
3197.61228 1.46126
3195.56384 1.46162
3193.51540 1.46154
3191.46696 1.46063
3189.41852 1.45962
3187.37008 1.45940
3185.32165 1.45993
3183.27321 1.46061
3181.22477 1.46096
3179.17633 1.46134
3177.12789 1.46189
3175.07945 1.46219
3173.03102 1.46201
3170.98258 1.46187
3168.93414 1.46215
3166.88570 1.46248
3164.83726 1.46250
3162.78882 1.46269
3160.74039 1.46359
3158.69195 1.46459
3156.64351 1.46487
3154.59507 1.46417
3152.54663 1.46324
3150.49819 1.46349
3148.44976 1.46460
3146.40132 1.46582
3144.35288 1.46699
3142.30444 1.46682
3140.25600 1.46547
3138.20756 1.46592
3136.15913 1.46835
3134.11069 1.47000
3132.06225 1.46968
3130.01381 1.46864
3127.96537 1.46878
3125.91693 1.46950
3123.86850 1.46902
3121.82006 1.46750
3119.77162 1.46604
3117.72318 1.46490
3115.67474 1.46452
3113.62630 1.46616
3111.57787 1.46797
3109.52943 1.46781
3107.48099 1.46807
3105.43255 1.46996
3103.38411 1.47146
3101.33567 1.47092
3099.28724 1.46976
3097.23880 1.47081
3095.19036 1.47291
3093.14192 1.47290
3091.09348 1.47076
3089.04504 1.46892
3086.99661 1.46823
3084.94817 1.46790
3082.89973 1.46757
3080.85129 1.46677
3078.80285 1.46620
3076.75441 1.46807
3074.70598 1.47201
3072.65754 1.47436
3070.60910 1.47332
3068.56066 1.47124
3066.51222 1.47112
3064.46378 1.47322
3062.41535 1.47588
3060.36691 1.47754
3058.31847 1.47710
3056.27003 1.47561
3054.22159 1.47479
3052.17315 1.47472
3050.12471 1.47584
3048.07628 1.47745
3046.02784 1.47693
3043.97940 1.47508
3041.93096 1.47506
3039.88252 1.47764
3037.83408 1.48025
3035.78565 1.48044
3033.73721 1.48025
3031.68877 1.48162
3029.64033 1.48337
3027.59189 1.48448
3025.54345 1.48455
3023.49502 1.48434
3021.44658 1.48433
3019.39814 1.48378
3017.34970 1.48271
3015.30126 1.48130
3013.25282 1.47981
3011.20439 1.47930
3009.15595 1.48043
3007.10751 1.48214
3005.05907 1.48273
3003.01063 1.48237
3000.96219 1.48194
2998.91376 1.48095
2996.86532 1.47964
2994.81688 1.47907
2992.76844 1.47975
2990.72000 1.48156
2988.67156 1.48256
2986.62313 1.48169
2984.57469 1.48002
2982.52625 1.47802
2980.47781 1.47628
2978.42937 1.47587
2976.38093 1.47622
2974.33250 1.47618
2972.28406 1.47589
2970.23562 1.47541
2968.18718 1.47484
2966.13874 1.47457
2964.09030 1.47410
2962.04187 1.47322
2959.99343 1.47291
2957.94499 1.47326
2955.89655 1.47309
2953.84811 1.47270
2951.79967 1.47332
2949.75124 1.47394
2947.70280 1.47348
2945.65436 1.47289
2943.60592 1.47283
2941.55748 1.47334
2939.50904 1.47404
2937.46061 1.47411
2935.41217 1.47331
2933.36373 1.47177
2931.31529 1.46951
2929.26685 1.46750
2927.21841 1.46658
2925.16998 1.46602
2923.12154 1.46502
2921.07310 1.46351
2919.02466 1.46219
2916.97622 1.46210
2914.92778 1.46343
2912.87934 1.46569
2910.83091 1.46869
2908.78247 1.47216
2906.73403 1.47487
2904.68559 1.47614
2902.63715 1.47690
2900.58871 1.47779
2898.54028 1.47796
2896.49184 1.47765
2894.44340 1.47809
2892.39496 1.47855
2890.34652 1.47819
2888.29808 1.47772
2886.24965 1.47727
2884.20121 1.47686
2882.15277 1.47704
2880.10433 1.47705
2878.05589 1.47600
2876.00745 1.47426
2873.95902 1.47316
2871.91058 1.47380
2869.86214 1.47501
2867.81370 1.47487
2865.76526 1.47357
2863.71682 1.47212
2861.66839 1.47071
2859.61995 1.46942
2857.57151 1.46819
2855.52307 1.46633
2853.47463 1.46396
2851.42619 1.46217
2849.37776 1.46142
2847.32932 1.46217
2845.28088 1.46443
2843.23244 1.46640
2841.18400 1.46653
2839.13556 1.46547
2837.08713 1.46501
2835.03869 1.46561
2832.99025 1.46615
2830.94181 1.46585
2828.89337 1.46538
2826.84493 1.46540
2824.79650 1.46546
2822.74806 1.46546
2820.69962 1.46594
2818.65118 1.46669
2816.60274 1.46706
2814.55430 1.46681
2812.50587 1.46585
2810.45743 1.46433
2808.40899 1.46263
2806.36055 1.46092
2804.31211 1.45935
2802.26367 1.45806
2800.21524 1.45704
2798.16680 1.45596
2796.11836 1.45494
2794.06992 1.45435
2792.02148 1.45405
2789.97304 1.45390
2787.92461 1.45412
2785.87617 1.45430
2783.82773 1.45388
2781.77929 1.45376
2779.73085 1.45413
2777.68241 1.45388
2775.63397 1.45335
2773.58554 1.45351
2771.53710 1.45392
2769.48866 1.45396
2767.44022 1.45340
2765.39178 1.45231
2763.34334 1.45175
2761.29491 1.45228
2759.24647 1.45292
2757.19803 1.45313
2755.14959 1.45322
2753.10115 1.45326
2751.05271 1.45308
2749.00428 1.45288
2746.95584 1.45340
2744.90740 1.45417
2742.85896 1.45421
2740.81052 1.45391
2738.76208 1.45389
2736.71365 1.45395
2734.66521 1.45404
2732.61677 1.45462
2730.56833 1.45539
2728.51989 1.45574
2726.47145 1.45572
2724.42302 1.45574
2722.37458 1.45611
2720.32614 1.45663
2718.27770 1.45698
2716.22926 1.45745
2714.18082 1.45833
2712.13239 1.45944
2710.08395 1.46051
2708.03551 1.46147
2705.98707 1.46250
2703.93863 1.46349
2701.89019 1.46425
2699.84176 1.46476
2697.79332 1.46552
2695.74488 1.46686
2693.69644 1.46807
2691.64800 1.46851
2689.59956 1.46867
2687.55113 1.46927
2685.50269 1.47009
2683.45425 1.47083
2681.40581 1.47146
2679.35737 1.47225
2677.30893 1.47360
2675.26050 1.47512
2673.21206 1.47627
2671.16362 1.47756
2669.11518 1.47943
2667.06674 1.48129
2665.01830 1.48290
2662.96987 1.48429
2660.92143 1.48530
2658.87299 1.48630
2656.82455 1.48760
2654.77611 1.48872
2652.72767 1.48958
2650.67924 1.49053
2648.63080 1.49138
2646.58236 1.49172
2644.53392 1.49169
2642.48548 1.49188
2640.43704 1.49212
2638.38860 1.49226
2636.34017 1.49228
2634.29173 1.49190
2632.24329 1.49158
2630.19485 1.49185
2628.14641 1.49258
2626.09797 1.49326
2624.04954 1.49287
2622.00110 1.49161
2619.95266 1.49077
2617.90422 1.49007
2615.85578 1.48912
2613.80734 1.48873
2611.75891 1.48883
2609.71047 1.48864
2607.66203 1.48796
2605.61359 1.48736
2603.56515 1.48751
2601.51671 1.48868
2599.46828 1.49020
2597.41984 1.49127
2595.37140 1.49195
2593.32296 1.49279
2591.27452 1.49413
2589.22608 1.49554
2587.17765 1.49657
2585.12921 1.49724
2583.08077 1.49743
2581.03233 1.49728
2578.98389 1.49711
2576.93545 1.49708
2574.88702 1.49748
2572.83858 1.49802
2570.79014 1.49797
2568.74170 1.49778
2566.69326 1.49797
2564.64482 1.49818
2562.59639 1.49844
2560.54795 1.49923
2558.49951 1.50030
2556.45107 1.50090
2554.40263 1.50092
2552.35419 1.50101
2550.30576 1.50119
2548.25732 1.50111
2546.20888 1.50088
2544.16044 1.50041
2542.11200 1.49976
2540.06356 1.49934
2538.01513 1.49898
2535.96669 1.49850
2533.91825 1.49819
2531.86981 1.49783
2529.82137 1.49710
2527.77293 1.49612
2525.72450 1.49500
2523.67606 1.49373
2521.62762 1.49200
2519.57918 1.48989
2517.53074 1.48779
2515.48230 1.48559
2513.43387 1.48269
2511.38543 1.47919
2509.33699 1.47637
2507.28855 1.47511
2505.24011 1.47479
2503.19167 1.47474
2501.14324 1.47486
2499.09480 1.47492
2497.04636 1.47503
2494.99792 1.47563
2492.94948 1.47613
2490.90104 1.47643
2488.85260 1.47724
2486.80417 1.47792
2484.75573 1.47786
2482.70729 1.47759
2480.65885 1.47771
2478.61041 1.47805
2476.56197 1.47798
2474.51354 1.47781
2472.46510 1.47824
2470.41666 1.47877
2468.36822 1.47881
2466.31978 1.47878
2464.27134 1.47874
2462.22291 1.47882
2460.17447 1.47909
2458.12603 1.47857
2456.07759 1.47755
2454.02915 1.47738
2451.98071 1.47771
2449.93228 1.47753
2447.88384 1.47696
2445.83540 1.47644
2443.78696 1.47623
2441.73852 1.47628
2439.69008 1.47658
2437.64165 1.47682
2435.59321 1.47663
2433.54477 1.47653
2431.49633 1.47684
2429.44789 1.47695
2427.39945 1.47678
2425.35102 1.47681
2423.30258 1.47719
2421.25414 1.47760
2419.20570 1.47746
2417.15726 1.47692
2415.10882 1.47679
2413.06039 1.47720
2411.01195 1.47771
2408.96351 1.47813
2406.91507 1.47809
2404.86663 1.47764
2402.81819 1.47722
2400.76976 1.47706
2398.72132 1.47724
2396.67288 1.47738
2394.62444 1.47713
2392.57600 1.47672
2390.52756 1.47679
2388.47913 1.47685
2386.43069 1.47636
2384.38225 1.47592
2382.33381 1.47583
2380.28537 1.47583
2378.23693 1.47560
2376.18850 1.47551
2374.14006 1.47567
2372.09162 1.47513
2370.04318 1.47541
2367.99474 1.47695
2365.94630 1.47622
2363.89787 1.47367
2361.84943 1.46923
2359.80099 1.46422
2357.75255 1.46462
2355.70411 1.46868
2353.65567 1.47215
2351.60723 1.47616
2349.55880 1.47912
2347.51036 1.47938
2345.46192 1.47981
2343.41348 1.48297
2341.36504 1.48471
2339.31660 1.48373
2337.26817 1.48245
2335.21973 1.48192
2333.17129 1.48285
2331.12285 1.48389
2329.07441 1.48448
2327.02597 1.48618
2324.97754 1.48708
2322.92910 1.48573
2320.88066 1.48440
2318.83222 1.48464
2316.78378 1.48602
2314.73534 1.48715
2312.68691 1.48726
2310.63847 1.48742
2308.59003 1.48829
2306.54159 1.48870
2304.49315 1.48824
2302.44471 1.48748
2300.39628 1.48652
2298.34784 1.48566
2296.29940 1.48494
2294.25096 1.48434
2292.20252 1.48435
2290.15408 1.48512
2288.10565 1.48645
2286.05721 1.48847
2284.00877 1.49096
2281.96033 1.49297
2279.91189 1.49423
2277.86345 1.49497
2275.81502 1.49531
2273.76658 1.49587
2271.71814 1.49713
2269.66970 1.49883
2267.62126 1.50062
2265.57282 1.50230
2263.52439 1.50379
2261.47595 1.50497
2259.42751 1.50556
2257.37907 1.50574
2255.33063 1.50630
2253.28219 1.50716
2251.23376 1.50766
2249.18532 1.50839
2247.13688 1.50939
2245.08844 1.50972
2243.04000 1.50911
2240.99156 1.50804
2238.94313 1.50692
2236.89469 1.50628
2234.84625 1.50654
2232.79781 1.50694
2230.74937 1.50686
2228.70093 1.50654
2226.65250 1.50633
2224.60406 1.50662
2222.55562 1.50771
2220.50718 1.50931
2218.45874 1.51107
2216.41030 1.51324
2214.36186 1.51531
2212.31343 1.51627
2210.26499 1.51708
2208.21655 1.51883
2206.16811 1.52041
2204.11967 1.52085
2202.07123 1.52052
2200.02280 1.52020
2197.97436 1.52067
2195.92592 1.52202
2193.87748 1.52372
2191.82904 1.52533
2189.78060 1.52614
2187.73217 1.52639
2185.68373 1.52721
2183.63529 1.52830
2181.58685 1.52916
2179.53841 1.53029
2177.48997 1.53155
2175.44154 1.53215
2173.39310 1.53283
2171.34466 1.53427
2169.29622 1.53541
2167.24778 1.53597
2165.19934 1.53670
2163.15091 1.53753
2161.10247 1.53831
2159.05403 1.53919
2157.00559 1.53982
2154.95715 1.53991
2152.90871 1.53984
2150.86028 1.53997
2148.81184 1.54010
2146.76340 1.54002
2144.71496 1.53989
2142.66652 1.53997
2140.61808 1.53997
2138.56965 1.53928
2136.52121 1.53811
2134.47277 1.53714
2132.42433 1.53642
2130.37589 1.53558
2128.32745 1.53456
2126.27902 1.53350
2124.23058 1.53290
2122.18214 1.53239
2120.13370 1.53198
2118.08526 1.53215
2116.03682 1.53209
2113.98839 1.53198
2111.93995 1.53256
2109.89151 1.53319
2107.84307 1.53331
2105.79463 1.53339
2103.74619 1.53374
2101.69776 1.53443
2099.64932 1.53537
2097.60088 1.53634
2095.55244 1.53737
2093.50400 1.53820
2091.45556 1.53836
2089.40713 1.53843
2087.35869 1.53948
2085.31025 1.54119
2083.26181 1.54253
2081.21337 1.54294
2079.16493 1.54287
2077.11649 1.54346
2075.06806 1.54451
2073.01962 1.54486
2070.97118 1.54502
2068.92274 1.54568
2066.87430 1.54638
2064.82586 1.54713
2062.77743 1.54815
2060.72899 1.54902
2058.68055 1.54935
2056.63211 1.54952
2054.58367 1.55002
2052.53523 1.55080
2050.48680 1.55201
2048.43836 1.55385
2046.38992 1.55571
2044.34148 1.55708
2042.29304 1.55807
2040.24460 1.55876
2038.19617 1.55903
2036.14773 1.55942
2034.09929 1.56078
2032.05085 1.56272
2030.00241 1.56458
2027.95397 1.56620
2025.90554 1.56710
2023.85710 1.56725
2021.80866 1.56763
2019.76022 1.56869
2017.71178 1.56994
2015.66334 1.57105
2013.61491 1.57218
2011.56647 1.57358
2009.51803 1.57528
2007.46959 1.57691
2005.42115 1.57794
2003.37271 1.57865
2001.32428 1.57968
1999.27584 1.58085
1997.22740 1.58224
1995.17896 1.58411
1993.13052 1.58552
1991.08208 1.58633
1989.03365 1.58796
1986.98521 1.59081
1984.93677 1.59388
1982.88833 1.59711
1980.83989 1.60074
1978.79145 1.60415
1976.74302 1.60698
1974.69458 1.60915
1972.64614 1.61013
1970.59770 1.60965
1968.54926 1.60867
1966.50082 1.60821
1964.45239 1.60897
1962.40395 1.61053
1960.35551 1.61183
1958.30707 1.61263
1956.25863 1.61360
1954.21019 1.61511
1952.16176 1.61690
1950.11332 1.61861
1948.06488 1.62006
1946.01644 1.62116
1943.96800 1.62255
1941.91956 1.62482
1939.87112 1.62737
1937.82269 1.62988
1935.77425 1.63170
1933.72581 1.63291
1931.67737 1.63465
1929.62893 1.63723
1927.58049 1.63990
1925.53206 1.64186
1923.48362 1.64356
1921.43518 1.64580
1919.38674 1.64836
1917.33830 1.65061
1915.28986 1.65231
1913.24143 1.65366
1911.19299 1.65570
1909.14455 1.65865
1907.09611 1.66173
1905.04767 1.66429
1902.99923 1.66663
1900.95080 1.66923
1898.90236 1.67167
1896.85392 1.67409
1894.80548 1.67639
1892.75704 1.67862
1890.70860 1.68141
1888.66017 1.68485
1886.61173 1.68780
1884.56329 1.69029
1882.51485 1.69235
1880.46641 1.69399
1878.41797 1.69639
1876.36954 1.70014
1874.32110 1.70406
1872.27266 1.70630
1870.22422 1.70801
1868.17578 1.71117
1866.12734 1.71499
1864.07891 1.71810
1862.03047 1.72126
1859.98203 1.72483
1857.93359 1.72894
1855.88515 1.73305
1853.83671 1.73592
1851.78828 1.73868
1849.73984 1.74249
1847.69140 1.74690
1845.64296 1.75253
1843.59452 1.76006
1841.54608 1.76524
1839.49765 1.76874
1837.44921 1.77350
1835.40077 1.78041
1833.35233 1.78825
1831.30389 1.79759
1829.25545 1.80976
1827.20702 1.81910
1825.15858 1.82372
1823.11014 1.82349
1821.06170 1.81861
1819.01326 1.81131
1816.96482 1.80459
1814.91639 1.79870
1812.86795 1.79214
1810.81951 1.78450
1808.77107 1.77758
1806.72263 1.77289
1804.67419 1.77105
1802.62575 1.77249
1800.57732 1.77668
1798.52888 1.78258
1796.48044 1.78928
1794.43200 1.79830
1792.38356 1.80935
1790.33512 1.81532
1788.28669 1.81647
1786.23825 1.82030
1784.18981 1.82789
1782.14137 1.83476
1780.09293 1.83872
1778.04449 1.84116
1775.99606 1.84553
1773.94762 1.85337
1771.89918 1.86407
1769.85074 1.87004
1767.80230 1.87209
1765.75386 1.87400
1763.70543 1.87758
1761.65699 1.88387
1759.60855 1.88880
1757.56011 1.89273
1755.51167 1.89789
1753.46323 1.90330
1751.41480 1.90979
1749.36636 1.91910
1747.31792 1.92630
1745.26948 1.92978
1743.22104 1.93229
1741.17260 1.93624
1739.12417 1.94256
1737.07573 1.94877
1735.02729 1.95778
1732.97885 1.97219
1730.93041 1.98271
1728.88197 1.98943
1726.83354 1.99486
1724.78510 2.00030
1722.73666 2.00671
1720.68822 2.01406
1718.63978 2.02525
1716.59134 2.04128
1714.54291 2.05180
1712.49447 2.06051
1710.44603 2.07069
1708.39759 2.08179
1706.34915 2.09265
1704.30071 2.10402
1702.25228 2.11864
1700.20384 2.14075
1698.15540 2.15874
1696.10696 2.16830
1694.05852 2.17569
1692.01008 2.18017
1689.96165 2.18918
1687.91321 2.20397
1685.86477 2.22726
1683.81633 2.25828
1681.76789 2.26772
1679.71945 2.27177
1677.67102 2.28325
1675.62258 2.29994
1673.57414 2.31497
1671.52570 2.33184
1669.47726 2.35125
1667.42882 2.36074
1665.38038 2.36650
1663.33195 2.38315
1661.28351 2.40232
1659.23507 2.41266
1657.18663 2.41938
1655.13819 2.43882
1653.08975 2.48336
1651.04132 2.48177
1648.99288 2.47804
1646.94444 2.48535
1644.89600 2.47147
1642.84756 2.44901
1640.79912 2.43727
1638.75069 2.42997
1636.70225 2.41812
1634.65381 2.37420
1632.60537 2.33348
1630.55693 2.30224
1628.50849 2.26481
1626.46006 2.22570
1624.41162 2.17932
1622.36318 2.11944
1620.31474 2.07126
1618.26630 2.02726
1616.21786 1.95318
1614.16943 1.88499
1612.12099 1.83108
1610.07255 1.77417
1608.02411 1.71490
1605.97567 1.65937
1603.92723 1.60300
1601.87880 1.54071
1599.83036 1.47677
1597.78192 1.41194
1595.73348 1.34031
1593.68504 1.26005
1591.63660 1.17285
1589.58817 1.07491
1587.53973 0.96958
1585.49129 0.86288
1583.44285 0.76011
1581.39441 0.67032
1579.34597 0.59927
1577.29754 0.52090
1575.24910 0.42491
1573.20066 0.36884
1571.15222 0.33197
1569.10378 0.29319
1567.05534 0.26854
1565.00691 0.25520
1562.95847 0.24510
1560.91003 0.23664
1558.86159 0.22318
1556.81315 0.21542
1554.76471 0.21330
1552.71628 0.21038
1550.66784 0.20736
1548.61940 0.20457
1546.57096 0.20226
1544.52252 0.19949
1542.47408 0.19587
1540.42565 0.19294
1538.37721 0.19356
1536.32877 0.19344
1534.28033 0.19195
1532.23189 0.19027
1530.18345 0.18936
1528.13501 0.18838
1526.08658 0.18738
1524.03814 0.18659
1521.98970 0.18678
1519.94126 0.18916
1517.89282 0.19256
1515.84438 0.19797
1513.79595 0.20399
1511.74751 0.21031
1509.69907 0.21703
1507.65063 0.23299
1505.60219 0.26322
1503.55375 0.27734
1501.50532 0.28626
1499.45688 0.29647
1497.40844 0.30937
1495.36000 0.32145
1493.31156 0.32840
1491.26312 0.33360
1489.21469 0.34148
1487.16625 0.34922
1485.11781 0.35412
1483.06937 0.35801
1481.02093 0.36206
1478.97249 0.36577
1476.92406 0.36879
1474.87562 0.37184
1472.82718 0.37625
1470.77874 0.38112
1468.73030 0.38380
1466.68186 0.38626
1464.63343 0.39030
1462.58499 0.39431
1460.53655 0.39667
1458.48811 0.39972
1456.43967 0.40741
1454.39123 0.41333
1452.34280 0.41671
1450.29436 0.41985
1448.24592 0.42365
1446.19748 0.42758
1444.14904 0.43040
1442.10060 0.43192
1440.05217 0.43232
1438.00373 0.43190
1435.95529 0.43174
1433.90685 0.43184
1431.85841 0.43171
1429.80997 0.43181
1427.76154 0.43224
1425.71310 0.43322
1423.66466 0.43517
1421.61622 0.43819
1419.56778 0.44452
1417.51934 0.45709
1415.47091 0.47132
1413.42247 0.48860
1411.37403 0.51154
1409.32559 0.53638
1407.27715 0.55886
1405.22871 0.58167
1403.18028 0.60256
1401.13184 0.61759
1399.08340 0.63152
1397.03496 0.64605
1394.98652 0.66141
1392.93808 0.67621
1390.88965 0.68768
1388.84121 0.69894
1386.79277 0.71274
1384.74433 0.72505
1382.69589 0.73517
1380.64745 0.74524
1378.59901 0.75519
1376.55058 0.76447
1374.50214 0.77465
1372.45370 0.78495
1370.40526 0.79337
1368.35682 0.80181
1366.30838 0.80971
1364.25995 0.81733
1362.21151 0.82637
1360.16307 0.83504
1358.11463 0.84193
1356.06619 0.84866
1354.01775 0.85568
1351.96932 0.86249
1349.92088 0.86905
1347.87244 0.87536
1345.82400 0.88154
1343.77556 0.88732
1341.72712 0.89307
1339.67869 0.89953
1337.63025 0.90628
1335.58181 0.91181
1333.53337 0.91684
1331.48493 0.92189
1329.43649 0.92691
1327.38806 0.93167
1325.33962 0.93623
1323.29118 0.94084
1321.24274 0.94535
1319.19430 0.94999
1317.14586 0.95452
1315.09743 0.95891
1313.04899 0.96307
1311.00055 0.96712
1308.95211 0.97108
1306.90367 0.97527
1304.85523 0.97949
1302.80680 0.98344
1300.75836 0.98718
1298.70992 0.99069
1296.66148 0.99421
1294.61304 0.99771
1292.56460 1.00115
1290.51617 1.00431
1288.46773 1.00747
1286.41929 1.01046
1284.37085 1.01335
1282.32241 1.01635
1280.27397 1.01930
1278.22554 1.02207
1276.17710 1.02477
1274.12866 1.02758
1272.08022 1.03033
1270.03178 1.03301
1267.98334 1.03548
1265.93491 1.03787
1263.88647 1.04018
1261.83803 1.04272
1259.78959 1.04561
1257.74115 1.04875
1255.69271 1.05189
1253.64428 1.05482
1251.59584 1.05760
1249.54740 1.06016
1247.49896 1.06259
1245.45052 1.06487
1243.40208 1.06716
1241.35364 1.06935
1239.30521 1.07143
1237.25677 1.07332
1235.20833 1.07503
1233.15989 1.07670
1231.11145 1.07852
1229.06301 1.08041
1227.01458 1.08194
1224.96614 1.08317
1222.91770 1.08460
1220.86926 1.08633
1218.82082 1.08802
1216.77238 1.08959
1214.72395 1.09124
1212.67551 1.09308
1210.62707 1.09483
1208.57863 1.09647
1206.53019 1.09810
1204.48175 1.09969
1202.43332 1.10141
1200.38488 1.10322
1198.33644 1.10492
1196.28800 1.10655
1194.23956 1.10819
1192.19112 1.10967
1190.14269 1.11088
1188.09425 1.11197
1186.04581 1.11310
1183.99737 1.11418
1181.94893 1.11526
1179.90049 1.11643
1177.85206 1.11761
1175.80362 1.11873
1173.75518 1.11990
1171.70674 1.12130
1169.65830 1.12281
1167.60986 1.12413
1165.56143 1.12529
1163.51299 1.12652
1161.46455 1.12794
1159.41611 1.12944
1157.36767 1.13081
1155.31923 1.13195
1153.27080 1.13300
1151.22236 1.13431
1149.17392 1.13566
1147.12548 1.13656
1145.07704 1.13719
1143.02860 1.13820
1140.98017 1.13956
1138.93173 1.14067
1136.88329 1.14121
1134.83485 1.14147
1132.78641 1.14192
1130.73797 1.14252
1128.68954 1.14315
1126.64110 1.14376
1124.59266 1.14422
1122.54422 1.14441
1120.49578 1.14460
1118.44734 1.14497
1116.39891 1.14538
1114.35047 1.14561
1112.30203 1.14573
1110.25359 1.14638
1108.20515 1.14769
1106.15671 1.14922
1104.10827 1.15067
1102.05984 1.15175
1100.01140 1.15177
1097.96296 1.15078
1095.91452 1.14990
1093.86608 1.15000
1091.81764 1.15080
1089.76921 1.15165
1087.72077 1.15263
1085.67233 1.15415
1083.62389 1.15646
1081.57545 1.15914
1079.52701 1.16170
1077.47858 1.16419
1075.43014 1.16683
1073.38170 1.16936
1071.33326 1.17159
1069.28482 1.17360
1067.23638 1.17570
1065.18795 1.17796
1063.13951 1.17992
1061.09107 1.18157
1059.04263 1.18350
1056.99419 1.18591
1054.94575 1.18847
1052.89732 1.19095
1050.84888 1.19297
1048.80044 1.19475
1046.75200 1.19688
1044.70356 1.19916
1042.65512 1.20105
1040.60669 1.20253
1038.55825 1.20384
1036.50981 1.20515
1034.46137 1.20657
1032.41293 1.20826
1030.36449 1.21001
1028.31606 1.21118
1026.26762 1.21162
1024.21918 1.21159
1022.17074 1.21141
1020.12230 1.21160
1018.07386 1.21278
1016.02543 1.21529
1013.97699 1.21929
1011.92855 1.22461
1009.88011 1.23053
1007.83167 1.23635
1005.78323 1.24159
1003.73480 1.24612
1001.68636 1.25003
999.63792 1.25336
997.58948 1.25607
995.54104 1.25852
993.49260 1.26138
991.44417 1.26476
989.39573 1.26811
987.34729 1.27080
985.29885 1.27296
983.25041 1.27506
981.20197 1.27682
979.15354 1.27851
977.10510 1.28114
975.05666 1.28478
973.00822 1.28837
970.95978 1.29099
968.91134 1.29288
966.86290 1.29493
964.81447 1.29745
962.76603 1.30025
960.71759 1.30347
958.66915 1.30709
956.62071 1.31076
954.57227 1.31384
952.52384 1.31628
950.47540 1.31881
948.42696 1.32222
946.37852 1.32666
944.33008 1.33149
942.28164 1.33581
940.23321 1.33926
938.18477 1.34253
936.13633 1.34629
934.08789 1.35089
932.03945 1.35642
929.99101 1.36264
927.94258 1.36889
925.89414 1.37524
923.84570 1.38109
921.79726 1.38584
919.74882 1.39069
917.70038 1.39670
915.65195 1.40387
913.60351 1.41016
911.55507 1.41194
909.50663 1.40527
907.45819 1.38152
905.40975 1.31293
903.36132 1.13928
901.31288 0.88360
899.26444 0.67029
897.21600 0.55165
895.16756 0.50507
893.11912 0.49148
891.07069 0.48942
889.02225 0.49309
886.97381 0.50292
884.92537 0.52624
882.87693 0.57529
880.82849 0.65268
878.78006 0.73875
876.73162 0.80942
874.68318 0.86436
872.63474 0.91342
870.58630 0.95907
868.53786 1.00079
866.48943 1.03710
864.44099 1.06721
862.39255 1.09177
860.34411 1.11166
858.29567 1.12851
856.24723 1.14486
854.19880 1.15753
852.15036 1.16126
850.10192 1.16142
848.05348 1.16564
846.00504 1.17340
843.95660 1.18133
841.90817 1.18829
839.85973 1.19475
837.81129 1.20101
835.76285 1.20686
833.71441 1.21215
831.66597 1.21673
829.61753 1.22085
827.56910 1.22436
825.52066 1.22680
823.47222 1.22887
821.42378 1.23219
819.37534 1.23699
817.32690 1.24129
815.27847 1.24363
813.23003 1.24528
811.18159 1.24749
809.13315 1.24963
807.08471 1.25153
805.03627 1.25412
802.98784 1.25798
800.93940 1.26273
798.89096 1.26720
796.84252 1.27048
794.79408 1.27342
792.74564 1.27704
790.69721 1.28136
788.64877 1.28686
786.60033 1.29281
784.55189 1.29689
782.50345 1.29909
780.45501 1.30159
778.40658 1.30540
776.35814 1.31087
774.30970 1.31745
772.26126 1.32234
770.21282 1.32503
768.16438 1.32838
766.11595 1.33312
764.06751 1.33826
762.01907 1.34421
759.97063 1.35123
757.92219 1.35814
755.87375 1.36538
753.82532 1.37361
751.77688 1.38155
749.72844 1.39021
747.68000 1.40204
745.63156 1.41639
743.58312 1.43307
741.53469 1.45582
739.48625 1.48960
737.43781 1.54015
735.38937 1.59833
733.34093 1.56941
731.29249 1.38193
729.24406 1.19602
727.19562 1.11461
725.14718 1.11968
723.09874 1.15767
721.05030 1.19551
719.00186 1.22560
716.95343 1.24704
714.90499 1.26162
712.85655 1.27240
710.80811 1.28248
708.75967 1.29258
706.71123 1.30127
704.66280 1.30812
702.61436 1.31437
700.56592 1.32080
698.51748 1.32748
696.46904 1.33367
694.42060 1.33870
692.37216 1.34350
690.32373 1.34749
688.27529 1.35052
686.22685 1.35526
684.17841 1.36138
682.12997 1.36591
680.08153 1.36893
678.03310 1.37223
675.98466 1.37657
673.93622 1.38146
671.88778 1.38415
669.83934 1.38393
667.79090 1.38757
665.74247 1.39594
663.69403 1.40206
661.64559 1.40804
659.59715 1.41309
657.54871 1.41405
655.50027 1.41303
653.45184 1.41113
651.40340 1.40895
649.35496 1.41067
647.30652 1.41725
645.25808 1.42267
643.20964 1.42641
641.16121 1.43665
639.11277 1.44872
637.06433 1.45193
635.01589 1.45295
632.96745 1.46107
630.91901 1.47232
628.87058 1.47933
626.82214 1.48364
624.77370 1.48739
622.72526 1.48606
620.67682 1.48069
618.62838 1.48167
616.57995 1.49736
614.53151 1.52158
612.48307 1.53720
610.43463 1.53439
608.38619 1.52428
606.33775 1.52795
604.28932 1.54729
602.24088 1.56121
600.19244 1.56208
598.14400 1.56614
