3996.50324 1.50945
3994.45480 1.51016
3992.40636 1.51013
3990.35792 1.51058
3988.30948 1.51130
3986.26104 1.51122
3984.21261 1.51090
3982.16417 1.51116
3980.11573 1.51208
3978.06729 1.51181
3976.01885 1.51069
3973.97041 1.51146
3971.92198 1.51302
3969.87354 1.51350
3967.82510 1.51308
3965.77666 1.51223
3963.72822 1.51170
3961.67978 1.51177
3959.63135 1.51141
3957.58291 1.50968
3955.53447 1.50757
3953.48603 1.50592
3951.43759 1.50435
3949.38915 1.50332
3947.34072 1.50252
3945.29228 1.50007
3943.24384 1.49758
3941.19540 1.49625
3939.14696 1.49366
3937.09852 1.48987
3935.05009 1.48546
3933.00165 1.48089
3930.95321 1.47818
3928.90477 1.47626
3926.85633 1.47290
3924.80789 1.46973
3922.75946 1.46781
3920.71102 1.46455
3918.66258 1.46085
3916.61414 1.46063
3914.56570 1.46159
3912.51726 1.45966
3910.46883 1.45606
3908.42039 1.45169
3906.37195 1.44721
3904.32351 1.44693
3902.27507 1.45093
3900.22663 1.45373
3898.17820 1.45434
3896.12976 1.45111
3894.08132 1.44583
3892.03288 1.44543
3889.98444 1.44861
3887.93600 1.44594
3885.88756 1.44366
3883.83913 1.44567
3881.79069 1.44517
3879.74225 1.44660
3877.69381 1.44581
3875.64537 1.43921
3873.59693 1.43498
3871.54850 1.43521
3869.50006 1.43849
3867.45162 1.43978
3865.40318 1.43664
3863.35474 1.43793
3861.30630 1.44153
3859.25787 1.43969
3857.20943 1.43286
3855.16099 1.42406
3853.11255 1.43043
3851.06411 1.44515
3849.01567 1.44508
3846.96724 1.43919
3844.91880 1.43346
3842.87036 1.43129
3840.82192 1.43086
3838.77348 1.43256
3836.72504 1.43957
3834.67661 1.44320
3832.62817 1.44293
3830.57973 1.44197
3828.53129 1.43993
3826.48285 1.43900
3824.43441 1.43629
3822.38598 1.42918
3820.33754 1.43138
3818.28910 1.43780
3816.24066 1.44116
3814.19222 1.44555
3812.14378 1.44317
3810.09535 1.43606
3808.04691 1.43211
3805.99847 1.43623
3803.95003 1.43689
3801.90159 1.43616
3799.85315 1.44209
3797.80472 1.44328
3795.75628 1.44403
3793.70784 1.44533
3791.65940 1.44372
3789.61096 1.44168
3787.56252 1.44018
3785.51409 1.43986
3783.46565 1.44051
3781.41721 1.43922
3779.36877 1.43995
3777.32033 1.44353
3775.27189 1.44310
3773.22346 1.43950
3771.17502 1.43740
3769.12658 1.44070
3767.07814 1.44407
3765.02970 1.44465
3762.98126 1.44326
3760.93283 1.44011
3758.88439 1.44163
3756.83595 1.44528
3754.78751 1.44146
3752.73907 1.43350
3750.69063 1.43592
3748.64219 1.44572
3746.59376 1.44542
3744.54532 1.44848
3742.49688 1.45691
3740.44844 1.45490
3738.40000 1.44674
3736.35156 1.44401
3734.30313 1.45405
3732.25469 1.46238
3730.20625 1.46196
3728.15781 1.45802
3726.10937 1.45701
3724.06093 1.46129
3722.01250 1.46571
3719.96406 1.46788
3717.91562 1.46744
3715.86718 1.46448
3713.81874 1.45990
3711.77030 1.45944
3709.72187 1.46735
3707.67343 1.47129
3705.62499 1.46943
3703.57655 1.46640
3701.52811 1.46761
3699.47967 1.47122
3697.43124 1.47179
3695.38280 1.47039
3693.33436 1.46878
3691.28592 1.46883
3689.23748 1.47374
3687.18904 1.47875
3685.14061 1.48014
3683.09217 1.48048
3681.04373 1.48033
3678.99529 1.47834
3676.94685 1.47590
3674.89841 1.48218
3672.84998 1.48800
3670.80154 1.48873
3668.75310 1.49411
3666.70466 1.49792
3664.65622 1.49788
3662.60778 1.49791
3660.55935 1.49833
3658.51091 1.49860
3656.46247 1.50053
3654.41403 1.50273
3652.36559 1.50127
3650.31715 1.49762
3648.26872 1.50074
3646.22028 1.50737
3644.17184 1.50972
3642.12340 1.51033
3640.07496 1.51102
3638.02652 1.51182
3635.97809 1.51269
3633.92965 1.51365
3631.88121 1.51331
3629.83277 1.51294
3627.78433 1.51758
3625.73589 1.52049
3623.68746 1.51964
3621.63902 1.51825
3619.59058 1.51873
3617.54214 1.52068
3615.49370 1.52084
3613.44526 1.52066
3611.39682 1.52176
3609.34839 1.52290
3607.29995 1.52371
3605.25151 1.52383
3603.20307 1.52316
3601.15463 1.52251
3599.10619 1.52208
3597.05776 1.52181
3595.00932 1.52238
3592.96088 1.52282
3590.91244 1.52121
3588.86400 1.51915
3586.81556 1.52061
3584.76713 1.52373
3582.71869 1.52462
3580.67025 1.52352
3578.62181 1.52231
3576.57337 1.52232
3574.52493 1.52288
3572.47650 1.52289
3570.42806 1.52162
3568.37962 1.51995
3566.33118 1.52022
3564.28274 1.52099
3562.23430 1.52074
3560.18587 1.52104
3558.13743 1.52132
3556.08899 1.51998
3554.04055 1.51842
3551.99211 1.51863
3549.94367 1.51971
3547.89524 1.52039
3545.84680 1.52105
3543.79836 1.52156
3541.74992 1.52170
3539.70148 1.52210
3537.65304 1.52270
3535.60461 1.52314
3533.55617 1.52310
3531.50773 1.52234
3529.45929 1.52181
3527.41085 1.52243
3525.36241 1.52304
3523.31398 1.52333
3521.26554 1.52391
3519.21710 1.52383
3517.16866 1.52271
3515.12022 1.52190
3513.07178 1.52244
3511.02335 1.52426
3508.97491 1.52609
3506.92647 1.52634
3504.87803 1.52611
3502.82959 1.52651
3500.78115 1.52605
3498.73272 1.52472
3496.68428 1.52356
3494.63584 1.52341
3492.58740 1.52427
3490.53896 1.52455
3488.49052 1.52488
3486.44209 1.52619
3484.39365 1.52687
3482.34521 1.52703
3480.29677 1.52748
3478.24833 1.52737
3476.19989 1.52697
3474.15146 1.52702
3472.10302 1.52685
3470.05458 1.52591
3468.00614 1.52470
3465.95770 1.52404
3463.90926 1.52487
3461.86082 1.52661
3459.81239 1.52743
3457.76395 1.52753
3455.71551 1.52787
3453.66707 1.52846
3451.61863 1.52905
3449.57019 1.52926
3447.52176 1.52891
3445.47332 1.52803
3443.42488 1.52751
3441.37644 1.52769
3439.32800 1.52779
3437.27956 1.52794
3435.23113 1.52847
3433.18269 1.52900
3431.13425 1.52943
3429.08581 1.53033
3427.03737 1.53146
3424.98893 1.53173
3422.94050 1.53120
3420.89206 1.53087
3418.84362 1.53091
3416.79518 1.53102
3414.74674 1.53133
3412.69830 1.53136
3410.64987 1.53124
3408.60143 1.53185
3406.55299 1.53248
3404.50455 1.53201
3402.45611 1.53105
3400.40767 1.53069
3398.35924 1.53077
3396.31080 1.53091
3394.26236 1.53153
3392.21392 1.53257
3390.16548 1.53303
3388.11704 1.53232
3386.06861 1.53100
3384.02017 1.53107
3381.97173 1.53311
3379.92329 1.53485
3377.87485 1.53495
3375.82641 1.53471
3373.77798 1.53510
3371.72954 1.53499
3369.68110 1.53399
3367.63266 1.53315
3365.58422 1.53291
3363.53578 1.53312
3361.48735 1.53379
3359.43891 1.53465
3357.39047 1.53490
3355.34203 1.53450
3353.29359 1.53459
3351.24515 1.53568
3349.19672 1.53662
3347.14828 1.53687
3345.09984 1.53700
3343.05140 1.53708
3341.00296 1.53691
3338.95452 1.53643
3336.90609 1.53574
3334.85765 1.53499
3332.80921 1.53462
3330.76077 1.53482
3328.71233 1.53548
3326.66389 1.53633
3324.61545 1.53652
3322.56702 1.53619
3320.51858 1.53618
3318.47014 1.53666
3316.42170 1.53703
3314.37326 1.53696
3312.32482 1.53727
3310.27639 1.53822
3308.22795 1.53910
3306.17951 1.53883
3304.13107 1.53769
3302.08263 1.53721
3300.03419 1.53753
3297.98576 1.53835
3295.93732 1.53921
3293.88888 1.53972
3291.84044 1.54001
3289.79200 1.53987
3287.74356 1.53938
3285.69513 1.53910
3283.64669 1.53946
3281.59825 1.53990
3279.54981 1.53987
3277.50137 1.53930
3275.45293 1.53825
3273.40450 1.53784
3271.35606 1.53834
3269.30762 1.53898
3267.25918 1.53934
3265.21074 1.53919
3263.16230 1.53904
3261.11387 1.53945
3259.06543 1.54063
3257.01699 1.54244
3254.96855 1.54318
3252.92011 1.54189
3250.87167 1.54066
3248.82324 1.54092
3246.77480 1.54122
3244.72636 1.54071
3242.67792 1.54079
3240.62948 1.54168
3238.58104 1.54196
3236.53261 1.54166
3234.48417 1.54169
3232.43573 1.54215
3230.38729 1.54276
3228.33885 1.54246
3226.29041 1.54162
3224.24198 1.54175
3222.19354 1.54207
3220.14510 1.54228
3218.09666 1.54289
3216.04822 1.54323
3213.99978 1.54335
3211.95135 1.54378
3209.90291 1.54401
3207.85447 1.54382
3205.80603 1.54378
3203.75759 1.54426
3201.70915 1.54544
3199.66072 1.54647
3197.61228 1.54583
3195.56384 1.54456
3193.51540 1.54512
3191.46696 1.54622
3189.41852 1.54548
3187.37008 1.54423
3185.32165 1.54423
3183.27321 1.54490
3181.22477 1.54551
3179.17633 1.54623
3177.12789 1.54668
3175.07945 1.54636
3173.03102 1.54618
3170.98258 1.54694
3168.93414 1.54781
3166.88570 1.54804
3164.83726 1.54821
3162.78882 1.54845
3160.74039 1.54803
3158.69195 1.54755
3156.64351 1.54787
3154.59507 1.54759
3152.54663 1.54658
3150.49819 1.54742
3148.44976 1.54998
3146.40132 1.55155
3144.35288 1.55134
3142.30444 1.55011
3140.25600 1.54846
3138.20756 1.54792
3136.15913 1.54930
3134.11069 1.55099
3132.06225 1.55151
3130.01381 1.55123
3127.96537 1.55153
3125.91693 1.55231
3123.86850 1.55192
3121.82006 1.54976
3119.77162 1.54727
3117.72318 1.54640
3115.67474 1.54791
3113.62630 1.55083
3111.57787 1.55201
3109.52943 1.55060
3107.48099 1.55035
3105.43255 1.55245
3103.38411 1.55383
3101.33567 1.55311
3099.28724 1.55271
3097.23880 1.55441
3095.19036 1.55626
3093.14192 1.55533
3091.09348 1.55242
3089.04504 1.55141
3086.99661 1.55238
3084.94817 1.55261
3082.89973 1.55210
3080.85129 1.55184
3078.80285 1.55224
3076.75441 1.55358
3074.70598 1.55569
3072.65754 1.55706
3070.60910 1.55626
3068.56066 1.55420
3066.51222 1.55373
3064.46378 1.55573
3062.41535 1.55849
3060.36691 1.56076
3058.31847 1.56100
3056.27003 1.55944
3054.22159 1.55799
3052.17315 1.55732
3050.12471 1.55795
3048.07628 1.55886
3046.02784 1.55829
3043.97940 1.55741
3041.93096 1.55788
3039.88252 1.56013
3037.83408 1.56263
3035.78565 1.56281
3033.73721 1.56208
3031.68877 1.56292
3029.64033 1.56493
3027.59189 1.56633
3025.54345 1.56594
3023.49502 1.56554
3021.44658 1.56622
3019.39814 1.56605
3017.34970 1.56405
3015.30126 1.56102
3013.25282 1.55876
3011.20439 1.55891
3009.15595 1.56109
3007.10751 1.56349
3005.05907 1.56423
3003.01063 1.56316
3000.96219 1.56202
2998.91376 1.56150
2996.86532 1.56132
2994.81688 1.56074
2992.76844 1.55972
2990.72000 1.55996
2988.67156 1.56125
2986.62313 1.56132
2984.57469 1.55928
2982.52625 1.55693
2980.47781 1.55634
2978.42937 1.55701
2976.38093 1.55705
2974.33250 1.55646
2972.28406 1.55700
2970.23562 1.55804
2968.18718 1.55771
2966.13874 1.55643
2964.09030 1.55520
2962.04187 1.55440
2959.99343 1.55438
2957.94499 1.55519
2955.89655 1.55597
2953.84811 1.55589
2951.79967 1.55558
2949.75124 1.55551
2947.70280 1.55498
2945.65436 1.55403
2943.60592 1.55375
2941.55748 1.55459
2939.50904 1.55576
2937.46061 1.55616
2935.41217 1.55557
2933.36373 1.55436
2931.31529 1.55278
2929.26685 1.55131
2927.21841 1.55035
2925.16998 1.54964
2923.12154 1.54869
2921.07310 1.54716
2919.02466 1.54554
2916.97622 1.54486
2914.92778 1.54585
2912.87934 1.54859
2910.83091 1.55234
2908.78247 1.55580
2906.73403 1.55769
2904.68559 1.55843
2902.63715 1.55977
2900.58871 1.56115
2898.54028 1.56118
2896.49184 1.56051
2894.44340 1.56026
2892.39496 1.56058
2890.34652 1.56109
2888.29808 1.56128
2886.24965 1.56082
2884.20121 1.56056
2882.15277 1.56101
2880.10433 1.56084
2878.05589 1.55972
2876.00745 1.55826
2873.95902 1.55662
2871.91058 1.55593
2869.86214 1.55666
2867.81370 1.55714
2865.76526 1.55633
2863.71682 1.55475
2861.66839 1.55313
2859.61995 1.55214
2857.57151 1.55170
2855.52307 1.55117
2853.47463 1.54998
2851.42619 1.54838
2849.37776 1.54763
2847.32932 1.54852
2845.28088 1.55028
2843.23244 1.55169
2841.18400 1.55251
2839.13556 1.55316
2837.08713 1.55373
2835.03869 1.55439
2832.99025 1.55541
2830.94181 1.55615
2828.89337 1.55582
2826.84493 1.55508
2824.79650 1.55483
2822.74806 1.55491
2820.69962 1.55541
2818.65118 1.55637
2816.60274 1.55713
2814.55430 1.55730
2812.50587 1.55638
2810.45743 1.55443
2808.40899 1.55271
2806.36055 1.55152
2804.31211 1.55049
2802.26367 1.54966
2800.21524 1.54873
2798.16680 1.54746
2796.11836 1.54639
2794.06992 1.54585
2792.02148 1.54569
2789.97304 1.54550
2787.92461 1.54506
2785.87617 1.54457
2783.82773 1.54426
2781.77929 1.54445
2779.73085 1.54474
2777.68241 1.54443
2775.63397 1.54393
2773.58554 1.54403
2771.53710 1.54434
2769.48866 1.54399
2767.44022 1.54328
2765.39178 1.54290
2763.34334 1.54340
2761.29491 1.54424
2759.24647 1.54391
2757.19803 1.54288
2755.14959 1.54305
2753.10115 1.54418
2751.05271 1.54468
2749.00428 1.54450
2746.95584 1.54450
2744.90740 1.54501
2742.85896 1.54606
2740.81052 1.54672
2738.76208 1.54645
2736.71365 1.54646
2734.66521 1.54709
2732.61677 1.54759
2730.56833 1.54823
2728.51989 1.54895
2726.47145 1.54901
2724.42302 1.54917
2722.37458 1.55013
2720.32614 1.55113
2718.27770 1.55168
2716.22926 1.55188
2714.18082 1.55217
2712.13239 1.55300
2710.08395 1.55405
2708.03551 1.55493
2705.98707 1.55579
2703.93863 1.55656
2701.89019 1.55747
2699.84176 1.55887
2697.79332 1.56036
2695.74488 1.56169
2693.69644 1.56285
2691.64800 1.56346
2689.59956 1.56366
2687.55113 1.56453
2685.50269 1.56629
2683.45425 1.56733
2681.40581 1.56720
2679.35737 1.56733
2677.30893 1.56821
2675.26050 1.56937
2673.21206 1.57119
2671.16362 1.57345
2669.11518 1.57458
2667.06674 1.57465
2665.01830 1.57530
2662.96987 1.57658
2660.92143 1.57767
2658.87299 1.57830
2656.82455 1.57844
2654.77611 1.57879
2652.72767 1.58014
2650.67924 1.58176
2648.63080 1.58248
2646.58236 1.58261
2644.53392 1.58304
2642.48548 1.58392
2640.43704 1.58486
2638.38860 1.58526
2636.34017 1.58493
2634.29173 1.58461
2632.24329 1.58450
2630.19485 1.58458
2628.14641 1.58473
2626.09797 1.58435
2624.04954 1.58353
2622.00110 1.58296
2619.95266 1.58259
2617.90422 1.58184
2615.85578 1.58078
2613.80734 1.58033
2611.75891 1.58066
2609.71047 1.58073
2607.66203 1.58067
2605.61359 1.58146
2603.56515 1.58258
2601.51671 1.58325
2599.46828 1.58371
2597.41984 1.58467
2595.37140 1.58643
2593.32296 1.58807
2591.27452 1.58875
2589.22608 1.58910
2587.17765 1.58976
2585.12921 1.59039
2583.08077 1.59075
2581.03233 1.59125
2578.98389 1.59172
2576.93545 1.59140
2574.88702 1.59086
2572.83858 1.59137
2570.79014 1.59210
2568.74170 1.59191
2566.69326 1.59125
2564.64482 1.59087
2562.59639 1.59147
2560.54795 1.59280
2558.49951 1.59395
2556.45107 1.59498
2554.40263 1.59595
2552.35419 1.59641
2550.30576 1.59662
2548.25732 1.59673
2546.20888 1.59609
2544.16044 1.59511
2542.11200 1.59428
2540.06356 1.59353
2538.01513 1.59325
2535.96669 1.59323
2533.91825 1.59271
2531.86981 1.59142
2529.82137 1.59004
2527.77293 1.58930
2525.72450 1.58887
2523.67606 1.58795
2521.62762 1.58646
2519.57918 1.58439
2517.53074 1.58143
2515.48230 1.57787
2513.43387 1.57430
2511.38543 1.57137
2509.33699 1.56951
2507.28855 1.56843
2505.24011 1.56794
2503.19167 1.56821
2501.14324 1.56900
2499.09480 1.56980
2497.04636 1.57035
2494.99792 1.57078
2492.94948 1.57182
2490.90104 1.57353
2488.85260 1.57492
2486.80417 1.57554
2484.75573 1.57542
2482.70729 1.57491
2480.65885 1.57520
2478.61041 1.57638
2476.56197 1.57727
2474.51354 1.57733
2472.46510 1.57698
2470.41666 1.57687
2468.36822 1.57739
2466.31978 1.57818
2464.27134 1.57819
2462.22291 1.57748
2460.17447 1.57734
2458.12603 1.57788
2456.07759 1.57864
2454.02915 1.57946
2451.98071 1.57979
2449.93228 1.57945
2447.88384 1.57921
2445.83540 1.57904
2443.78696 1.57837
2441.73852 1.57779
2439.69008 1.57793
2437.64165 1.57844
2435.59321 1.57883
2433.54477 1.57900
2431.49633 1.57926
2429.44789 1.57946
2427.39945 1.57929
2425.35102 1.57907
2423.30258 1.57911
2421.25414 1.57948
2419.20570 1.57989
2417.15726 1.57981
2415.10882 1.57951
2413.06039 1.57995
2411.01195 1.58063
2408.96351 1.58036
2406.91507 1.57978
2404.86663 1.57956
2402.81819 1.57927
2400.76976 1.57913
2398.72132 1.57935
2396.67288 1.57916
2394.62444 1.57855
2392.57600 1.57849
2390.52756 1.57872
2388.47913 1.57851
2386.43069 1.57826
2384.38225 1.57792
2382.33381 1.57724
2380.28537 1.57671
2378.23693 1.57662
2376.18850 1.57749
2374.14006 1.57902
2372.09162 1.57999
2370.04318 1.58060
2367.99474 1.58117
2365.94630 1.58234
2363.89787 1.58276
2361.84943 1.57745
2359.80099 1.57199
2357.75255 1.57347
2355.70411 1.57763
2353.65567 1.58185
2351.60723 1.58524
2349.55880 1.58681
2347.51036 1.58644
2345.46192 1.58427
2343.41348 1.58272
2341.36504 1.58410
2339.31660 1.58782
2337.26817 1.59176
2335.21973 1.59307
2333.17129 1.59289
2331.12285 1.59463
2329.07441 1.59665
2327.02597 1.59561
2324.97754 1.59382
2322.92910 1.59455
2320.88066 1.59659
2318.83222 1.59674
2316.78378 1.59544
2314.73534 1.59533
2312.68691 1.59650
2310.63847 1.59702
2308.59003 1.59629
2306.54159 1.59483
2304.49315 1.59328
2302.44471 1.59271
2300.39628 1.59246
2298.34784 1.59116
2296.29940 1.58976
2294.25096 1.58940
2292.20252 1.58959
2290.15408 1.58989
2288.10565 1.59052
2286.05721 1.59160
2284.00877 1.59317
2281.96033 1.59550
2279.91189 1.59822
2277.86345 1.60035
2275.81502 1.60167
2273.76658 1.60260
2271.71814 1.60412
2269.66970 1.60639
2267.62126 1.60787
2265.57282 1.60841
2263.52439 1.60926
2261.47595 1.61039
2259.42751 1.61169
2257.37907 1.61344
2255.33063 1.61481
2253.28219 1.61542
2251.23376 1.61585
2249.18532 1.61613
2247.13688 1.61598
2245.08844 1.61575
2243.04000 1.61536
2240.99156 1.61471
2238.94313 1.61424
2236.89469 1.61373
2234.84625 1.61298
2232.79781 1.61250
2230.74937 1.61255
2228.70093 1.61340
2226.65250 1.61485
2224.60406 1.61575
2222.55562 1.61649
2220.50718 1.61782
2218.45874 1.61906
2216.41030 1.62043
2214.36186 1.62269
2212.31343 1.62512
2210.26499 1.62661
2208.21655 1.62716
2206.16811 1.62736
2204.11967 1.62786
2202.07123 1.62864
2200.02280 1.62938
2197.97436 1.63029
2195.92592 1.63137
2193.87748 1.63216
2191.82904 1.63311
2189.78060 1.63468
2187.73217 1.63597
2185.68373 1.63644
2183.63529 1.63689
2181.58685 1.63811
2179.53841 1.63940
2177.48997 1.64022
2175.44154 1.64119
2173.39310 1.64214
2171.34466 1.64263
2169.29622 1.64339
2167.24778 1.64457
2165.19934 1.64540
2163.15091 1.64538
2161.10247 1.64484
2159.05403 1.64472
2157.00559 1.64561
2154.95715 1.64740
2152.90871 1.64866
2150.86028 1.64848
2148.81184 1.64809
2146.76340 1.64803
2144.71496 1.64813
2142.66652 1.64885
2140.61808 1.64946
2138.56965 1.64889
2136.52121 1.64734
2134.47277 1.64590
2132.42433 1.64523
2130.37589 1.64445
2128.32745 1.64315
2126.27902 1.64224
2124.23058 1.64168
2122.18214 1.64079
2120.13370 1.63997
2118.08526 1.63984
2116.03682 1.64042
2113.98839 1.64130
2111.93995 1.64171
2109.89151 1.64083
2107.84307 1.63955
2105.79463 1.64006
2103.74619 1.64208
2101.69776 1.64345
2099.64932 1.64290
2097.60088 1.64233
2095.55244 1.64345
2093.50400 1.64480
2091.45556 1.64547
2089.40713 1.64607
2087.35869 1.64637
2085.31025 1.64626
2083.26181 1.64670
2081.21337 1.64782
2079.16493 1.64877
2077.11649 1.64914
2075.06806 1.64973
2073.01962 1.65118
2070.97118 1.65298
2068.92274 1.65429
2066.87430 1.65475
2064.82586 1.65484
2062.77743 1.65497
2060.72899 1.65502
2058.68055 1.65541
2056.63211 1.65674
2054.58367 1.65806
2052.53523 1.65841
2050.48680 1.65900
2048.43836 1.66069
2046.38992 1.66267
2044.34148 1.66411
2042.29304 1.66490
2040.24460 1.66584
2038.19617 1.66711
2036.14773 1.66818
2034.09929 1.66950
2032.05085 1.67143
2030.00241 1.67317
2027.95397 1.67392
2025.90554 1.67395
2023.85710 1.67461
2021.80866 1.67620
2019.76022 1.67718
2017.71178 1.67794
2015.66334 1.67954
2013.61491 1.68043
2011.56647 1.68088
2009.51803 1.68270
2007.46959 1.68499
2005.42115 1.68675
2003.37271 1.68855
2001.32428 1.69010
1999.27584 1.69110
1997.22740 1.69212
1995.17896 1.69335
1993.13052 1.69530
1991.08208 1.69794
1989.03365 1.70036
1986.98521 1.70315
1984.93677 1.70652
1982.88833 1.70968
1980.83989 1.71279
1978.79145 1.71653
1976.74302 1.72034
1974.69458 1.72314
1972.64614 1.72450
1970.59770 1.72390
1968.54926 1.72228
1966.50082 1.72195
1964.45239 1.72361
1962.40395 1.72549
1960.35551 1.72604
1958.30707 1.72609
1956.25863 1.72749
1954.21019 1.73012
1952.16176 1.73291
1950.11332 1.73506
1948.06488 1.73622
1946.01644 1.73735
1943.96800 1.73992
1941.91956 1.74334
1939.87112 1.74446
1937.82269 1.74497
1935.77425 1.74742
1933.72581 1.75032
1931.67737 1.75252
1929.62893 1.75511
1927.58049 1.75809
1925.53206 1.76019
1923.48362 1.76180
1921.43518 1.76398
1919.38674 1.76686
1917.33830 1.76992
1915.28986 1.77276
1913.24143 1.77557
1911.19299 1.77786
1909.14455 1.77952
1907.09611 1.78172
1905.04767 1.78373
1902.99923 1.78512
1900.95080 1.78728
1898.90236 1.79002
1896.85392 1.79247
1894.80548 1.79476
1892.75704 1.79698
1890.70860 1.79923
1888.66017 1.80206
1886.61173 1.80449
1884.56329 1.80646
1882.51485 1.80819
1880.46641 1.81036
1878.41797 1.81396
1876.36954 1.81781
1874.32110 1.82097
1872.27266 1.82406
1870.22422 1.82820
1868.17578 1.83234
1866.12734 1.83438
1864.07891 1.83543
1862.03047 1.83754
1859.98203 1.84066
1857.93359 1.84455
1855.88515 1.84908
1853.83671 1.85332
1851.78828 1.85744
1849.73984 1.86154
1847.69140 1.86527
1845.64296 1.86929
1843.59452 1.87663
1841.54608 1.88353
1839.49765 1.88831
1837.44921 1.89406
1835.40077 1.90095
1833.35233 1.90750
1831.30389 1.91552
1829.25545 1.92650
1827.20702 1.93418
1825.15858 1.93706
1823.11014 1.93550
1821.06170 1.93041
1819.01326 1.92438
1816.96482 1.91853
1814.91639 1.91120
1812.86795 1.90215
1810.81951 1.89363
1808.77107 1.88875
1806.72263 1.88692
1804.67419 1.88645
1802.62575 1.88853
1800.57732 1.89423
1798.52888 1.90105
1796.48044 1.90666
1794.43200 1.91308
1792.38356 1.92164
1790.33512 1.92809
1788.28669 1.93157
1786.23825 1.93727
1784.18981 1.94499
1782.14137 1.95121
1780.09293 1.95683
1778.04449 1.96229
1775.99606 1.96815
1773.94762 1.97624
1771.89918 1.98732
1769.85074 1.99342
1767.80230 1.99428
1765.75386 1.99518
1763.70543 1.99828
1761.65699 2.00321
1759.60855 2.00788
1757.56011 2.01459
1755.51167 2.02219
1753.46323 2.02687
1751.41480 2.03132
1749.36636 2.04012
1747.31792 2.04823
1745.26948 2.05270
1743.22104 2.05680
1741.17260 2.06320
1739.12417 2.07135
1737.07573 2.07707
1735.02729 2.08322
1732.97885 2.09299
1730.93041 2.10226
1728.88197 2.11090
1726.83354 2.11947
1724.78510 2.12811
1722.73666 2.13530
1720.68822 2.13940
1718.63978 2.14424
1716.59134 2.15806
1714.54291 2.17432
1712.49447 2.18498
1710.44603 2.19416
1708.39759 2.20584
1706.34915 2.21976
1704.30071 2.23272
1702.25228 2.24289
1700.20384 2.25516
1698.15540 2.26653
1696.10696 2.27669
1694.05852 2.29115
1692.01008 2.30260
1689.96165 2.31397
1687.91321 2.32569
1685.86477 2.34316
1683.81633 2.37049
1681.76789 2.38321
1679.71945 2.38987
1677.67102 2.39914
1675.62258 2.41311
1673.57414 2.43106
1671.52570 2.44864
1669.47726 2.47037
1667.42882 2.48929
1665.38038 2.49772
1663.33195 2.51124
1661.28351 2.52774
1659.23507 2.53756
1657.18663 2.54125
1655.13819 2.54788
1653.08975 2.58068
1651.04132 2.59040
1648.99288 2.57973
1646.94444 2.57694
1644.89600 2.57372
1642.84756 2.55734
1640.79912 2.54700
1638.75069 2.54239
1636.70225 2.52731
1634.65381 2.47388
1632.60537 2.43314
1630.55693 2.40349
1628.50849 2.36456
1626.46006 2.32133
1624.41162 2.27264
1622.36318 2.21199
1620.31474 2.15927
1618.26630 2.10681
1616.21786 2.02728
1614.16943 1.96218
1612.12099 1.91327
1610.07255 1.86016
1608.02411 1.80189
1605.97567 1.74574
1603.92723 1.68852
1601.87880 1.62489
1599.83036 1.56033
1597.78192 1.49606
1595.73348 1.42521
1593.68504 1.34600
1591.63660 1.26022
1589.58817 1.16380
1587.53973 1.05995
1585.49129 0.95469
1583.44285 0.85367
1581.39441 0.76581
1579.34597 0.69628
1577.29754 0.61997
1575.24910 0.52716
1573.20066 0.47265
1571.15222 0.43664
1569.10378 0.39939
1567.05534 0.37579
1565.00691 0.36276
1562.95847 0.35252
1560.91003 0.34344
1558.86159 0.33034
1556.81315 0.32405
1554.76471 0.32218
1552.71628 0.31926
1550.66784 0.31636
1548.61940 0.31376
1546.57096 0.31122
1544.52252 0.30788
1542.47408 0.30379
1540.42565 0.30165
1538.37721 0.30355
1536.32877 0.30338
1534.28033 0.30187
1532.23189 0.30092
1530.18345 0.30036
1528.13501 0.29936
1526.08658 0.29859
1524.03814 0.29793
1521.98970 0.29822
1519.94126 0.30094
1517.89282 0.30453
1515.84438 0.31006
1513.79595 0.31564
1511.74751 0.32072
1509.69907 0.32563
1507.65063 0.33949
1505.60219 0.36909
1503.55375 0.38321
1501.50532 0.39193
1499.45688 0.40214
1497.40844 0.41583
1495.36000 0.42911
1493.31156 0.43645
1491.26312 0.44165
1489.21469 0.45010
1487.16625 0.45860
1485.11781 0.46369
1483.06937 0.46759
1481.02093 0.47181
1478.97249 0.47560
1476.92406 0.47845
1474.87562 0.48144
1472.82718 0.48646
1470.77874 0.49212
1468.73030 0.49485
1466.68186 0.49709
1464.63343 0.50137
1462.58499 0.50559
1460.53655 0.50745
1458.48811 0.50996
1456.43967 0.51874
1454.39123 0.52552
1452.34280 0.52876
1450.29436 0.53169
1448.24592 0.53559
1446.19748 0.53981
1444.14904 0.54277
1442.10060 0.54433
1440.05217 0.54467
1438.00373 0.54424
1435.95529 0.54449
1433.90685 0.54481
1431.85841 0.54455
1429.80997 0.54476
1427.76154 0.54540
1425.71310 0.54632
1423.66466 0.54815
1421.61622 0.55098
1419.56778 0.55734
1417.51934 0.57072
1415.47091 0.58554
1413.42247 0.60282
1411.37403 0.62543
1409.32559 0.64964
1407.27715 0.67125
1405.22871 0.69303
1403.18028 0.71284
1401.13184 0.72669
1399.08340 0.73925
1397.03496 0.75255
1394.98652 0.76711
1392.93808 0.78158
1390.88965 0.79303
1388.84121 0.80465
1386.79277 0.81964
1384.74433 0.83342
1382.69589 0.84446
1380.64745 0.85518
1378.59901 0.86584
1376.55058 0.87587
1374.50214 0.88690
1372.45370 0.89805
1370.40526 0.90687
1368.35682 0.91558
1366.30838 0.92373
1364.25995 0.93146
1362.21151 0.94078
1360.16307 0.94992
1358.11463 0.95720
1356.06619 0.96421
1354.01775 0.97135
1351.96932 0.97824
1349.92088 0.98526
1347.87244 0.99237
1345.82400 0.99912
1343.77556 1.00496
1341.72712 1.01045
1339.67869 1.01679
1337.63025 1.02374
1335.58181 1.02948
1333.53337 1.03455
1331.48493 1.03941
1329.43649 1.04423
1327.38806 1.04906
1325.33962 1.05378
1323.29118 1.05847
1321.24274 1.06288
1319.19430 1.06738
1317.14586 1.07184
1315.09743 1.07625
1313.04899 1.08072
1311.00055 1.08518
1308.95211 1.08939
1306.90367 1.09375
1304.85523 1.09804
1302.80680 1.10198
1300.75836 1.10581
1298.70992 1.10946
1296.66148 1.11291
1294.61304 1.11600
1292.56460 1.11929
1290.51617 1.12276
1288.46773 1.12609
1286.41929 1.12910
1284.37085 1.13193
1282.32241 1.13462
1280.27397 1.13741
1278.22554 1.14042
1276.17710 1.14329
1274.12866 1.14611
1272.08022 1.14900
1270.03178 1.15196
1267.98334 1.15466
1265.93491 1.15724
1263.88647 1.15967
1261.83803 1.16208
1259.78959 1.16472
1257.74115 1.16768
1255.69271 1.17090
1253.64428 1.17415
1251.59584 1.17709
1249.54740 1.17948
1247.49896 1.18169
1245.45052 1.18398
1243.40208 1.18650
1241.35364 1.18888
1239.30521 1.19093
1237.25677 1.19285
1235.20833 1.19489
1233.15989 1.19692
1231.11145 1.19879
1229.06301 1.20037
1227.01458 1.20165
1224.96614 1.20293
1222.91770 1.20439
1220.86926 1.20614
1218.82082 1.20809
1216.77238 1.21005
1214.72395 1.21204
1212.67551 1.21409
1210.62707 1.21577
1208.57863 1.21707
1206.53019 1.21871
1204.48175 1.22104
1202.43332 1.22351
1200.38488 1.22549
1198.33644 1.22693
1196.28800 1.22820
1194.23956 1.22964
1192.19112 1.23129
1190.14269 1.23302
1188.09425 1.23456
1186.04581 1.23585
1183.99737 1.23696
1181.94893 1.23785
1179.90049 1.23857
1177.85206 1.23943
1175.80362 1.24061
1173.75518 1.24202
1171.70674 1.24364
1169.65830 1.24524
1167.60986 1.24645
1165.56143 1.24749
1163.51299 1.24865
1161.46455 1.24984
1159.41611 1.25113
1157.36767 1.25277
1155.31923 1.25466
1153.27080 1.25642
1151.22236 1.25783
1149.17392 1.25897
1147.12548 1.26010
1145.07704 1.26089
1143.02860 1.26124
1140.98017 1.26182
1138.93173 1.26305
1136.88329 1.26469
1134.83485 1.26644
1132.78641 1.26784
1130.73797 1.26849
1128.68954 1.26849
1126.64110 1.26833
1124.59266 1.26864
1122.54422 1.26934
1120.49578 1.27015
1118.44734 1.27105
1116.39891 1.27201
1114.35047 1.27294
1112.30203 1.27387
1110.25359 1.27497
1108.20515 1.27610
1106.15671 1.27708
1104.10827 1.27807
1102.05984 1.27906
1100.01140 1.27936
1097.96296 1.27875
1095.91452 1.27794
1093.86608 1.27795
1091.81764 1.27900
1089.76921 1.28063
1087.72077 1.28229
1085.67233 1.28357
1083.62389 1.28498
1081.57545 1.28696
1079.52701 1.28930
1077.47858 1.29184
1075.43014 1.29448
1073.38170 1.29675
1071.33326 1.29866
1069.28482 1.30034
1067.23638 1.30199
1065.18795 1.30355
1063.13951 1.30496
1061.09107 1.30640
1059.04263 1.30774
1056.99419 1.30892
1054.94575 1.31008
1052.89732 1.31136
1050.84888 1.31269
1048.80044 1.31414
1046.75200 1.31561
1044.70356 1.31675
1042.65512 1.31722
1040.60669 1.31732
1038.55825 1.31746
1036.50981 1.31781
1034.46137 1.31853
1032.41293 1.31934
1030.36449 1.32012
1028.31606 1.32080
1026.26762 1.32127
1024.21918 1.32168
1022.17074 1.32245
1020.12230 1.32361
1018.07386 1.32522
1016.02543 1.32766
1013.97699 1.33147
1011.92855 1.33663
1009.88011 1.34198
1007.83167 1.34653
1005.78323 1.35058
1003.73480 1.35482
1001.68636 1.35876
999.63792 1.36202
997.58948 1.36504
995.54104 1.36797
993.49260 1.37069
991.44417 1.37318
989.39573 1.37574
987.34729 1.37865
985.29885 1.38187
983.25041 1.38509
981.20197 1.38815
979.15354 1.39094
977.10510 1.39337
975.05666 1.39570
973.00822 1.39819
970.95978 1.40102
968.91134 1.40419
966.86290 1.40718
964.81447 1.40999
962.76603 1.41328
960.71759 1.41702
958.66915 1.42075
956.62071 1.42412
954.57227 1.42684
952.52384 1.42954
950.47540 1.43292
948.42696 1.43681
946.37852 1.44044
944.33008 1.44362
942.28164 1.44726
940.23321 1.45128
938.18477 1.45544
936.13633 1.46003
934.08789 1.46501
932.03945 1.47051
929.99101 1.47610
927.94258 1.48104
925.89414 1.48624
923.84570 1.49213
921.79726 1.49790
919.74882 1.50314
917.70038 1.50824
915.65195 1.51301
913.60351 1.51647
911.55507 1.51773
909.50663 1.51283
907.45819 1.49115
905.40975 1.42549
903.36132 1.25663
901.31288 1.00350
899.26444 0.78889
897.21600 0.66735
895.16756 0.61851
893.11912 0.60424
891.07069 0.60261
889.02225 0.60758
886.97381 0.61997
884.92537 0.64753
882.87693 0.70161
880.82849 0.78266
878.78006 0.87085
876.73162 0.94410
874.68318 1.00154
872.63474 1.05167
870.58630 1.09703
868.53786 1.13709
866.48943 1.17063
864.44099 1.19754
862.39255 1.21934
860.34411 1.23802
858.29567 1.25542
856.24723 1.27250
854.19880 1.28412
852.15036 1.28572
850.10192 1.28507
848.05348 1.28973
846.00504 1.29762
843.95660 1.30546
841.90817 1.31246
839.85973 1.31873
837.81129 1.32460
835.76285 1.32988
833.71441 1.33470
831.66597 1.33937
829.61753 1.34389
827.56910 1.34762
825.52066 1.35016
823.47222 1.35245
821.42378 1.35546
819.37534 1.35876
817.32690 1.36125
815.27847 1.36254
813.23003 1.36359
811.18159 1.36567
809.13315 1.36924
807.08471 1.37390
805.03627 1.37768
802.98784 1.38009
800.93940 1.38345
798.89096 1.38798
796.84252 1.39173
794.79408 1.39468
792.74564 1.39806
790.69721 1.40210
788.64877 1.40614
786.60033 1.40974
784.55189 1.41353
782.50345 1.41819
780.45501 1.42349
778.40658 1.42863
776.35814 1.43234
774.30970 1.43495
772.26126 1.43738
770.21282 1.44066
768.16438 1.44636
766.11595 1.45312
764.06751 1.45819
762.01907 1.46220
759.97063 1.46760
757.92219 1.47369
755.87375 1.47885
753.82532 1.48393
751.77688 1.49201
749.72844 1.50413
747.68000 1.51758
745.63156 1.53291
743.58312 1.55153
741.53469 1.57393
739.48625 1.60599
737.43781 1.65574
735.38937 1.70888
733.34093 1.66452
731.29249 1.47166
729.24406 1.29339
727.19562 1.22011
725.14718 1.23024
723.09874 1.27048
721.05030 1.30806
719.00186 1.33623
716.95343 1.35657
714.90499 1.37265
712.85655 1.38534
710.80811 1.39472
708.75967 1.40284
706.71123 1.40996
704.66280 1.41647
702.61436 1.42318
700.56592 1.42991
698.51748 1.43749
696.46904 1.44580
694.42060 1.45139
692.37216 1.45276
690.32373 1.45502
688.27529 1.45965
686.22685 1.46196
684.17841 1.46405
682.12997 1.46984
680.08153 1.47475
678.03310 1.47523
675.98466 1.47617
673.93622 1.48111
671.88778 1.48605
669.83934 1.49125
667.79090 1.49870
665.74247 1.49765
663.69403 1.49513
661.64559 1.49701
659.59715 1.49827
657.54871 1.50062
655.50027 1.50814
653.45184 1.51317
651.40340 1.51609
649.35496 1.52430
647.30652 1.53187
645.25808 1.53464
643.20964 1.54097
641.16121 1.54876
639.11277 1.54953
637.06433 1.54844
635.01589 1.54975
632.96745 1.54880
630.91901 1.54168
628.87058 1.53421
626.82214 1.53584
624.77370 1.54335
622.72526 1.54854
620.67682 1.55234
618.62838 1.56282
616.57995 1.57772
614.53151 1.58553
612.48307 1.58673
610.43463 1.57860
608.38619 1.56799
606.33775 1.56941
604.28932 1.57715
602.24088 1.58318
600.19244 1.58704
598.14400 1.59541
