3996.50324 1.72271
3994.45480 1.72169
3992.40636 1.72138
3990.35792 1.71954
3988.30948 1.71764
3986.26104 1.71892
3984.21261 1.72195
3982.16417 1.72375
3980.11573 1.72294
3978.06729 1.72167
3976.01885 1.72271
3973.97041 1.72484
3971.92198 1.72656
3969.87354 1.72704
3967.82510 1.72588
3965.77666 1.72511
3963.72822 1.72539
3961.67978 1.72596
3959.63135 1.72672
3957.58291 1.72788
3955.53447 1.72906
3953.48603 1.72883
3951.43759 1.72886
3949.38915 1.73067
3947.34072 1.73148
3945.29228 1.73125
3943.24384 1.73187
3941.19540 1.73282
3939.14696 1.73337
3937.09852 1.73390
3935.05009 1.73492
3933.00165 1.73742
3930.95321 1.74046
3928.90477 1.74123
3926.85633 1.74148
3924.80789 1.74340
3922.75946 1.74507
3920.71102 1.74614
3918.66258 1.75047
3916.61414 1.75613
3914.56570 1.75656
3912.51726 1.75505
3910.46883 1.75654
3908.42039 1.75980
3906.37195 1.76285
3904.32351 1.76616
3902.27507 1.76927
3900.22663 1.77162
3898.17820 1.77176
3896.12976 1.77026
3894.08132 1.77173
3892.03288 1.77497
3889.98444 1.77188
3887.93600 1.76735
3885.88756 1.76788
3883.83913 1.77013
3881.79069 1.77157
3879.74225 1.77395
3877.69381 1.77560
3875.64537 1.77664
3873.59693 1.77719
3871.54850 1.77734
3869.50006 1.77733
3867.45162 1.77720
3865.40318 1.77920
3863.35474 1.77963
3861.30630 1.77594
3859.25787 1.77407
3857.20943 1.77618
3855.16099 1.78184
3853.11255 1.78569
3851.06411 1.78043
3849.01567 1.77543
3846.96724 1.77281
3844.91880 1.77178
3842.87036 1.77272
3840.82192 1.77550
3838.77348 1.77832
3836.72504 1.77931
3834.67661 1.77801
3832.62817 1.77634
3830.57973 1.77545
3828.53129 1.77543
3826.48285 1.77611
3824.43441 1.77731
3822.38598 1.78146
3820.33754 1.78997
3818.28910 1.79431
3816.24066 1.79228
3814.19222 1.78802
3812.14378 1.78733
3810.09535 1.79073
3808.04691 1.79516
3805.99847 1.79620
3803.95003 1.79714
3801.90159 1.79974
3799.85315 1.79661
3797.80472 1.79193
3795.75628 1.79175
3793.70784 1.79315
3791.65940 1.79136
3789.61096 1.78815
3787.56252 1.78868
3785.51409 1.79221
3783.46565 1.79462
3781.41721 1.79723
3779.36877 1.80182
3777.32033 1.80473
3775.27189 1.80450
3773.22346 1.80449
3771.17502 1.80718
3769.12658 1.81090
3767.07814 1.81183
3765.02970 1.81106
3762.98126 1.81169
3760.93283 1.81544
3758.88439 1.82089
3756.83595 1.82286
3754.78751 1.82450
3752.73907 1.83125
3750.69063 1.84011
3748.64219 1.84009
3746.59376 1.83667
3744.54532 1.83630
3742.49688 1.83727
3740.44844 1.83749
3738.40000 1.83893
3736.35156 1.84134
3734.30313 1.84057
3732.25469 1.83947
3730.20625 1.84152
3728.15781 1.84517
3726.10937 1.84938
3724.06093 1.85102
3722.01250 1.85028
3719.96406 1.85131
3717.91562 1.85420
3715.86718 1.85768
3713.81874 1.86177
3711.77030 1.86533
3709.72187 1.86791
3707.67343 1.87035
3705.62499 1.87337
3703.57655 1.87892
3701.52811 1.88357
3699.47967 1.88317
3697.43124 1.88282
3695.38280 1.88403
3693.33436 1.88554
3691.28592 1.89051
3689.23748 1.89629
3687.18904 1.89193
3685.14061 1.88515
3683.09217 1.88380
3681.04373 1.88987
3678.99529 1.89872
3676.94685 1.90476
3674.89841 1.90748
3672.84998 1.90950
3670.80154 1.91216
3668.75310 1.91288
3666.70466 1.91226
3664.65622 1.91187
3662.60778 1.91253
3660.55935 1.91500
3658.51091 1.91809
3656.46247 1.92266
3654.41403 1.92918
3652.36559 1.93558
3650.31715 1.94108
3648.26872 1.94320
3646.22028 1.94323
3644.17184 1.94298
3642.12340 1.94341
3640.07496 1.94507
3638.02652 1.94925
3635.97809 1.95634
3633.92965 1.96293
3631.88121 1.96637
3629.83277 1.96981
3627.78433 1.97922
3625.73589 1.98568
3623.68746 1.98716
3621.63902 1.98912
3619.59058 1.99583
3617.54214 2.00449
3615.49370 2.00832
3613.44526 2.01042
3611.39682 2.01362
3609.34839 2.01703
3607.29995 2.01966
3605.25151 2.02012
3603.20307 2.02137
3601.15463 2.02557
3599.10619 2.03021
3597.05776 2.03350
3595.00932 2.03675
3592.96088 2.04151
3590.91244 2.04722
3588.86400 2.05544
3586.81556 2.06461
3584.76713 2.06649
3582.71869 2.06693
3580.67025 2.07258
3578.62181 2.08046
3576.57337 2.08458
3574.52493 2.08752
3572.47650 2.09309
3570.42806 2.09857
3568.37962 2.10448
3566.33118 2.11417
3564.28274 2.12113
3562.23430 2.12521
3560.18587 2.12914
3558.13743 2.13255
3556.08899 2.13638
3554.04055 2.14150
3551.99211 2.14932
3549.94367 2.15883
3547.89524 2.16588
3545.84680 2.16798
3543.79836 2.16996
3541.74992 2.17738
3539.70148 2.18654
3537.65304 2.19276
3535.60461 2.19702
3533.55617 2.20167
3531.50773 2.20761
3529.45929 2.21536
3527.41085 2.22321
3525.36241 2.22842
3523.31398 2.23044
3521.26554 2.23317
3519.21710 2.23982
3517.16866 2.24744
3515.12022 2.25229
3513.07178 2.25650
3511.02335 2.26147
3508.97491 2.26450
3506.92647 2.26535
3504.87803 2.26609
3502.82959 2.26937
3500.78115 2.27512
3498.73272 2.27967
3496.68428 2.28190
3494.63584 2.28408
3492.58740 2.28873
3490.53896 2.29666
3488.49052 2.30408
3486.44209 2.30726
3484.39365 2.30925
3482.34521 2.31062
3480.29677 2.30967
3478.24833 2.31167
3476.19989 2.31868
3474.15146 2.32410
3472.10302 2.32737
3470.05458 2.33221
3468.00614 2.33578
3465.95770 2.33508
3463.90926 2.33448
3461.86082 2.34177
3459.81239 2.35668
3457.76395 2.36895
3455.71551 2.37495
3453.66707 2.38381
3451.61863 2.39844
3449.57019 2.41176
3447.52176 2.41893
3445.47332 2.42253
3443.42488 2.43263
3441.37644 2.44991
3439.32800 2.46005
3437.27956 2.46077
3435.23113 2.46475
3433.18269 2.46902
3431.13425 2.46439
3429.08581 2.45757
3427.03737 2.45155
3424.98893 2.43986
3422.94050 2.42107
3420.89206 2.39402
3418.84362 2.35939
3416.79518 2.32324
3414.74674 2.28945
3412.69830 2.26066
3410.64987 2.23839
3408.60143 2.22177
3406.55299 2.20837
3404.50455 2.19687
3402.45611 2.18937
3400.40767 2.18926
3398.35924 2.19729
3396.31080 2.20827
3394.26236 2.21716
3392.21392 2.22492
3390.16548 2.23431
3388.11704 2.24612
3386.06861 2.25707
3384.02017 2.26499
3381.97173 2.27158
3379.92329 2.27816
3377.87485 2.28450
3375.82641 2.29048
3373.77798 2.29712
3371.72954 2.30200
3369.68110 2.30224
3367.63266 2.30127
3365.58422 2.30475
3363.53578 2.31277
3361.48735 2.31968
3359.43891 2.32334
3357.39047 2.32689
3355.34203 2.33320
3353.29359 2.34025
3351.24515 2.34198
3349.19672 2.34106
3347.14828 2.34309
3345.09984 2.34317
3343.05140 2.33898
3341.00296 2.33761
3338.95452 2.34126
3336.90609 2.34117
3334.85765 2.33604
3332.80921 2.33318
3330.76077 2.32795
3328.71233 2.31467
3326.66389 2.29905
3324.61545 2.28729
3322.56702 2.27790
3320.51858 2.26592
3318.47014 2.25185
3316.42170 2.24034
3314.37326 2.23375
3312.32482 2.23008
3310.27639 2.22530
3308.22795 2.21940
3306.17951 2.21624
3304.13107 2.21433
3302.08263 2.21060
3300.03419 2.20733
3297.98576 2.20549
3295.93732 2.20453
3293.88888 2.20704
3291.84044 2.21306
3289.79200 2.21584
3287.74356 2.21042
3285.69513 2.19951
3283.64669 2.19250
3281.59825 2.19559
3279.54981 2.20137
3277.50137 2.20351
3275.45293 2.20419
3273.40450 2.20310
3271.35606 2.20058
3269.30762 2.19855
3267.25918 2.19459
3265.21074 2.18998
3263.16230 2.19176
3261.11387 2.19700
3259.06543 2.19627
3257.01699 2.19074
3254.96855 2.18816
3252.92011 2.19016
3250.87167 2.19275
3248.82324 2.19259
3246.77480 2.18891
3244.72636 2.18453
3242.67792 2.18183
3240.62948 2.18109
3238.58104 2.18410
3236.53261 2.18830
3234.48417 2.18725
3232.43573 2.18300
3230.38729 2.18125
3228.33885 2.17950
3226.29041 2.17567
3224.24198 2.17459
3222.19354 2.17574
3220.14510 2.17334
3218.09666 2.16937
3216.04822 2.16962
3213.99978 2.17393
3211.95135 2.17507
3209.90291 2.16910
3207.85447 2.16357
3205.80603 2.16187
3203.75759 2.16055
3201.70915 2.15987
3199.66072 2.15841
3197.61228 2.15546
3195.56384 2.15361
3193.51540 2.15132
3191.46696 2.14798
3189.41852 2.14453
3187.37008 2.13912
3185.32165 2.13541
3183.27321 2.13720
3181.22477 2.13942
3179.17633 2.13913
3177.12789 2.13789
3175.07945 2.13469
3173.03102 2.12983
3170.98258 2.12708
3168.93414 2.12674
3166.88570 2.12638
3164.83726 2.12553
3162.78882 2.12417
3160.74039 2.12113
3158.69195 2.11697
3156.64351 2.11601
3154.59507 2.11610
3152.54663 2.11164
3150.49819 2.10770
3148.44976 2.10812
3146.40132 2.10842
3144.35288 2.10702
3142.30444 2.10507
3140.25600 2.10347
3138.20756 2.10367
3136.15913 2.10387
3134.11069 2.10125
3132.06225 2.09631
3130.01381 2.09354
3127.96537 2.09512
3125.91693 2.09500
3123.86850 2.09157
3121.82006 2.09060
3119.77162 2.09229
3117.72318 2.09308
3115.67474 2.09155
3113.62630 2.08750
3111.57787 2.08338
3109.52943 2.08291
3107.48099 2.08360
3105.43255 2.08247
3103.38411 2.08138
3101.33567 2.07997
3099.28724 2.07874
3097.23880 2.07981
3095.19036 2.08009
3093.14192 2.07742
3091.09348 2.07517
3089.04504 2.07324
3086.99661 2.07039
3084.94817 2.06926
3082.89973 2.06968
3080.85129 2.06895
3078.80285 2.06699
3076.75441 2.06779
3074.70598 2.07184
3072.65754 2.07325
3070.60910 2.07168
3068.56066 2.07052
3066.51222 2.06946
3064.46378 2.06825
3062.41535 2.06735
3060.36691 2.06584
3058.31847 2.06258
3056.27003 2.05899
3054.22159 2.05670
3052.17315 2.05486
3050.12471 2.05358
3048.07628 2.05258
3046.02784 2.05021
3043.97940 2.04773
3041.93096 2.04629
3039.88252 2.04403
3037.83408 2.04052
3035.78565 2.03820
3033.73721 2.03814
3031.68877 2.03831
3029.64033 2.03686
3027.59189 2.03485
3025.54345 2.03438
3023.49502 2.03482
3021.44658 2.03446
3019.39814 2.03352
3017.34970 2.03245
3015.30126 2.03203
3013.25282 2.03251
3011.20439 2.03237
3009.15595 2.03215
3007.10751 2.03352
3005.05907 2.03442
3003.01063 2.03299
3000.96219 2.03270
2998.91376 2.03502
2996.86532 2.03531
2994.81688 2.03276
2992.76844 2.03120
2990.72000 2.03168
2988.67156 2.03279
2986.62313 2.03304
2984.57469 2.03324
2982.52625 2.03402
2980.47781 2.03445
2978.42937 2.03544
2976.38093 2.03699
2974.33250 2.03711
2972.28406 2.03630
2970.23562 2.03645
2968.18718 2.03731
2966.13874 2.03838
2964.09030 2.03934
2962.04187 2.03997
2959.99343 2.03990
2957.94499 2.03785
2955.89655 2.03550
2953.84811 2.03463
2951.79967 2.03382
2949.75124 2.03390
2947.70280 2.03607
2945.65436 2.03677
2943.60592 2.03523
2941.55748 2.03535
2939.50904 2.03743
2937.46061 2.04024
2935.41217 2.04213
2933.36373 2.03910
2931.31529 2.03460
2929.26685 2.03562
2927.21841 2.03972
2925.16998 2.04251
2923.12154 2.04426
2921.07310 2.04488
2919.02466 2.04380
2916.97622 2.04252
2914.92778 2.04303
2912.87934 2.04501
2910.83091 2.04575
2908.78247 2.04514
2906.73403 2.04484
2904.68559 2.04273
2902.63715 2.03871
2900.58871 2.03648
2898.54028 2.03605
2896.49184 2.03521
2894.44340 2.03472
2892.39496 2.03426
2890.34652 2.03107
2888.29808 2.02740
2886.24965 2.02674
2884.20121 2.02737
2882.15277 2.02756
2880.10433 2.02817
2878.05589 2.02890
2876.00745 2.02858
2873.95902 2.02763
2871.91058 2.02666
2869.86214 2.02636
2867.81370 2.02654
2865.76526 2.02673
2863.71682 2.02783
2861.66839 2.02927
2859.61995 2.03015
2857.57151 2.03095
2855.52307 2.03127
2853.47463 2.03097
2851.42619 2.03108
2849.37776 2.03139
2847.32932 2.03089
2845.28088 2.02961
2843.23244 2.02773
2841.18400 2.02590
2839.13556 2.02566
2837.08713 2.02699
2835.03869 2.02742
2832.99025 2.02666
2830.94181 2.02643
2828.89337 2.02626
2826.84493 2.02564
2824.79650 2.02381
2822.74806 2.02107
2820.69962 2.02064
2818.65118 2.02299
2816.60274 2.02605
2814.55430 2.02869
2812.50587 2.03045
2810.45743 2.03123
2808.40899 2.03166
2806.36055 2.03284
2804.31211 2.03425
2802.26367 2.03457
2800.21524 2.03385
2798.16680 2.03310
2796.11836 2.03211
2794.06992 2.02890
2792.02148 2.02483
2789.97304 2.02272
2787.92461 2.02087
2785.87617 2.01844
2783.82773 2.01757
2781.77929 2.01822
2779.73085 2.01835
2777.68241 2.01661
2775.63397 2.01402
2773.58554 2.01238
2771.53710 2.01143
2769.48866 2.01057
2767.44022 2.01068
2765.39178 2.01173
2763.34334 2.01300
2761.29491 2.01437
2759.24647 2.01462
2757.19803 2.01370
2755.14959 2.01246
2753.10115 2.01093
2751.05271 2.01023
2749.00428 2.01094
2746.95584 2.01137
2744.90740 2.01002
2742.85896 2.00903
2740.81052 2.01108
2738.76208 2.01345
2736.71365 2.01329
2734.66521 2.01246
2732.61677 2.01173
2730.56833 2.00970
2728.51989 2.00724
2726.47145 2.00646
2724.42302 2.00718
2722.37458 2.00847
2720.32614 2.00966
2718.27770 2.00955
2716.22926 2.00893
2714.18082 2.00972
2712.13239 2.01105
2710.08395 2.01059
2708.03551 2.01037
2705.98707 2.01258
2703.93863 2.01373
2701.89019 2.01264
2699.84176 2.01206
2697.79332 2.01253
2695.74488 2.01357
2693.69644 2.01462
2691.64800 2.01517
2689.59956 2.01569
2687.55113 2.01532
2685.50269 2.01412
2683.45425 2.01349
2681.40581 2.01389
2679.35737 2.01598
2677.30893 2.01804
2675.26050 2.01754
2673.21206 2.01554
2671.16362 2.01465
2669.11518 2.01545
2667.06674 2.01567
2665.01830 2.01418
2662.96987 2.01308
2660.92143 2.01310
2658.87299 2.01316
2656.82455 2.01366
2654.77611 2.01400
2652.72767 2.01320
2650.67924 2.01336
2648.63080 2.01557
2646.58236 2.01648
2644.53392 2.01589
2642.48548 2.01791
2640.43704 2.02107
2638.38860 2.02174
2636.34017 2.02134
2634.29173 2.02138
2632.24329 2.02171
2630.19485 2.02204
2628.14641 2.02244
2626.09797 2.02481
2624.04954 2.02785
2622.00110 2.02800
2619.95266 2.02733
2617.90422 2.02858
2615.85578 2.02982
2613.80734 2.03022
2611.75891 2.03164
2609.71047 2.03442
2607.66203 2.03846
2605.61359 2.04234
2603.56515 2.04301
2601.51671 2.04196
2599.46828 2.04229
2597.41984 2.04412
2595.37140 2.04665
2593.32296 2.04973
2591.27452 2.05355
2589.22608 2.05588
2587.17765 2.05686
2585.12921 2.05955
2583.08077 2.06241
2581.03233 2.06400
2578.98389 2.06543
2576.93545 2.06781
2574.88702 2.07083
2572.83858 2.07260
2570.79014 2.07331
2568.74170 2.07534
2566.69326 2.07964
2564.64482 2.08283
2562.59639 2.08301
2560.54795 2.08426
2558.49951 2.08841
2556.45107 2.09211
2554.40263 2.09386
2552.35419 2.09492
2550.30576 2.09545
2548.25732 2.09568
2546.20888 2.09621
2544.16044 2.09733
2542.11200 2.09889
2540.06356 2.09968
2538.01513 2.09950
2535.96669 2.09918
2533.91825 2.09781
2531.86981 2.09536
2529.82137 2.09456
2527.77293 2.09566
2525.72450 2.09507
2523.67606 2.09222
2521.62762 2.09133
2519.57918 2.09195
2517.53074 2.08949
2515.48230 2.08627
2513.43387 2.08679
2511.38543 2.08840
2509.33699 2.08705
2507.28855 2.08373
2505.24011 2.08112
2503.19167 2.08035
2501.14324 2.08053
2499.09480 2.08018
2497.04636 2.07960
2494.99792 2.08044
2492.94948 2.08199
2490.90104 2.08179
2488.85260 2.08105
2486.80417 2.08108
2484.75573 2.08057
2482.70729 2.07941
2480.65885 2.07872
2478.61041 2.08081
2476.56197 2.08408
2474.51354 2.08453
2472.46510 2.08413
2470.41666 2.08496
2468.36822 2.08634
2466.31978 2.08836
2464.27134 2.09116
2462.22291 2.09373
2460.17447 2.09421
2458.12603 2.09385
2456.07759 2.09610
2454.02915 2.10074
2451.98071 2.10301
2449.93228 2.10169
2447.88384 2.10092
2445.83540 2.10156
2443.78696 2.10368
2441.73852 2.10641
2439.69008 2.10710
2437.64165 2.10843
2435.59321 2.11076
2433.54477 2.11151
2431.49633 2.11222
2429.44789 2.11283
2427.39945 2.11126
2425.35102 2.10941
2423.30258 2.11074
2421.25414 2.11349
2419.20570 2.11492
2417.15726 2.11405
2415.10882 2.10892
2413.06039 2.10331
2411.01195 2.10355
2408.96351 2.10644
2406.91507 2.10597
2404.86663 2.10369
2402.81819 2.10208
2400.76976 2.10122
2398.72132 2.10123
2396.67288 2.10021
2394.62444 2.09649
2392.57600 2.09208
2390.52756 2.08857
2388.47913 2.08513
2386.43069 2.08169
2384.38225 2.07927
2382.33381 2.07908
2380.28537 2.08047
2378.23693 2.08154
2376.18850 2.08168
2374.14006 2.08017
2372.09162 2.07693
2370.04318 2.07361
2367.99474 2.07166
2365.94630 2.07016
2363.89787 2.06815
2361.84943 2.06406
2359.80099 2.05923
2357.75255 2.06006
2355.70411 2.06266
2353.65567 2.06131
2351.60723 2.06093
2349.55880 2.06067
2347.51036 2.05708
2345.46192 2.05248
2343.41348 2.05055
2341.36504 2.05313
2339.31660 2.05881
2337.26817 2.06418
2335.21973 2.06776
2333.17129 2.06720
2331.12285 2.06356
2329.07441 2.05992
2327.02597 2.05972
2324.97754 2.06587
2322.92910 2.07119
2320.88066 2.06995
2318.83222 2.06974
2316.78378 2.06978
2314.73534 2.06432
2312.68691 2.05999
2310.63847 2.06373
2308.59003 2.06984
2306.54159 2.07123
2304.49315 2.06990
2302.44471 2.06890
2300.39628 2.06946
2298.34784 2.07180
2296.29940 2.07487
2294.25096 2.07801
2292.20252 2.07902
2290.15408 2.07754
2288.10565 2.07623
2286.05721 2.07575
2284.00877 2.07571
2281.96033 2.07534
2279.91189 2.07417
2277.86345 2.07402
2275.81502 2.07545
2273.76658 2.07766
2271.71814 2.08052
2269.66970 2.08341
2267.62126 2.08515
2265.57282 2.08448
2263.52439 2.08220
2261.47595 2.08128
2259.42751 2.08320
2257.37907 2.08616
2255.33063 2.08885
2253.28219 2.09095
2251.23376 2.09213
2249.18532 2.09238
2247.13688 2.09239
2245.08844 2.09377
2243.04000 2.09506
2240.99156 2.09461
2238.94313 2.09454
2236.89469 2.09620
2234.84625 2.09832
2232.79781 2.09996
2230.74937 2.10187
2228.70093 2.10372
2226.65250 2.10400
2224.60406 2.10260
2222.55562 2.10079
2220.50718 2.10089
2218.45874 2.10317
2216.41030 2.10592
2214.36186 2.10892
2212.31343 2.11076
2210.26499 2.11009
2208.21655 2.10905
2206.16811 2.10995
2204.11967 2.11276
2202.07123 2.11537
2200.02280 2.11689
2197.97436 2.11930
2195.92592 2.12242
2193.87748 2.12324
2191.82904 2.12202
2189.78060 2.12250
2187.73217 2.12600
2185.68373 2.12967
2183.63529 2.13164
2181.58685 2.13235
2179.53841 2.13192
2177.48997 2.13161
2175.44154 2.13381
2173.39310 2.13838
2171.34466 2.14173
2169.29622 2.14310
2167.24778 2.14447
2165.19934 2.14570
2163.15091 2.14661
2161.10247 2.14818
2159.05403 2.14950
2157.00559 2.14854
2154.95715 2.14651
2152.90871 2.14502
2150.86028 2.14500
2148.81184 2.14619
2146.76340 2.14518
2144.71496 2.14271
2142.66652 2.14290
2140.61808 2.14565
2138.56965 2.14866
2136.52121 2.14981
2134.47277 2.14861
2132.42433 2.14709
2130.37589 2.14778
2128.32745 2.15068
2126.27902 2.15218
2124.23058 2.15215
2122.18214 2.15266
2120.13370 2.15310
2118.08526 2.15453
2116.03682 2.15681
2113.98839 2.15794
2111.93995 2.15893
2109.89151 2.16053
2107.84307 2.16140
2105.79463 2.16161
2103.74619 2.16276
2101.69776 2.16353
2099.64932 2.16272
2097.60088 2.16401
2095.55244 2.16777
2093.50400 2.17121
2091.45556 2.17428
2089.40713 2.17621
2087.35869 2.17851
2085.31025 2.18332
2083.26181 2.18818
2081.21337 2.19206
2079.16493 2.19612
2077.11649 2.19871
2075.06806 2.19793
2073.01962 2.19572
2070.97118 2.19336
2068.92274 2.18966
2066.87430 2.18467
2064.82586 2.17924
2062.77743 2.17559
2060.72899 2.17533
2058.68055 2.17637
2056.63211 2.17479
2054.58367 2.17049
2052.53523 2.16790
2050.48680 2.16885
2048.43836 2.17208
2046.38992 2.17395
2044.34148 2.17199
2042.29304 2.16974
2040.24460 2.16898
2038.19617 2.16914
2036.14773 2.17127
2034.09929 2.17327
2032.05085 2.17312
2030.00241 2.17308
2027.95397 2.17351
2025.90554 2.17178
2023.85710 2.16847
2021.80866 2.16798
2019.76022 2.17081
2017.71178 2.17278
2015.66334 2.17212
2013.61491 2.17092
2011.56647 2.17159
2009.51803 2.17522
2007.46959 2.18028
2005.42115 2.18369
2003.37271 2.18451
2001.32428 2.18468
1999.27584 2.18606
1997.22740 2.18849
1995.17896 2.19173
1993.13052 2.19589
1991.08208 2.19969
1989.03365 2.20147
1986.98521 2.20107
1984.93677 2.20105
1982.88833 2.20299
1980.83989 2.20484
1978.79145 2.20711
1976.74302 2.21117
1974.69458 2.21355
1972.64614 2.21310
1970.59770 2.21432
1968.54926 2.21742
1966.50082 2.21746
1964.45239 2.21688
1962.40395 2.21893
1960.35551 2.22025
1958.30707 2.22135
1956.25863 2.22349
1954.21019 2.22413
1952.16176 2.22350
1950.11332 2.22301
1948.06488 2.22476
1946.01644 2.23009
1943.96800 2.23469
1941.91956 2.23571
1939.87112 2.23605
1937.82269 2.23617
1935.77425 2.23442
1933.72581 2.23259
1931.67737 2.23306
1929.62893 2.23424
1927.58049 2.23584
1925.53206 2.23781
1923.48362 2.23737
1921.43518 2.23618
1919.38674 2.23770
1917.33830 2.24021
1915.28986 2.24135
1913.24143 2.24208
1911.19299 2.24252
1909.14455 2.24133
1907.09611 2.23897
1905.04767 2.23579
1902.99923 2.23282
1900.95080 2.23360
1898.90236 2.23819
1896.85392 2.23953
1894.80548 2.23478
1892.75704 2.23379
1890.70860 2.23946
1888.66017 2.24234
1886.61173 2.24121
1884.56329 2.24231
1882.51485 2.24430
1880.46641 2.24614
1878.41797 2.25040
1876.36954 2.25462
1874.32110 2.25638
1872.27266 2.25737
1870.22422 2.25873
1868.17578 2.26058
1866.12734 2.26218
1864.07891 2.26346
1862.03047 2.26478
1859.98203 2.26729
1857.93359 2.27215
1855.88515 2.27831
1853.83671 2.28299
1851.78828 2.28489
1849.73984 2.28787
1847.69140 2.29389
1845.64296 2.29970
1843.59452 2.30531
1841.54608 2.30985
1839.49765 2.31016
1837.44921 2.30795
1835.40077 2.30551
1833.35233 2.30328
1831.30389 2.30500
1829.25545 2.31099
1827.20702 2.31264
1825.15858 2.31078
1823.11014 2.31146
1821.06170 2.31594
1819.01326 2.32289
1816.96482 2.33064
1814.91639 2.33746
1812.86795 2.34414
1810.81951 2.35018
1808.77107 2.35186
1806.72263 2.34978
1804.67419 2.34929
1802.62575 2.35576
1800.57732 2.36480
1798.52888 2.36560
1796.48044 2.36126
1794.43200 2.35741
1792.38356 2.35351
1790.33512 2.34809
1788.28669 2.34287
1786.23825 2.34220
1784.18981 2.34880
1782.14137 2.35576
1780.09293 2.35627
1778.04449 2.35386
1775.99606 2.35513
1773.94762 2.36319
1771.89918 2.37222
1769.85074 2.36896
1767.80230 2.36148
1765.75386 2.36031
1763.70543 2.36312
1761.65699 2.36603
1759.60855 2.36735
1757.56011 2.36290
1755.51167 2.35658
1753.46323 2.35618
1751.41480 2.36079
1749.36636 2.36745
1747.31792 2.37138
1745.26948 2.37050
1743.22104 2.36835
1741.17260 2.36837
1739.12417 2.36949
1737.07573 2.37015
1735.02729 2.37426
1732.97885 2.38502
1730.93041 2.39122
1728.88197 2.39225
1726.83354 2.39240
1724.78510 2.39465
1722.73666 2.39876
1720.68822 2.40091
1718.63978 2.40446
1716.59134 2.41752
1714.54291 2.42653
1712.49447 2.42694
1710.44603 2.42621
1708.39759 2.42743
1706.34915 2.43306
1704.30071 2.43986
1702.25228 2.44559
1700.20384 2.46189
1698.15540 2.47899
1696.10696 2.47471
1694.05852 2.46521
1692.01008 2.46150
1689.96165 2.46566
1687.91321 2.48003
1685.86477 2.50116
1683.81633 2.51138
1681.76789 2.49785
1679.71945 2.49334
1677.67102 2.50053
1675.62258 2.51339
1673.57414 2.52377
1671.52570 2.53040
1669.47726 2.53391
1667.42882 2.53328
1665.38038 2.53672
1663.33195 2.54736
1661.28351 2.55871
1659.23507 2.56515
1657.18663 2.57193
1655.13819 2.57808
1653.08975 2.58533
1651.04132 2.59514
1648.99288 2.60212
1646.94444 2.61097
1644.89600 2.61627
1642.84756 2.61509
1640.79912 2.61741
1638.75069 2.62893
1636.70225 2.64432
1634.65381 2.65614
1632.60537 2.66433
1630.55693 2.67404
1628.50849 2.68697
1626.46006 2.69821
1624.41162 2.70365
1622.36318 2.70585
1620.31474 2.71103
1618.26630 2.72518
1616.21786 2.74783
1614.16943 2.75921
1612.12099 2.75994
1610.07255 2.75746
1608.02411 2.76073
1605.97567 2.77921
1603.92723 2.80871
1601.87880 2.82730
1599.83036 2.82887
1597.78192 2.83777
1595.73348 2.86116
1593.68504 2.87849
1591.63660 2.88885
1589.58817 2.90745
1587.53973 2.93316
1585.49129 2.96113
1583.44285 2.98457
1581.39441 3.00179
1579.34597 3.01370
1577.29754 3.04617
1575.24910 3.09070
1573.20066 3.08725
1571.15222 3.06770
1569.10378 3.04625
1567.05534 3.03572
1565.00691 3.03113
1562.95847 3.02506
1560.91003 3.00972
1558.86159 2.92480
1556.81315 2.83002
1554.76471 2.78096
1552.71628 2.71832
1550.66784 2.64083
1548.61940 2.56505
1546.57096 2.50742
1544.52252 2.45316
1542.47408 2.39112
1540.42565 2.29611
1538.37721 2.21240
1536.32877 2.17930
1534.28033 2.14471
1532.23189 2.09892
1530.18345 2.06865
1528.13501 2.04678
1526.08658 2.02493
1524.03814 2.00782
1521.98970 1.98843
1519.94126 1.96673
1517.89282 1.95029
1515.84438 1.93374
1513.79595 1.92120
1511.74751 1.91459
1509.69907 1.91093
1507.65063 1.90456
1505.60219 1.89295
1503.55375 1.88892
1501.50532 1.88913
1499.45688 1.89322
1497.40844 1.90314
1495.36000 1.91421
1493.31156 1.92285
1491.26312 1.93557
1489.21469 1.95795
1487.16625 1.98254
1485.11781 2.00712
1483.06937 2.03650
1481.02093 2.07168
1478.97249 2.10604
1476.92406 2.13857
1474.87562 2.17585
1472.82718 2.22025
1470.77874 2.25557
1468.73030 2.27828
1466.68186 2.30461
1464.63343 2.33773
1462.58499 2.36488
1460.53655 2.38580
1458.48811 2.41632
1456.43967 2.46255
1454.39123 2.48479
1452.34280 2.49902
1450.29436 2.51720
1448.24592 2.53406
1446.19748 2.53687
1444.14904 2.51145
1442.10060 2.45484
1440.05217 2.38019
1438.00373 2.27880
1435.95529 2.15045
1433.90685 2.06323
1431.85841 2.00604
1429.80997 1.94994
1427.76154 1.90237
1425.71310 1.86552
1423.66466 1.83077
1421.61622 1.80038
1419.56778 1.76816
1417.51934 1.73150
1415.47091 1.70668
1413.42247 1.68965
1411.37403 1.67484
1409.32559 1.66177
1407.27715 1.65201
1405.22871 1.64539
1403.18028 1.64175
1401.13184 1.64206
1399.08340 1.64673
1397.03496 1.65437
1394.98652 1.66525
1392.93808 1.67879
1390.88965 1.69354
1388.84121 1.71518
1386.79277 1.74617
1384.74433 1.77560
1382.69589 1.80165
1380.64745 1.82953
1378.59901 1.85676
1376.55058 1.88163
1374.50214 1.90760
1372.45370 1.93045
1370.40526 1.94567
1368.35682 1.95907
1366.30838 1.97152
1364.25995 1.98190
1362.21151 1.99148
1360.16307 1.99963
1358.11463 2.00610
1356.06619 2.01219
1354.01775 2.01858
1351.96932 2.02481
1349.92088 2.03125
1347.87244 2.03690
1345.82400 2.04102
1343.77556 2.04494
1341.72712 2.05088
1339.67869 2.05737
1337.63025 2.06105
1335.58181 2.06340
1333.53337 2.06563
1331.48493 2.06860
1329.43649 2.07227
1327.38806 2.07487
1325.33962 2.07652
1323.29118 2.07845
1321.24274 2.08153
1319.19430 2.08519
1317.14586 2.08644
1315.09743 2.08621
1313.04899 2.08657
1311.00055 2.08694
1308.95211 2.08693
1306.90367 2.08657
1304.85523 2.08682
1302.80680 2.08816
1300.75836 2.09029
1298.70992 2.09208
1296.66148 2.09284
1294.61304 2.09327
1292.56460 2.09421
1290.51617 2.09657
1288.46773 2.09968
1286.41929 2.10132
1284.37085 2.10223
1282.32241 2.10354
1280.27397 2.10444
1278.22554 2.10512
1276.17710 2.10547
1274.12866 2.10677
1272.08022 2.10972
1270.03178 2.11155
1267.98334 2.11253
1265.93491 2.11477
1263.88647 2.11737
1261.83803 2.11963
1259.78959 2.12188
1257.74115 2.12530
1255.69271 2.13101
1253.64428 2.13747
1251.59584 2.14269
1249.54740 2.14693
1247.49896 2.15125
1245.45052 2.15548
1243.40208 2.15910
1241.35364 2.16194
1239.30521 2.16390
1237.25677 2.16501
1235.20833 2.16815
1233.15989 2.17333
1231.11145 2.17533
1229.06301 2.17554
1227.01458 2.17763
1224.96614 2.17969
1222.91770 2.18170
1220.86926 2.18577
1218.82082 2.18952
1216.77238 2.19147
1214.72395 2.19238
1212.67551 2.19180
1210.62707 2.19285
1208.57863 2.19730
1206.53019 2.20197
1204.48175 2.20624
1202.43332 2.21047
1200.38488 2.21334
1198.33644 2.21586
1196.28800 2.21810
1194.23956 2.21990
1192.19112 2.22274
1190.14269 2.22635
1188.09425 2.22939
1186.04581 2.23032
1183.99737 2.23092
1181.94893 2.23403
1179.90049 2.23837
1177.85206 2.24194
1175.80362 2.24471
1173.75518 2.24771
1171.70674 2.25134
1169.65830 2.25545
1167.60986 2.25902
1165.56143 2.26086
1163.51299 2.26380
1161.46455 2.27005
1159.41611 2.27685
1157.36767 2.28294
1155.31923 2.28994
1153.27080 2.29827
1151.22236 2.30468
1149.17392 2.30719
1147.12548 2.30952
1145.07704 2.31413
1143.02860 2.32214
1140.98017 2.33284
1138.93173 2.34331
1136.88329 2.35286
1134.83485 2.36194
1132.78641 2.37171
1130.73797 2.38233
1128.68954 2.39409
1126.64110 2.40775
1124.59266 2.42099
1122.54422 2.43358
1120.49578 2.44672
1118.44734 2.45893
1116.39891 2.47261
1114.35047 2.48942
1112.30203 2.50592
1110.25359 2.52099
1108.20515 2.53803
1106.15671 2.55599
1104.10827 2.55959
1102.05984 2.53321
1100.01140 2.47290
1097.96296 2.39208
1095.91452 2.32809
1093.86608 2.31040
1091.81764 2.33444
1089.76921 2.37894
1087.72077 2.42983
1085.67233 2.47825
1083.62389 2.51947
1081.57545 2.55611
1079.52701 2.59584
1077.47858 2.63833
1075.43014 2.67413
1073.38170 2.70757
1071.33326 2.73895
1069.28482 2.74000
1067.23638 2.67858
1065.18795 2.55834
1063.13951 2.41344
1061.09107 2.27206
1059.04263 2.15034
1056.99419 2.05492
1054.94575 1.98328
1052.89732 1.93248
1050.84888 1.90254
1048.80044 1.89310
1046.75200 1.90304
1044.70356 1.92783
1042.65512 1.95902
1040.60669 1.99018
1038.55825 2.01876
1036.50981 2.04405
1034.46137 2.06550
1032.41293 2.08224
1030.36449 2.09635
1028.31606 2.11020
1026.26762 2.12154
1024.21918 2.13007
1022.17074 2.13862
1020.12230 2.14655
1018.07386 2.15310
1016.02543 2.15899
1013.97699 2.16542
1011.92855 2.17295
1009.88011 2.17932
1007.83167 2.18569
1005.78323 2.19595
1003.73480 2.20760
1001.68636 2.21541
999.63792 2.22061
997.58948 2.22689
995.54104 2.23541
993.49260 2.24611
991.44417 2.25823
989.39573 2.27013
987.34729 2.28021
985.29885 2.28874
983.25041 2.29713
981.20197 2.30520
979.15354 2.31372
977.10510 2.32456
975.05666 2.33640
973.00822 2.34821
970.95978 2.35899
968.91134 2.36739
966.86290 2.37485
964.81447 2.38132
962.76603 2.38699
960.71759 2.39413
958.66915 2.40520
956.62071 2.41737
954.57227 2.42283
952.52384 2.42521
950.47540 2.43427
948.42696 2.44706
946.37852 2.45635
944.33008 2.46116
942.28164 2.46478
940.23321 2.47365
938.18477 2.48515
936.13633 2.49337
934.08789 2.50492
932.03945 2.52034
929.99101 2.53385
927.94258 2.54821
925.89414 2.56033
923.84570 2.56534
921.79726 2.56804
919.74882 2.57180
917.70038 2.57678
915.65195 2.58107
913.60351 2.57440
911.55507 2.55377
909.50663 2.52923
907.45819 2.49780
905.40975 2.45258
903.36132 2.39937
901.31288 2.34619
899.26444 2.29391
897.21600 2.23665
895.16756 2.17635
893.11912 2.12428
891.07069 2.08350
889.02225 2.04873
886.97381 2.02191
884.92537 2.00735
882.87693 1.99919
880.82849 1.99152
878.78006 1.98791
876.73162 1.98974
874.68318 1.99126
872.63474 1.99178
870.58630 1.99486
868.53786 2.00031
866.48943 2.00863
864.44099 2.01939
862.39255 2.03128
860.34411 2.04596
858.29567 2.06005
856.24723 2.06964
854.19880 2.07918
852.15036 2.09238
850.10192 2.10835
848.05348 2.12233
846.00504 2.12716
843.95660 2.12532
841.90817 2.12585
839.85973 2.13227
837.81129 2.14109
835.76285 2.14451
833.71441 2.14068
831.66597 2.13362
829.61753 2.12465
827.56910 2.11456
825.52066 2.10355
823.47222 2.08897
821.42378 2.07621
819.37534 2.07986
817.32690 2.10377
815.27847 2.13893
813.23003 2.17665
811.18159 2.20910
809.13315 2.23367
807.08471 2.25244
805.03627 2.26492
802.98784 2.27606
800.93940 2.28496
798.89096 2.28662
796.84252 2.29142
794.79408 2.30292
792.74564 2.31063
790.69721 2.31410
788.64877 2.31851
786.60033 2.32206
784.55189 2.32291
782.50345 2.32589
780.45501 2.33185
778.40658 2.33515
776.35814 2.33906
774.30970 2.34871
772.26126 2.36717
770.21282 2.39002
768.16438 2.40457
766.11595 2.41388
764.06751 2.43218
762.01907 2.46698
759.97063 2.49841
757.92219 2.48884
755.87375 2.41674
753.82532 2.31062
751.77688 2.22925
749.72844 2.19279
747.68000 2.18751
745.63156 2.19825
743.58312 2.21656
741.53469 2.23292
739.48625 2.23895
737.43781 2.24076
735.38937 2.25174
733.34093 2.26615
731.29249 2.27278
729.24406 2.28216
727.19562 2.29635
725.14718 2.30543
723.09874 2.31491
721.05030 2.32896
719.00186 2.34026
716.95343 2.34299
714.90499 2.32970
712.85655 2.30865
710.80811 2.29601
708.75967 2.28911
706.71123 2.28945
704.66280 2.29945
702.61436 2.30925
700.56592 2.31329
698.51748 2.31291
696.46904 2.31427
694.42060 2.31672
692.37216 2.30910
690.32373 2.29794
688.27529 2.29985
686.22685 2.32091
684.17841 2.34640
682.12997 2.34234
680.08153 2.32360
678.03310 2.32549
675.98466 2.32811
673.93622 2.32172
671.88778 2.32397
669.83934 2.34003
667.79090 2.37224
665.74247 2.37369
663.69403 2.34978
661.64559 2.33622
659.59715 2.32990
657.54871 2.30415
655.50027 2.28549
653.45184 2.32169
651.40340 2.37439
649.35496 2.38031
647.30652 2.37874
645.25808 2.39276
643.20964 2.40157
641.16121 2.40718
639.11277 2.42036
637.06433 2.46459
635.01589 2.48912
632.96745 2.45347
630.91901 2.44680
628.87058 2.44276
626.82214 2.40384
624.77370 2.38563
622.72526 2.38017
620.67682 2.36695
618.62838 2.40078
616.57995 2.52009
614.53151 2.60328
612.48307 2.56358
610.43463 2.52761
608.38619 2.52450
606.33775 2.56897
604.28932 2.61639
602.24088 2.49128
600.19244 2.36116
598.14400 2.39278
