3996.50324 1.32490
3994.45480 1.32448
3992.40636 1.32377
3990.35792 1.32331
3988.30948 1.32283
3986.26104 1.32258
3984.21261 1.32276
3982.16417 1.32294
3980.11573 1.32275
3978.06729 1.32212
3976.01885 1.32186
3973.97041 1.32266
3971.92198 1.32378
3969.87354 1.32451
3967.82510 1.32474
3965.77666 1.32489
3963.72822 1.32570
3961.67978 1.32648
3959.63135 1.32652
3957.58291 1.32681
3955.53447 1.32722
3953.48603 1.32748
3951.43759 1.32828
3949.38915 1.32915
3947.34072 1.32936
3945.29228 1.32948
3943.24384 1.33023
3941.19540 1.33110
3939.14696 1.33168
3937.09852 1.33247
3935.05009 1.33386
3933.00165 1.33604
3930.95321 1.33801
3928.90477 1.33884
3926.85633 1.34017
3924.80789 1.34308
3922.75946 1.34549
3920.71102 1.34678
3918.66258 1.34854
3916.61414 1.34986
3914.56570 1.34975
3912.51726 1.35025
3910.46883 1.35234
3908.42039 1.35477
3906.37195 1.35727
3904.32351 1.36017
3902.27507 1.36236
3900.22663 1.36269
3898.17820 1.36177
3896.12976 1.36181
3894.08132 1.36328
3892.03288 1.36426
3889.98444 1.36315
3887.93600 1.36279
3885.88756 1.36517
3883.83913 1.36761
3881.79069 1.36799
3879.74225 1.36796
3877.69381 1.36787
3875.64537 1.36828
3873.59693 1.36928
3871.54850 1.37003
3869.50006 1.36945
3867.45162 1.36716
3865.40318 1.36573
3863.35474 1.36458
3861.30630 1.36158
3859.25787 1.35910
3857.20943 1.35860
3855.16099 1.36009
3853.11255 1.36482
3851.06411 1.36521
3849.01567 1.36105
3846.96724 1.35818
3844.91880 1.35872
3842.87036 1.36110
3840.82192 1.36292
3838.77348 1.36399
3836.72504 1.36363
3834.67661 1.36238
3832.62817 1.36136
3830.57973 1.36133
3828.53129 1.36240
3826.48285 1.36390
3824.43441 1.36547
3822.38598 1.36877
3820.33754 1.37314
3818.28910 1.37396
3816.24066 1.37379
3814.19222 1.37325
3812.14378 1.37238
3810.09535 1.37213
3808.04691 1.37310
3805.99847 1.37464
3803.95003 1.37587
3801.90159 1.37816
3799.85315 1.37944
3797.80472 1.37830
3795.75628 1.37651
3793.70784 1.37502
3791.65940 1.37411
3789.61096 1.37416
3787.56252 1.37566
3785.51409 1.37818
3783.46565 1.37976
3781.41721 1.38127
3779.36877 1.38487
3777.32033 1.38712
3775.27189 1.38709
3773.22346 1.38789
3771.17502 1.39073
3769.12658 1.39466
3767.07814 1.39803
3765.02970 1.40079
3762.98126 1.40309
3760.93283 1.40647
3758.88439 1.41112
3756.83595 1.41375
3754.78751 1.41551
3752.73907 1.42026
3750.69063 1.42886
3748.64219 1.43266
3746.59376 1.43256
3744.54532 1.43366
3742.49688 1.43545
3740.44844 1.43746
3738.40000 1.44101
3736.35156 1.44770
3734.30313 1.45440
3732.25469 1.45551
3730.20625 1.45494
3728.15781 1.45642
3726.10937 1.46133
3724.06093 1.46826
3722.01250 1.47438
3719.96406 1.47986
3717.91562 1.48616
3715.86718 1.49316
3713.81874 1.50143
3711.77030 1.51429
3709.72187 1.52940
3707.67343 1.54100
3705.62499 1.55281
3703.57655 1.56916
3701.52811 1.59075
3699.47967 1.60914
3697.43124 1.62109
3695.38280 1.62881
3693.33436 1.63135
3691.28592 1.62932
3689.23748 1.62205
3687.18904 1.61043
3685.14061 1.60100
3683.09217 1.59613
3681.04373 1.59682
3678.99529 1.60140
3676.94685 1.60872
3674.89841 1.61732
3672.84998 1.62056
3670.80154 1.62322
3668.75310 1.62855
3666.70466 1.63249
3664.65622 1.63624
3662.60778 1.64147
3660.55935 1.64827
3658.51091 1.65692
3656.46247 1.66838
3654.41403 1.67875
3652.36559 1.68518
3650.31715 1.69397
3648.26872 1.70627
3646.22028 1.71177
3644.17184 1.71553
3642.12340 1.72040
3640.07496 1.72581
3638.02652 1.73254
3635.97809 1.74203
3633.92965 1.75334
3631.88121 1.76317
3629.83277 1.77580
3627.78433 1.79593
3625.73589 1.80895
3623.68746 1.81917
3621.63902 1.83254
3619.59058 1.84647
3617.54214 1.85162
3615.49370 1.85263
3613.44526 1.85627
3611.39682 1.85872
3609.34839 1.86158
3607.29995 1.86772
3605.25151 1.87308
3603.20307 1.87894
3601.15463 1.88843
3599.10619 1.89744
3597.05776 1.90261
3595.00932 1.90663
3592.96088 1.91135
3590.91244 1.91608
3588.86400 1.92212
3586.81556 1.93012
3584.76713 1.93679
3582.71869 1.94171
3580.67025 1.94559
3578.62181 1.94971
3576.57337 1.95668
3574.52493 1.96686
3572.47650 1.97582
3570.42806 1.98181
3568.37962 1.98862
3566.33118 1.99895
3564.28274 2.00467
3562.23430 2.00522
3560.18587 2.00839
3558.13743 2.01681
3556.08899 2.02605
3554.04055 2.03365
3551.99211 2.03999
3549.94367 2.04426
3547.89524 2.04920
3545.84680 2.05736
3543.79836 2.06580
3541.74992 2.07088
3539.70148 2.07565
3537.65304 2.08464
3535.60461 2.09477
3533.55617 2.10224
3531.50773 2.10901
3529.45929 2.11452
3527.41085 2.11772
3525.36241 2.12058
3523.31398 2.12322
3521.26554 2.12615
3519.21710 2.12895
3517.16866 2.13036
3515.12022 2.13278
3513.07178 2.13923
3511.02335 2.14811
3508.97491 2.15591
3506.92647 2.16064
3504.87803 2.16195
3502.82959 2.16206
3500.78115 2.16217
3498.73272 2.16118
3496.68428 2.16148
3494.63584 2.16537
3492.58740 2.17200
3490.53896 2.17843
3488.49052 2.17971
3486.44209 2.17882
3484.39365 2.18016
3482.34521 2.18256
3480.29677 2.18747
3478.24833 2.19345
3476.19989 2.19706
3474.15146 2.20048
3472.10302 2.20565
3470.05458 2.20748
3468.00614 2.20407
3465.95770 2.20334
3463.90926 2.20851
3461.86082 2.21199
3459.81239 2.21240
3457.76395 2.21465
3455.71551 2.21948
3453.66707 2.22563
3451.61863 2.23022
3449.57019 2.23229
3447.52176 2.23346
3445.47332 2.23696
3443.42488 2.24341
3441.37644 2.24854
3439.32800 2.25098
3437.27956 2.25374
3435.23113 2.25851
3433.18269 2.26292
3431.13425 2.26408
3429.08581 2.26329
3427.03737 2.26557
3424.98893 2.27323
3422.94050 2.28038
3420.89206 2.28179
3418.84362 2.27648
3416.79518 2.26487
3414.74674 2.25314
3412.69830 2.24394
3410.64987 2.23575
3408.60143 2.22798
3406.55299 2.21906
3404.50455 2.21188
3402.45611 2.20988
3400.40767 2.20958
3398.35924 2.20998
3396.31080 2.21387
3394.26236 2.21634
3392.21392 2.21493
3390.16548 2.21488
3388.11704 2.21841
3386.06861 2.22365
3384.02017 2.22779
3381.97173 2.22980
3379.92329 2.23089
3377.87485 2.23263
3375.82641 2.23238
3373.77798 2.23028
3371.72954 2.23088
3369.68110 2.23224
3367.63266 2.23163
3365.58422 2.23093
3363.53578 2.22958
3361.48735 2.22709
3359.43891 2.22913
3357.39047 2.23738
3355.34203 2.24311
3353.29359 2.24215
3351.24515 2.23846
3349.19672 2.23516
3347.14828 2.23583
3345.09984 2.23924
3343.05140 2.24005
3341.00296 2.23826
3338.95452 2.23573
3336.90609 2.23339
3334.85765 2.23084
3332.80921 2.22661
3330.76077 2.22201
3328.71233 2.21707
3326.66389 2.21039
3324.61545 2.20334
3322.56702 2.19516
3320.51858 2.18622
3318.47014 2.18226
3316.42170 2.18406
3314.37326 2.18580
3312.32482 2.18335
3310.27639 2.17764
3308.22795 2.17291
3306.17951 2.16889
3304.13107 2.16335
3302.08263 2.15955
3300.03419 2.15880
3297.98576 2.15816
3295.93732 2.15626
3293.88888 2.15416
3291.84044 2.15250
3289.79200 2.14961
3287.74356 2.14568
3285.69513 2.14374
3283.64669 2.14475
3281.59825 2.14634
3279.54981 2.14554
3277.50137 2.14244
3275.45293 2.14047
3273.40450 2.14128
3271.35606 2.14189
3269.30762 2.14161
3267.25918 2.14386
3265.21074 2.14525
3263.16230 2.13933
3261.11387 2.13190
3259.06543 2.13127
3257.01699 2.13458
3254.96855 2.13473
3252.92011 2.13199
3250.87167 2.13133
3248.82324 2.13169
3246.77480 2.12952
3244.72636 2.12680
3242.67792 2.12698
3240.62948 2.12834
3238.58104 2.12664
3236.53261 2.12146
3234.48417 2.11677
3232.43573 2.11668
3230.38729 2.11989
3228.33885 2.12050
3226.29041 2.11594
3224.24198 2.11272
3222.19354 2.11570
3220.14510 2.11939
3218.09666 2.12040
3216.04822 2.11990
3213.99978 2.11662
3211.95135 2.11120
3209.90291 2.10572
3207.85447 2.10270
3205.80603 2.10368
3203.75759 2.10570
3201.70915 2.10675
3199.66072 2.10774
3197.61228 2.10592
3195.56384 2.10007
3193.51540 2.09706
3191.46696 2.09819
3189.41852 2.09710
3187.37008 2.09347
3185.32165 2.09176
3183.27321 2.09147
3181.22477 2.08895
3179.17633 2.08529
3177.12789 2.08321
3175.07945 2.08166
3173.03102 2.07999
3170.98258 2.08009
3168.93414 2.08158
3166.88570 2.08214
3164.83726 2.07996
3162.78882 2.07659
3160.74039 2.07598
3158.69195 2.07593
3156.64351 2.07376
3154.59507 2.07175
3152.54663 2.06940
3150.49819 2.06617
3148.44976 2.06431
3146.40132 2.06301
3144.35288 2.06081
3142.30444 2.05930
3140.25600 2.05838
3138.20756 2.05624
3136.15913 2.05437
3134.11069 2.05352
3132.06225 2.05024
3130.01381 2.04612
3127.96537 2.04729
3125.91693 2.05107
3123.86850 2.05021
3121.82006 2.04512
3119.77162 2.03988
3117.72318 2.03723
3115.67474 2.03810
3113.62630 2.04088
3111.57787 2.04253
3109.52943 2.04070
3107.48099 2.03739
3105.43255 2.03510
3103.38411 2.03409
3101.33567 2.03445
3099.28724 2.03472
3097.23880 2.03327
3095.19036 2.03046
3093.14192 2.02728
3091.09348 2.02404
3089.04504 2.02194
3086.99661 2.02159
3084.94817 2.02172
3082.89973 2.02183
3080.85129 2.02227
3078.80285 2.02304
3076.75441 2.02263
3074.70598 2.01964
3072.65754 2.01574
3070.60910 2.01309
3068.56066 2.01154
3066.51222 2.01091
3064.46378 2.01036
3062.41535 2.00725
3060.36691 2.00228
3058.31847 1.99913
3056.27003 1.99831
3054.22159 1.99702
3052.17315 1.99346
3050.12471 1.98826
3048.07628 1.98322
3046.02784 1.97956
3043.97940 1.97676
3041.93096 1.97379
3039.88252 1.97141
3037.83408 1.97030
3035.78565 1.96921
3033.73721 1.96573
3031.68877 1.96097
3029.64033 1.95916
3027.59189 1.95933
3025.54345 1.95837
3023.49502 1.95541
3021.44658 1.95156
3019.39814 1.94915
3017.34970 1.94768
3015.30126 1.94570
3013.25282 1.94310
3011.20439 1.94022
3009.15595 1.93817
3007.10751 1.93802
3005.05907 1.93916
3003.01063 1.93902
3000.96219 1.93669
2998.91376 1.93506
2996.86532 1.93577
2994.81688 1.93702
2992.76844 1.93653
2990.72000 1.93495
2988.67156 1.93505
2986.62313 1.93745
2984.57469 1.94052
2982.52625 1.94251
2980.47781 1.94395
2978.42937 1.94565
2976.38093 1.94633
2974.33250 1.94680
2972.28406 1.94839
2970.23562 1.95005
2968.18718 1.95253
2966.13874 1.95669
2964.09030 1.96038
2962.04187 1.96260
2959.99343 1.96381
2957.94499 1.96420
2955.89655 1.96377
2953.84811 1.96224
2951.79967 1.96089
2949.75124 1.96092
2947.70280 1.96096
2945.65436 1.96129
2943.60592 1.96306
2941.55748 1.96450
2939.50904 1.96621
2937.46061 1.96984
2935.41217 1.97346
2933.36373 1.97701
2931.31529 1.98256
2929.26685 1.98799
2927.21841 1.99162
2925.16998 1.99653
2923.12154 2.00220
2921.07310 2.00487
2919.02466 2.00337
2916.97622 1.99819
2914.92778 1.99125
2912.87934 1.98343
2910.83091 1.97448
2908.78247 1.96600
2906.73403 1.95865
2904.68559 1.95144
2902.63715 1.94467
2900.58871 1.93919
2898.54028 1.93490
2896.49184 1.93083
2894.44340 1.92680
2892.39496 1.92356
2890.34652 1.92128
2888.29808 1.91963
2886.24965 1.91764
2884.20121 1.91477
2882.15277 1.91275
2880.10433 1.91235
2878.05589 1.91138
2876.00745 1.91020
2873.95902 1.91057
2871.91058 1.91082
2869.86214 1.90855
2867.81370 1.90572
2865.76526 1.90586
2863.71682 1.90837
2861.66839 1.91156
2859.61995 1.91545
2857.57151 1.92074
2855.52307 1.92749
2853.47463 1.93443
2851.42619 1.93919
2849.37776 1.93768
2847.32932 1.92700
2845.28088 1.91043
2843.23244 1.89502
2841.18400 1.88426
2839.13556 1.87733
2837.08713 1.87250
2835.03869 1.86895
2832.99025 1.86587
2830.94181 1.86248
2828.89337 1.86019
2826.84493 1.85946
2824.79650 1.85854
2822.74806 1.85763
2820.69962 1.85667
2818.65118 1.85466
2816.60274 1.85316
2814.55430 1.85326
2812.50587 1.85354
2810.45743 1.85294
2808.40899 1.85155
2806.36055 1.85079
2804.31211 1.85172
2802.26367 1.85243
2800.21524 1.85074
2798.16680 1.84734
2796.11836 1.84425
2794.06992 1.84081
2792.02148 1.83504
2789.97304 1.82855
2787.92461 1.82404
2785.87617 1.82060
2783.82773 1.81607
2781.77929 1.81082
2779.73085 1.80619
2777.68241 1.80261
2775.63397 1.79967
2773.58554 1.79692
2771.53710 1.79464
2769.48866 1.79268
2767.44022 1.79079
2765.39178 1.78884
2763.34334 1.78654
2761.29491 1.78462
2759.24647 1.78348
2757.19803 1.78204
2755.14959 1.78033
2753.10115 1.77881
2751.05271 1.77735
2749.00428 1.77644
2746.95584 1.77665
2744.90740 1.77710
2742.85896 1.77626
2740.81052 1.77473
2738.76208 1.77376
2736.71365 1.77319
2734.66521 1.77208
2732.61677 1.76988
2730.56833 1.76743
2728.51989 1.76571
2726.47145 1.76490
2724.42302 1.76417
2722.37458 1.76231
2720.32614 1.76000
2718.27770 1.75873
2716.22926 1.75798
2714.18082 1.75672
2712.13239 1.75562
2710.08395 1.75538
2708.03551 1.75494
2705.98707 1.75387
2703.93863 1.75351
2701.89019 1.75352
2699.84176 1.75257
2697.79332 1.75100
2695.74488 1.74976
2693.69644 1.74908
2691.64800 1.74876
2689.59956 1.74877
2687.55113 1.74899
2685.50269 1.74931
2683.45425 1.74942
2681.40581 1.74808
2679.35737 1.74544
2677.30893 1.74312
2675.26050 1.74161
2673.21206 1.74073
2671.16362 1.73975
2669.11518 1.73802
2667.06674 1.73562
2665.01830 1.73336
2662.96987 1.73232
2660.92143 1.73189
2658.87299 1.73098
2656.82455 1.72987
2654.77611 1.72949
2652.72767 1.72990
2650.67924 1.72986
2648.63080 1.72899
2646.58236 1.72792
2644.53392 1.72753
2642.48548 1.72822
2640.43704 1.72935
2638.38860 1.73052
2636.34017 1.73139
2634.29173 1.73189
2632.24329 1.73281
2630.19485 1.73372
2628.14641 1.73401
2626.09797 1.73455
2624.04954 1.73557
2622.00110 1.73647
2619.95266 1.73703
2617.90422 1.73748
2615.85578 1.73821
2613.80734 1.73964
2611.75891 1.74138
2609.71047 1.74240
2607.66203 1.74301
2605.61359 1.74450
2603.56515 1.74651
2601.51671 1.74842
2599.46828 1.75032
2597.41984 1.75253
2595.37140 1.75545
2593.32296 1.75824
2591.27452 1.76067
2589.22608 1.76343
2587.17765 1.76587
2585.12921 1.76842
2583.08077 1.77239
2581.03233 1.77639
2578.98389 1.77878
2576.93545 1.78113
2574.88702 1.78488
2572.83858 1.78892
2570.79014 1.79208
2568.74170 1.79442
2566.69326 1.79688
2564.64482 1.80004
2562.59639 1.80350
2560.54795 1.80671
2558.49951 1.81007
2556.45107 1.81447
2554.40263 1.81959
2552.35419 1.82387
2550.30576 1.82649
2548.25732 1.82812
2546.20888 1.82982
2544.16044 1.83151
2542.11200 1.83221
2540.06356 1.83149
2538.01513 1.83020
2535.96669 1.82921
2533.91825 1.82826
2531.86981 1.82715
2529.82137 1.82538
2527.77293 1.82266
2525.72450 1.82045
2523.67606 1.81948
2521.62762 1.81894
2519.57918 1.81815
2517.53074 1.81547
2515.48230 1.81023
2513.43387 1.80452
2511.38543 1.79936
2509.33699 1.79402
2507.28855 1.78860
2505.24011 1.78349
2503.19167 1.77941
2501.14324 1.77668
2499.09480 1.77459
2497.04636 1.77292
2494.99792 1.77221
2492.94948 1.77272
2490.90104 1.77353
2488.85260 1.77373
2486.80417 1.77332
2484.75573 1.77259
2482.70729 1.77195
2480.65885 1.77161
2478.61041 1.77129
2476.56197 1.77077
2474.51354 1.77017
2472.46510 1.76944
2470.41666 1.76915
2468.36822 1.77025
2466.31978 1.77195
2464.27134 1.77341
2462.22291 1.77517
2460.17447 1.77737
2458.12603 1.77972
2456.07759 1.78143
2454.02915 1.78207
2451.98071 1.78342
2449.93228 1.78632
2447.88384 1.78983
2445.83540 1.79385
2443.78696 1.79810
2441.73852 1.80189
2439.69008 1.80528
2437.64165 1.80912
2435.59321 1.81371
2433.54477 1.81771
2431.49633 1.82036
2429.44789 1.82220
2427.39945 1.82358
2425.35102 1.82383
2423.30258 1.82184
2421.25414 1.81889
2419.20570 1.81796
2417.15726 1.81844
2415.10882 1.81694
2413.06039 1.81347
2411.01195 1.81073
2408.96351 1.80866
2406.91507 1.80596
2404.86663 1.80246
2402.81819 1.79813
2400.76976 1.79314
2398.72132 1.78768
2396.67288 1.78175
2394.62444 1.77537
2392.57600 1.76902
2390.52756 1.76241
2388.47913 1.75506
2386.43069 1.74761
2384.38225 1.74007
2382.33381 1.73289
2380.28537 1.72741
2378.23693 1.72314
2376.18850 1.71804
2374.14006 1.71287
2372.09162 1.70955
2370.04318 1.70507
2367.99474 1.69720
2365.94630 1.68938
2363.89787 1.68222
2361.84943 1.67612
2359.80099 1.67170
2357.75255 1.66529
2355.70411 1.65852
2353.65567 1.65509
2351.60723 1.65542
2349.55880 1.65536
2347.51036 1.65209
2345.46192 1.64786
2343.41348 1.64613
2341.36504 1.64617
2339.31660 1.64599
2337.26817 1.64619
2335.21973 1.64708
2333.17129 1.64643
2331.12285 1.64311
2329.07441 1.64056
2327.02597 1.64090
2324.97754 1.64212
2322.92910 1.64384
2320.88066 1.64608
2318.83222 1.64682
2316.78378 1.64590
2314.73534 1.64555
2312.68691 1.64634
2310.63847 1.64759
2308.59003 1.64905
2306.54159 1.65009
2304.49315 1.65077
2302.44471 1.65127
2300.39628 1.65100
2298.34784 1.64996
2296.29940 1.64935
2294.25096 1.65020
2292.20252 1.65238
2290.15408 1.65499
2288.10565 1.65717
2286.05721 1.65842
2284.00877 1.65873
2281.96033 1.65865
2279.91189 1.65897
2277.86345 1.66001
2275.81502 1.66123
2273.76658 1.66255
2271.71814 1.66456
2269.66970 1.66707
2267.62126 1.66866
2265.57282 1.66873
2263.52439 1.66896
2261.47595 1.66949
2259.42751 1.66936
2257.37907 1.67008
2255.33063 1.67207
2253.28219 1.67373
2251.23376 1.67500
2249.18532 1.67665
2247.13688 1.67826
2245.08844 1.67961
2243.04000 1.68103
2240.99156 1.68220
2238.94313 1.68328
2236.89469 1.68460
2234.84625 1.68550
2232.79781 1.68594
2230.74937 1.68664
2228.70093 1.68809
2226.65250 1.69009
2224.60406 1.69177
2222.55562 1.69304
2220.50718 1.69440
2218.45874 1.69573
2216.41030 1.69719
2214.36186 1.69882
2212.31343 1.70008
2210.26499 1.70086
2208.21655 1.70183
2206.16811 1.70330
2204.11967 1.70473
2202.07123 1.70597
2200.02280 1.70711
2197.97436 1.70833
2195.92592 1.71011
2193.87748 1.71173
2191.82904 1.71251
2189.78060 1.71351
2187.73217 1.71529
2185.68373 1.71711
2183.63529 1.71895
2181.58685 1.72199
2179.53841 1.72622
2177.48997 1.73002
2175.44154 1.73300
2173.39310 1.73605
2171.34466 1.73903
2169.29622 1.74169
2167.24778 1.74434
2165.19934 1.74686
2163.15091 1.74854
2161.10247 1.74896
2159.05403 1.74836
2157.00559 1.74690
2154.95715 1.74475
2152.90871 1.74159
2150.86028 1.73669
2148.81184 1.73228
2146.76340 1.73115
2144.71496 1.73198
2142.66652 1.73191
2140.61808 1.73038
2138.56965 1.72860
2136.52121 1.72732
2134.47277 1.72626
2132.42433 1.72567
2130.37589 1.72645
2128.32745 1.72794
2126.27902 1.72868
2124.23058 1.72889
2122.18214 1.72971
2120.13370 1.73069
2118.08526 1.73035
2116.03682 1.72920
2113.98839 1.72859
2111.93995 1.72857
2109.89151 1.72901
2107.84307 1.73093
2105.79463 1.73411
2103.74619 1.73702
2101.69776 1.74017
2099.64932 1.74438
2097.60088 1.74891
2095.55244 1.75405
2093.50400 1.76087
2091.45556 1.76892
2089.40713 1.77769
2087.35869 1.78786
2085.31025 1.79902
2083.26181 1.80873
2081.21337 1.81551
2079.16493 1.82010
2077.11649 1.82291
2075.06806 1.82220
2073.01962 1.81675
2070.97118 1.80829
2068.92274 1.79872
2066.87430 1.78970
2064.82586 1.78118
2062.77743 1.77158
2060.72899 1.76201
2058.68055 1.75390
2056.63211 1.74670
2054.58367 1.73999
2052.53523 1.73429
2050.48680 1.72913
2048.43836 1.72308
2046.38992 1.71643
2044.34148 1.71119
2042.29304 1.70759
2040.24460 1.70434
2038.19617 1.70144
2036.14773 1.69887
2034.09929 1.69607
2032.05085 1.69367
2030.00241 1.69261
2027.95397 1.69206
2025.90554 1.69137
2023.85710 1.69139
2021.80866 1.69226
2019.76022 1.69315
2017.71178 1.69382
2015.66334 1.69488
2013.61491 1.69620
2011.56647 1.69736
2009.51803 1.69945
2007.46959 1.70304
2005.42115 1.70650
2003.37271 1.70890
2001.32428 1.71077
1999.27584 1.71276
1997.22740 1.71521
1995.17896 1.71807
1993.13052 1.72107
1991.08208 1.72309
1989.03365 1.72400
1986.98521 1.72527
1984.93677 1.72721
1982.88833 1.72981
1980.83989 1.73319
1978.79145 1.73617
1976.74302 1.73786
1974.69458 1.73949
1972.64614 1.74220
1970.59770 1.74516
1968.54926 1.74748
1966.50082 1.74891
1964.45239 1.74975
1962.40395 1.75074
1960.35551 1.75204
1958.30707 1.75378
1956.25863 1.75557
1954.21019 1.75679
1952.16176 1.75802
1950.11332 1.75940
1948.06488 1.76059
1946.01644 1.76156
1943.96800 1.76257
1941.91956 1.76396
1939.87112 1.76580
1937.82269 1.76821
1935.77425 1.77035
1933.72581 1.77204
1931.67737 1.77350
1929.62893 1.77452
1927.58049 1.77579
1925.53206 1.77717
1923.48362 1.77793
1921.43518 1.77797
1919.38674 1.77723
1917.33830 1.77535
1915.28986 1.77306
1913.24143 1.77131
1911.19299 1.77072
1909.14455 1.77103
1907.09611 1.77077
1905.04767 1.77027
1902.99923 1.76997
1900.95080 1.77007
1898.90236 1.77095
1896.85392 1.77159
1894.80548 1.77125
1892.75704 1.77017
1890.70860 1.76866
1888.66017 1.76816
1886.61173 1.76904
1884.56329 1.76915
1882.51485 1.76824
1880.46641 1.76807
1878.41797 1.76918
1876.36954 1.77099
1874.32110 1.77333
1872.27266 1.77569
1870.22422 1.77757
1868.17578 1.77959
1866.12734 1.78249
1864.07891 1.78630
1862.03047 1.79085
1859.98203 1.79600
1857.93359 1.80246
1855.88515 1.80998
1853.83671 1.81742
1851.78828 1.82557
1849.73984 1.83535
1847.69140 1.84451
1845.64296 1.85194
1843.59452 1.86185
1841.54608 1.87119
1839.49765 1.87592
1837.44921 1.87819
1835.40077 1.87848
1833.35233 1.87765
1831.30389 1.87843
1829.25545 1.88074
1827.20702 1.88224
1825.15858 1.88502
1823.11014 1.89070
1821.06170 1.89790
1819.01326 1.90563
1816.96482 1.91435
1814.91639 1.92494
1812.86795 1.93634
1810.81951 1.94742
1808.77107 1.95644
1806.72263 1.96243
1804.67419 1.96553
1802.62575 1.96472
1800.57732 1.95863
1798.52888 1.95078
1796.48044 1.94542
1794.43200 1.94127
1792.38356 1.93515
1790.33512 1.92827
1788.28669 1.92520
1786.23825 1.92543
1784.18981 1.92637
1782.14137 1.92603
1780.09293 1.92535
1778.04449 1.92663
1775.99606 1.93076
1773.94762 1.93661
1771.89918 1.93977
1769.85074 1.93829
1767.80230 1.93624
1765.75386 1.93444
1763.70543 1.93277
1761.65699 1.93182
1759.60855 1.93196
1757.56011 1.93373
1755.51167 1.93691
1753.46323 1.93988
1751.41480 1.94477
1749.36636 1.95434
1747.31792 1.96320
1745.26948 1.96869
1743.22104 1.97469
1741.17260 1.98166
1739.12417 1.98579
1737.07573 1.98654
1735.02729 1.98910
1732.97885 1.99717
1730.93041 2.00237
1728.88197 2.00415
1726.83354 2.00675
1724.78510 2.01216
1722.73666 2.01902
1720.68822 2.02502
1718.63978 2.03248
1716.59134 2.04349
1714.54291 2.05169
1712.49447 2.05601
1710.44603 2.06003
1708.39759 2.06745
1706.34915 2.08145
1704.30071 2.09645
1702.25228 2.10722
1700.20384 2.12483
1698.15540 2.14287
1696.10696 2.15119
1694.05852 2.16158
1692.01008 2.17295
1689.96165 2.18584
1687.91321 2.19789
1685.86477 2.20761
1683.81633 2.22155
1681.76789 2.22944
1679.71945 2.23127
1677.67102 2.23299
1675.62258 2.23309
1673.57414 2.23260
1671.52570 2.23433
1669.47726 2.23617
1667.42882 2.23510
1665.38038 2.23124
1663.33195 2.22500
1661.28351 2.21845
1659.23507 2.21321
1657.18663 2.20716
1655.13819 2.19834
1653.08975 2.18034
1651.04132 2.16887
1648.99288 2.16701
1646.94444 2.16255
1644.89600 2.15761
1642.84756 2.15870
1640.79912 2.16225
1638.75069 2.16433
1636.70225 2.16772
1634.65381 2.17407
1632.60537 2.17337
1630.55693 2.17015
1628.50849 2.16920
1626.46006 2.17211
1624.41162 2.17777
1622.36318 2.18217
1620.31474 2.18369
1618.26630 2.18636
1616.21786 2.18863
1614.16943 2.18774
1612.12099 2.18919
1610.07255 2.19457
1608.02411 2.19988
1605.97567 2.20108
1603.92723 2.20143
1601.87880 2.20444
1599.83036 2.20901
1597.78192 2.21271
1595.73348 2.21563
1593.68504 2.21799
1591.63660 2.22036
1589.58817 2.22538
1587.53973 2.23252
1585.49129 2.23942
1583.44285 2.24536
1581.39441 2.25010
1579.34597 2.25416
1577.29754 2.26041
1575.24910 2.26351
1573.20066 2.26135
1571.15222 2.26232
1569.10378 2.26510
1567.05534 2.26412
1565.00691 2.26005
1562.95847 2.25471
1560.91003 2.24843
1558.86159 2.24522
1556.81315 2.23969
1554.76471 2.21847
1552.71628 2.19101
1550.66784 2.16514
1548.61940 2.14027
1546.57096 2.11872
1544.52252 2.09941
1542.47408 2.08042
1540.42565 2.05156
1538.37721 2.01894
1536.32877 2.00355
1534.28033 1.99356
1532.23189 1.98221
1530.18345 1.97121
1528.13501 1.96069
1526.08658 1.95100
1524.03814 1.94551
1521.98970 1.94115
1519.94126 1.93369
1517.89282 1.92698
1515.84438 1.92177
1513.79595 1.91770
1511.74751 1.91667
1509.69907 1.92010
1507.65063 1.92605
1505.60219 1.92276
1503.55375 1.91896
1501.50532 1.92021
1499.45688 1.92509
1497.40844 1.93318
1495.36000 1.94132
1493.31156 1.94732
1491.26312 1.95615
1489.21469 1.97075
1487.16625 1.98252
1485.11781 1.99078
1483.06937 2.00212
1481.02093 2.01865
1478.97249 2.03513
1476.92406 2.05001
1474.87562 2.06702
1472.82718 2.08723
1470.77874 2.10227
1468.73030 2.10962
1466.68186 2.11657
1464.63343 2.12641
1462.58499 2.13564
1460.53655 2.14355
1458.48811 2.15689
1456.43967 2.17549
1454.39123 2.18227
1452.34280 2.18544
1450.29436 2.18802
1448.24592 2.18848
1446.19748 2.18947
1444.14904 2.18935
1442.10060 2.18271
1440.05217 2.17042
1438.00373 2.15029
1435.95529 2.11419
1433.90685 2.07987
1431.85841 2.05106
1429.80997 2.01442
1427.76154 1.97470
1425.71310 1.93745
1423.66466 1.89833
1421.61622 1.86281
1419.56778 1.82698
1417.51934 1.78827
1415.47091 1.76077
1413.42247 1.74043
1411.37403 1.72235
1409.32559 1.70647
1407.27715 1.69390
1405.22871 1.68309
1403.18028 1.67424
1401.13184 1.66859
1399.08340 1.66534
1397.03496 1.66474
1394.98652 1.66633
1392.93808 1.66795
1390.88965 1.67055
1388.84121 1.67753
1386.79277 1.68966
1384.74433 1.70265
1382.69589 1.71686
1380.64745 1.73561
1378.59901 1.75663
1376.55058 1.77757
1374.50214 1.80010
1372.45370 1.82109
1370.40526 1.83776
1368.35682 1.85345
1366.30838 1.86667
1364.25995 1.87791
1362.21151 1.88962
1360.16307 1.89781
1358.11463 1.90155
1356.06619 1.90369
1354.01775 1.90682
1351.96932 1.91171
1349.92088 1.91731
1347.87244 1.92273
1345.82400 1.92828
1343.77556 1.93289
1341.72712 1.93562
1339.67869 1.93771
1337.63025 1.93871
1335.58181 1.93737
1333.53337 1.93598
1331.48493 1.93664
1329.43649 1.93916
1327.38806 1.94325
1325.33962 1.94758
1323.29118 1.95009
1321.24274 1.95137
1319.19430 1.95328
1317.14586 1.95382
1315.09743 1.95181
1313.04899 1.94958
1311.00055 1.94760
1308.95211 1.94597
1306.90367 1.94526
1304.85523 1.94435
1302.80680 1.94257
1300.75836 1.94096
1298.70992 1.93991
1296.66148 1.93913
1294.61304 1.93820
1292.56460 1.93697
1290.51617 1.93563
1288.46773 1.93389
1286.41929 1.93172
1284.37085 1.93037
1282.32241 1.93139
1280.27397 1.93428
1278.22554 1.93726
1276.17710 1.93946
1274.12866 1.93964
1272.08022 1.93773
1270.03178 1.93532
1267.98334 1.93239
1265.93491 1.92995
1263.88647 1.92859
1261.83803 1.92726
1259.78959 1.92695
1257.74115 1.92809
1255.69271 1.92988
1253.64428 1.93290
1251.59584 1.93728
1249.54740 1.94171
1247.49896 1.94541
1245.45052 1.94918
1243.40208 1.95322
1241.35364 1.95675
1239.30521 1.95997
1237.25677 1.96265
1235.20833 1.96379
1233.15989 1.96417
1231.11145 1.96440
1229.06301 1.96318
1227.01458 1.96095
1224.96614 1.95919
1222.91770 1.95773
1220.86926 1.95666
1218.82082 1.95600
1216.77238 1.95624
1214.72395 1.95884
1212.67551 1.96294
1210.62707 1.96720
1208.57863 1.97255
1206.53019 1.97981
1204.48175 1.98786
1202.43332 1.99557
1200.38488 2.00339
1198.33644 2.01143
1196.28800 2.01880
1194.23956 2.02549
1192.19112 2.03229
1190.14269 2.04004
1188.09425 2.04791
1186.04581 2.05499
1183.99737 2.06230
1181.94893 2.07042
1179.90049 2.07863
1177.85206 2.08474
1175.80362 2.08841
1173.75518 2.09166
1171.70674 2.09621
1169.65830 2.10241
1167.60986 2.10884
1165.56143 2.11424
1163.51299 2.11872
1161.46455 2.12372
1159.41611 2.12838
1157.36767 2.12950
1155.31923 2.12983
1153.27080 2.13499
1151.22236 2.14351
1149.17392 2.15005
1147.12548 2.15414
1145.07704 2.15908
1143.02860 2.16461
1140.98017 2.16895
1138.93173 2.17321
1136.88329 2.17746
1134.83485 2.18052
1132.78641 2.18249
1130.73797 2.18408
1128.68954 2.18534
1126.64110 2.18701
1124.59266 2.18987
1122.54422 2.19230
1120.49578 2.19403
1118.44734 2.19615
1116.39891 2.19880
1114.35047 2.20383
1112.30203 2.21281
1110.25359 2.22188
1108.20515 2.22796
1106.15671 2.23247
1104.10827 2.23230
1102.05984 2.22127
1100.01140 2.19596
1097.96296 2.16048
1095.91452 2.13093
1093.86608 2.12075
1091.81764 2.12721
1089.76921 2.14015
1087.72077 2.15161
1085.67233 2.15846
1083.62389 2.16465
1081.57545 2.17439
1079.52701 2.18575
1077.47858 2.19599
1075.43014 2.20455
1073.38170 2.21027
1071.33326 2.21097
1069.28482 2.20159
1067.23638 2.17797
1065.18795 2.14293
1063.13951 2.10234
1061.09107 2.06005
1059.04263 2.01989
1056.99419 1.98697
1054.94575 1.96227
1052.89732 1.94218
1050.84888 1.92588
1048.80044 1.91689
1046.75200 1.91693
1044.70356 1.92301
1042.65512 1.93249
1040.60669 1.94467
1038.55825 1.95684
1036.50981 1.96774
1034.46137 1.97921
1032.41293 1.99142
1030.36449 2.00205
1028.31606 2.01038
1026.26762 2.01881
1024.21918 2.02606
1022.17074 2.03062
1020.12230 2.03402
1018.07386 2.03578
1016.02543 2.03813
1013.97699 2.04439
1011.92855 2.05187
1009.88011 2.05690
1007.83167 2.05993
1005.78323 2.06251
1003.73480 2.06577
1001.68636 2.06930
999.63792 2.07180
997.58948 2.07355
995.54104 2.07500
993.49260 2.07773
991.44417 2.08266
989.39573 2.08793
987.34729 2.09180
985.29885 2.09318
983.25041 2.09259
981.20197 2.09438
979.15354 2.10040
977.10510 2.10682
975.05666 2.11144
973.00822 2.11556
970.95978 2.12070
968.91134 2.12601
966.86290 2.13079
964.81447 2.13671
962.76603 2.14357
960.71759 2.15097
958.66915 2.15872
956.62071 2.16638
954.57227 2.17715
952.52384 2.19103
950.47540 2.20231
948.42696 2.20889
946.37852 2.21451
944.33008 2.22275
942.28164 2.23361
940.23321 2.24436
938.18477 2.25146
936.13633 2.25433
934.08789 2.25665
932.03945 2.26217
929.99101 2.26911
927.94258 2.27336
925.89414 2.27746
923.84570 2.28372
921.79726 2.28758
919.74882 2.28835
917.70038 2.28867
915.65195 2.28867
913.60351 2.28724
911.55507 2.27970
909.50663 2.26268
907.45819 2.24045
905.40975 2.21903
903.36132 2.19720
901.31288 2.16978
899.26444 2.13591
897.21600 2.09902
895.16756 2.06400
893.11912 2.03419
891.07069 2.00923
889.02225 1.98851
886.97381 1.97333
884.92537 1.96339
882.87693 1.95795
880.82849 1.95657
878.78006 1.95863
876.73162 1.96177
874.68318 1.96460
872.63474 1.97041
870.58630 1.97715
868.53786 1.98217
866.48943 1.99112
864.44099 2.00516
862.39255 2.01725
860.34411 2.02488
858.29567 2.03099
856.24723 2.03493
854.19880 2.03729
852.15036 2.04198
850.10192 2.04770
848.05348 2.04940
846.00504 2.04742
843.95660 2.04331
841.90817 2.03508
839.85973 2.02224
837.81129 2.00596
835.76285 1.98533
833.71441 1.95905
831.66597 1.92782
829.61753 1.89120
827.56910 1.85107
825.52066 1.81115
823.47222 1.77524
821.42378 1.75179
819.37534 1.75546
817.32690 1.79684
815.27847 1.86418
813.23003 1.93100
811.18159 1.98871
809.13315 2.03902
807.08471 2.07257
805.03627 2.08790
802.98784 2.09657
800.93940 2.10650
798.89096 2.11929
796.84252 2.12944
794.79408 2.13301
792.74564 2.13672
790.69721 2.14229
788.64877 2.14276
786.60033 2.14088
784.55189 2.14219
782.50345 2.13890
780.45501 2.12484
778.40658 2.11080
776.35814 2.11016
774.30970 2.11906
772.26126 2.12834
770.21282 2.13961
768.16438 2.15485
766.11595 2.17765
764.06751 2.20226
762.01907 2.21544
759.97063 2.22496
757.92219 2.22268
755.87375 2.18555
753.82532 2.12583
751.77688 2.07164
749.72844 2.04394
747.68000 2.04577
745.63156 2.05916
743.58312 2.06813
741.53469 2.07377
739.48625 2.07696
737.43781 2.07409
735.38937 2.07031
733.34093 2.07023
731.29249 2.07048
729.24406 2.07367
727.19562 2.08015
725.14718 2.08063
723.09874 2.07648
721.05030 2.07621
719.00186 2.08702
716.95343 2.10555
714.90499 2.10891
712.85655 2.09020
710.80811 2.07240
708.75967 2.06576
706.71123 2.05977
704.66280 2.05564
702.61436 2.05727
700.56592 2.05647
698.51748 2.05247
696.46904 2.04624
694.42060 2.03786
692.37216 2.03061
690.32373 2.02709
688.27529 2.02860
686.22685 2.03179
684.17841 2.03303
682.12997 2.03555
680.08153 2.04210
678.03310 2.04465
675.98466 2.04695
673.93622 2.06403
671.88778 2.08923
669.83934 2.10158
667.79090 2.09086
665.74247 2.08822
663.69403 2.10765
661.64559 2.13255
659.59715 2.13319
657.54871 2.10706
655.50027 2.07728
653.45184 2.06028
651.40340 2.06541
649.35496 2.09104
647.30652 2.11430
645.25808 2.11803
643.20964 2.11855
641.16121 2.12403
639.11277 2.13477
637.06433 2.13928
635.01589 2.12413
632.96745 2.10610
630.91901 2.09328
628.87058 2.09543
626.82214 2.12263
624.77370 2.14371
622.72526 2.13986
620.67682 2.13017
618.62838 2.13171
616.57995 2.14181
614.53151 2.09915
612.48307 2.02701
610.43463 1.99457
608.38619 1.99528
606.33775 2.02015
604.28932 2.07962
602.24088 2.13549
600.19244 2.12605
598.14400 2.10663
