3996.50324 1.23923
3994.45480 1.23947
3992.40636 1.23935
3990.35792 1.23895
3988.30948 1.23891
3986.26104 1.23902
3984.21261 1.23900
3982.16417 1.23935
3980.11573 1.23995
3978.06729 1.24020
3976.01885 1.24024
3973.97041 1.24022
3971.92198 1.24017
3969.87354 1.24039
3967.82510 1.24051
3965.77666 1.24021
3963.72822 1.24051
3961.67978 1.24158
3959.63135 1.24222
3957.58291 1.24254
3955.53447 1.24306
3953.48603 1.24341
3951.43759 1.24351
3949.38915 1.24407
3947.34072 1.24496
3945.29228 1.24571
3943.24384 1.24752
3941.19540 1.24919
3939.14696 1.24884
3937.09852 1.24840
3935.05009 1.24909
3933.00165 1.25088
3930.95321 1.25302
3928.90477 1.25388
3926.85633 1.25456
3924.80789 1.25632
3922.75946 1.25747
3920.71102 1.25792
3918.66258 1.25977
3916.61414 1.26256
3914.56570 1.26447
3912.51726 1.26530
3910.46883 1.26569
3908.42039 1.26581
3906.37195 1.26608
3904.32351 1.26759
3902.27507 1.27033
3900.22663 1.27286
3898.17820 1.27360
3896.12976 1.27233
3894.08132 1.27129
3892.03288 1.27303
3889.98444 1.27478
3887.93600 1.27363
3885.88756 1.27376
3883.83913 1.27553
3881.79069 1.27614
3879.74225 1.27728
3877.69381 1.27674
3875.64537 1.27505
3873.59693 1.27520
3871.54850 1.27641
3869.50006 1.27735
3867.45162 1.27669
3865.40318 1.27565
3863.35474 1.27552
3861.30630 1.27387
3859.25787 1.27134
3857.20943 1.26976
3855.16099 1.27027
3853.11255 1.27557
3851.06411 1.27743
3849.01567 1.27422
3846.96724 1.27053
3844.91880 1.26802
3842.87036 1.26776
3840.82192 1.26929
3838.77348 1.27242
3836.72504 1.27438
3834.67661 1.27298
3832.62817 1.27214
3830.57973 1.27317
3828.53129 1.27405
3826.48285 1.27458
3824.43441 1.27462
3822.38598 1.27587
3820.33754 1.27992
3818.28910 1.28094
3816.24066 1.28166
3814.19222 1.28270
3812.14378 1.28158
3810.09535 1.28061
3808.04691 1.28159
3805.99847 1.28382
3803.95003 1.28460
3801.90159 1.28653
3799.85315 1.28920
3797.80472 1.28943
3795.75628 1.28921
3793.70784 1.28812
3791.65940 1.28693
3789.61096 1.28688
3787.56252 1.28746
3785.51409 1.28932
3783.46565 1.29160
3781.41721 1.29293
3779.36877 1.29513
3777.32033 1.29744
3775.27189 1.29837
3773.22346 1.29927
3771.17502 1.30188
3769.12658 1.30582
3767.07814 1.30846
3765.02970 1.31058
3762.98126 1.31226
3760.93283 1.31440
3758.88439 1.31940
3756.83595 1.32321
3754.78751 1.32406
3752.73907 1.32614
3750.69063 1.33329
3748.64219 1.33824
3746.59376 1.33931
3744.54532 1.34417
3742.49688 1.34861
3740.44844 1.34867
3738.40000 1.34903
3736.35156 1.35374
3734.30313 1.36152
3732.25469 1.36573
3730.20625 1.36759
3728.15781 1.37078
3726.10937 1.37752
3724.06093 1.38651
3722.01250 1.39603
3719.96406 1.40649
3717.91562 1.41774
3715.86718 1.42875
3713.81874 1.44084
3711.77030 1.46061
3709.72187 1.48317
3707.67343 1.49705
3705.62499 1.50828
3703.57655 1.52312
3701.52811 1.54455
3699.47967 1.56487
3697.43124 1.57740
3695.38280 1.58278
3693.33436 1.58278
3691.28592 1.58005
3689.23748 1.57192
3687.18904 1.56022
3685.14061 1.55332
3683.09217 1.55069
3681.04373 1.55121
3678.99529 1.55345
3676.94685 1.55854
3674.89841 1.56756
3672.84998 1.57124
3670.80154 1.57526
3668.75310 1.58662
3666.70466 1.59451
3664.65622 1.59803
3662.60778 1.60175
3660.55935 1.60688
3658.51091 1.61436
3656.46247 1.62568
3654.41403 1.63472
3652.36559 1.63814
3650.31715 1.64340
3648.26872 1.65590
3646.22028 1.66542
3644.17184 1.67013
3642.12340 1.67528
3640.07496 1.68367
3638.02652 1.69365
3635.97809 1.70263
3633.92965 1.71110
3631.88121 1.71974
3629.83277 1.73420
3627.78433 1.76008
3625.73589 1.77794
3623.68746 1.79153
3621.63902 1.80840
3619.59058 1.82552
3617.54214 1.83003
3615.49370 1.82460
3613.44526 1.82080
3611.39682 1.82097
3609.34839 1.82588
3607.29995 1.83380
3605.25151 1.83829
3603.20307 1.84135
3601.15463 1.84897
3599.10619 1.85953
3597.05776 1.86754
3595.00932 1.87431
3592.96088 1.88182
3590.91244 1.88745
3588.86400 1.89233
3586.81556 1.90145
3584.76713 1.91103
3582.71869 1.91773
3580.67025 1.92541
3578.62181 1.93536
3576.57337 1.94672
3574.52493 1.95817
3572.47650 1.96584
3570.42806 1.96977
3568.37962 1.97640
3566.33118 1.99454
3564.28274 2.01257
3562.23430 2.02099
3560.18587 2.02792
3558.13743 2.03720
3556.08899 2.04467
3554.04055 2.05101
3551.99211 2.06196
3549.94367 2.07375
3547.89524 2.08084
3545.84680 2.08652
3543.79836 2.09485
3541.74992 2.10538
3539.70148 2.11740
3537.65304 2.12743
3535.60461 2.13466
3533.55617 2.14337
3531.50773 2.15391
3529.45929 2.16386
3527.41085 2.17248
3525.36241 2.17826
3523.31398 2.18417
3521.26554 2.19514
3519.21710 2.20459
3517.16866 2.21385
3515.12022 2.22549
3513.07178 2.23215
3511.02335 2.23366
3508.97491 2.23583
3506.92647 2.24049
3504.87803 2.24103
3502.82959 2.23692
3500.78115 2.24083
3498.73272 2.25475
3496.68428 2.26941
3494.63584 2.27892
3492.58740 2.28239
3490.53896 2.28389
3488.49052 2.28759
3486.44209 2.29269
3484.39365 2.29517
3482.34521 2.29737
3480.29677 2.30397
3478.24833 2.31204
3476.19989 2.32189
3474.15146 2.33362
3472.10302 2.34048
3470.05458 2.34129
3468.00614 2.34520
3465.95770 2.35463
3463.90926 2.36532
3461.86082 2.37455
3459.81239 2.37991
3457.76395 2.38428
3455.71551 2.39066
3453.66707 2.40057
3451.61863 2.41211
3449.57019 2.42513
3447.52176 2.44058
3445.47332 2.45207
3443.42488 2.45927
3441.37644 2.46333
3439.32800 2.46461
3437.27956 2.47093
3435.23113 2.48287
3433.18269 2.49733
3431.13425 2.51448
3429.08581 2.52776
3427.03737 2.53296
3424.98893 2.53548
3422.94050 2.54131
3420.89206 2.54350
3418.84362 2.53518
3416.79518 2.52821
3414.74674 2.52114
3412.69830 2.50817
3410.64987 2.50473
3408.60143 2.50744
3406.55299 2.49565
3404.50455 2.47900
3402.45611 2.47559
3400.40767 2.47624
3398.35924 2.47022
3396.31080 2.46469
3394.26236 2.46159
3392.21392 2.45966
3390.16548 2.46002
3388.11704 2.46088
3386.06861 2.46377
3384.02017 2.47011
3381.97173 2.47433
3379.92329 2.47024
3377.87485 2.46120
3375.82641 2.45701
3373.77798 2.46374
3371.72954 2.47322
3369.68110 2.47394
3367.63266 2.46896
3365.58422 2.46359
3363.53578 2.46518
3361.48735 2.47769
3359.43891 2.48588
3357.39047 2.48298
3355.34203 2.47676
3353.29359 2.47039
3351.24515 2.47025
3349.19672 2.47713
3347.14828 2.48135
3345.09984 2.48022
3343.05140 2.47995
3341.00296 2.48352
3338.95452 2.48437
3336.90609 2.47881
3334.85765 2.47557
3332.80921 2.47184
3330.76077 2.46076
3328.71233 2.45241
3326.66389 2.44782
3324.61545 2.43965
3322.56702 2.42901
3320.51858 2.41743
3318.47014 2.40820
3316.42170 2.40106
3314.37326 2.39111
3312.32482 2.38124
3310.27639 2.37564
3308.22795 2.37316
3306.17951 2.37019
3304.13107 2.36651
3302.08263 2.36291
3300.03419 2.35878
3297.98576 2.35714
3295.93732 2.35715
3293.88888 2.35727
3291.84044 2.35823
3289.79200 2.35847
3287.74356 2.35713
3285.69513 2.35047
3283.64669 2.34118
3281.59825 2.33939
3279.54981 2.34405
3277.50137 2.34505
3275.45293 2.33997
3273.40450 2.33519
3271.35606 2.33350
3269.30762 2.32974
3267.25918 2.31958
3265.21074 2.30956
3263.16230 2.30841
3261.11387 2.31247
3259.06543 2.31303
3257.01699 2.31226
3254.96855 2.31317
3252.92011 2.31002
3250.87167 2.30196
3248.82324 2.29675
3246.77480 2.30090
3244.72636 2.31045
3242.67792 2.31282
3240.62948 2.30230
3238.58104 2.28973
3236.53261 2.28628
3234.48417 2.28797
3232.43573 2.28778
3230.38729 2.28415
3228.33885 2.27928
3226.29041 2.27760
3224.24198 2.27929
3222.19354 2.27964
3220.14510 2.27757
3218.09666 2.27457
3216.04822 2.27024
3213.99978 2.26497
3211.95135 2.25968
3209.90291 2.25432
3207.85447 2.25042
3205.80603 2.25207
3203.75759 2.25461
3201.70915 2.24962
3199.66072 2.24187
3197.61228 2.23719
3195.56384 2.23360
3193.51540 2.23073
3191.46696 2.23061
3189.41852 2.22925
3187.37008 2.22133
3185.32165 2.21285
3183.27321 2.21054
3181.22477 2.21009
3179.17633 2.20651
3177.12789 2.20147
3175.07945 2.19964
3173.03102 2.20153
3170.98258 2.20117
3168.93414 2.19660
3166.88570 2.19227
3164.83726 2.18865
3162.78882 2.18520
3160.74039 2.18383
3158.69195 2.18170
3156.64351 2.17606
3154.59507 2.17105
3152.54663 2.16910
3150.49819 2.16631
3148.44976 2.16136
3146.40132 2.15799
3144.35288 2.15619
3142.30444 2.15303
3140.25600 2.14908
3138.20756 2.14565
3136.15913 2.14167
3134.11069 2.13606
3132.06225 2.13040
3130.01381 2.12602
3127.96537 2.12104
3125.91693 2.11600
3123.86850 2.11491
3121.82006 2.11654
3119.77162 2.11510
3117.72318 2.11080
3115.67474 2.10769
3113.62630 2.10532
3111.57787 2.10093
3109.52943 2.09594
3107.48099 2.09307
3105.43255 2.09307
3103.38411 2.09490
3101.33567 2.09305
3099.28724 2.08651
3097.23880 2.08247
3095.19036 2.08321
3093.14192 2.08325
3091.09348 2.07999
3089.04504 2.07635
3086.99661 2.07345
3084.94817 2.07123
3082.89973 2.06867
3080.85129 2.06469
3078.80285 2.06087
3076.75441 2.05827
3074.70598 2.05624
3072.65754 2.05431
3070.60910 2.05261
3068.56066 2.04988
3066.51222 2.04487
3064.46378 2.03906
3062.41535 2.03354
3060.36691 2.02682
3058.31847 2.01863
3056.27003 2.01192
3054.22159 2.00814
3052.17315 2.00449
3050.12471 1.99901
3048.07628 1.99356
3046.02784 1.99046
3043.97940 1.98757
3041.93096 1.98154
3039.88252 1.97513
3037.83408 1.97108
3035.78565 1.96692
3033.73721 1.96145
3031.68877 1.95734
3029.64033 1.95568
3027.59189 1.95417
3025.54345 1.95154
3023.49502 1.94808
3021.44658 1.94448
3019.39814 1.94167
3017.34970 1.93966
3015.30126 1.93753
3013.25282 1.93400
3011.20439 1.92882
3009.15595 1.92490
3007.10751 1.92414
3005.05907 1.92309
3003.01063 1.91968
3000.96219 1.91628
2998.91376 1.91370
2996.86532 1.91137
2994.81688 1.90932
2992.76844 1.90779
2990.72000 1.90708
2988.67156 1.90694
2986.62313 1.90684
2984.57469 1.90589
2982.52625 1.90480
2980.47781 1.90569
2978.42937 1.90749
2976.38093 1.90747
2974.33250 1.90625
2972.28406 1.90637
2970.23562 1.90601
2968.18718 1.90292
2966.13874 1.90078
2964.09030 1.90181
2962.04187 1.90361
2959.99343 1.90453
2957.94499 1.90396
2955.89655 1.90166
2953.84811 1.89872
2951.79967 1.89655
2949.75124 1.89518
2947.70280 1.89433
2945.65436 1.89426
2943.60592 1.89376
2941.55748 1.89245
2939.50904 1.89241
2937.46061 1.89383
2935.41217 1.89475
2933.36373 1.89442
2931.31529 1.89387
2929.26685 1.89372
2927.21841 1.89353
2925.16998 1.89397
2923.12154 1.89606
2921.07310 1.89784
2919.02466 1.89708
2916.97622 1.89437
2914.92778 1.89179
2912.87934 1.89198
2910.83091 1.89378
2908.78247 1.89393
2906.73403 1.89286
2904.68559 1.89140
2902.63715 1.88843
2900.58871 1.88370
2898.54028 1.87826
2896.49184 1.87334
2894.44340 1.86876
2892.39496 1.86382
2890.34652 1.86053
2888.29808 1.85915
2886.24965 1.85728
2884.20121 1.85507
2882.15277 1.85299
2880.10433 1.85088
2878.05589 1.84932
2876.00745 1.84857
2873.95902 1.84834
2871.91058 1.84832
2869.86214 1.84836
2867.81370 1.84823
2865.76526 1.84662
2863.71682 1.84353
2861.66839 1.84143
2859.61995 1.84137
2857.57151 1.84160
2855.52307 1.84063
2853.47463 1.83905
2851.42619 1.83669
2849.37776 1.83323
2847.32932 1.82977
2845.28088 1.82681
2843.23244 1.82351
2841.18400 1.82051
2839.13556 1.81912
2837.08713 1.81797
2835.03869 1.81660
2832.99025 1.81531
2830.94181 1.81372
2828.89337 1.81236
2826.84493 1.81131
2824.79650 1.81095
2822.74806 1.81088
2820.69962 1.80888
2818.65118 1.80564
2816.60274 1.80442
2814.55430 1.80540
2812.50587 1.80669
2810.45743 1.80683
2808.40899 1.80530
2806.36055 1.80338
2804.31211 1.80140
2802.26367 1.79919
2800.21524 1.79707
2798.16680 1.79425
2796.11836 1.79059
2794.06992 1.78642
2792.02148 1.78106
2789.97304 1.77462
2787.92461 1.76844
2785.87617 1.76309
2783.82773 1.75810
2781.77929 1.75216
2779.73085 1.74550
2777.68241 1.74056
2775.63397 1.73786
2773.58554 1.73536
2771.53710 1.73217
2769.48866 1.72910
2767.44022 1.72678
2765.39178 1.72475
2763.34334 1.72234
2761.29491 1.71985
2759.24647 1.71772
2757.19803 1.71582
2755.14959 1.71421
2753.10115 1.71269
2751.05271 1.71098
2749.00428 1.70858
2746.95584 1.70537
2744.90740 1.70289
2742.85896 1.70213
2740.81052 1.70181
2738.76208 1.70055
2736.71365 1.69864
2734.66521 1.69686
2732.61677 1.69552
2730.56833 1.69460
2728.51989 1.69353
2726.47145 1.69207
2724.42302 1.69057
2722.37458 1.68924
2720.32614 1.68826
2718.27770 1.68785
2716.22926 1.68765
2714.18082 1.68730
2712.13239 1.68744
2710.08395 1.68802
2708.03551 1.68777
2705.98707 1.68648
2703.93863 1.68555
2701.89019 1.68547
2699.84176 1.68530
2697.79332 1.68484
2695.74488 1.68396
2693.69644 1.68310
2691.64800 1.68327
2689.59956 1.68343
2687.55113 1.68281
2685.50269 1.68261
2683.45425 1.68292
2681.40581 1.68218
2679.35737 1.67995
2677.30893 1.67741
2675.26050 1.67542
2673.21206 1.67387
2671.16362 1.67196
2669.11518 1.66966
2667.06674 1.66752
2665.01830 1.66491
2662.96987 1.66163
2660.92143 1.65884
2658.87299 1.65758
2656.82455 1.65727
2654.77611 1.65641
2652.72767 1.65514
2650.67924 1.65497
2648.63080 1.65590
2646.58236 1.65662
2644.53392 1.65670
2642.48548 1.65662
2640.43704 1.65713
2638.38860 1.65807
2636.34017 1.65827
2634.29173 1.65777
2632.24329 1.65745
2630.19485 1.65701
2628.14641 1.65655
2626.09797 1.65693
2624.04954 1.65795
2622.00110 1.65894
2619.95266 1.65950
2617.90422 1.65964
2615.85578 1.66005
2613.80734 1.66149
2611.75891 1.66370
2609.71047 1.66564
2607.66203 1.66677
2605.61359 1.66748
2603.56515 1.66953
2601.51671 1.67329
2599.46828 1.67683
2597.41984 1.67988
2595.37140 1.68356
2593.32296 1.68772
2591.27452 1.69138
2589.22608 1.69464
2587.17765 1.69851
2585.12921 1.70297
2583.08077 1.70712
2581.03233 1.71064
2578.98389 1.71413
2576.93545 1.71801
2574.88702 1.72192
2572.83858 1.72547
2570.79014 1.72878
2568.74170 1.73192
2566.69326 1.73577
2564.64482 1.74092
2562.59639 1.74606
2560.54795 1.75044
2558.49951 1.75448
2556.45107 1.75891
2554.40263 1.76403
2552.35419 1.76852
2550.30576 1.77161
2548.25732 1.77419
2546.20888 1.77646
2544.16044 1.77759
2542.11200 1.77839
2540.06356 1.78000
2538.01513 1.78104
2535.96669 1.77947
2533.91825 1.77582
2531.86981 1.77290
2529.82137 1.77182
2527.77293 1.77086
2525.72450 1.76912
2523.67606 1.76776
2521.62762 1.76655
2519.57918 1.76422
2517.53074 1.76044
2515.48230 1.75543
2513.43387 1.74948
2511.38543 1.74223
2509.33699 1.73443
2507.28855 1.72700
2505.24011 1.71976
2503.19167 1.71363
2501.14324 1.70979
2499.09480 1.70792
2497.04636 1.70715
2494.99792 1.70688
2492.94948 1.70653
2490.90104 1.70611
2488.85260 1.70593
2486.80417 1.70552
2484.75573 1.70479
2482.70729 1.70454
2480.65885 1.70486
2478.61041 1.70468
2476.56197 1.70324
2474.51354 1.70160
2472.46510 1.70054
2470.41666 1.70032
2468.36822 1.70174
2466.31978 1.70457
2464.27134 1.70744
2462.22291 1.70886
2460.17447 1.71028
2458.12603 1.71379
2456.07759 1.71704
2454.02915 1.71870
2451.98071 1.72099
2449.93228 1.72431
2447.88384 1.72789
2445.83540 1.73166
2443.78696 1.73547
2441.73852 1.73945
2439.69008 1.74398
2437.64165 1.74902
2435.59321 1.75395
2433.54477 1.75803
2431.49633 1.76130
2429.44789 1.76364
2427.39945 1.76436
2425.35102 1.76411
2423.30258 1.76337
2421.25414 1.76082
2419.20570 1.75669
2417.15726 1.75296
2415.10882 1.75044
2413.06039 1.74785
2411.01195 1.74439
2408.96351 1.74116
2406.91507 1.73897
2404.86663 1.73656
2402.81819 1.73220
2400.76976 1.72628
2398.72132 1.71981
2396.67288 1.71247
2394.62444 1.70440
2392.57600 1.69651
2390.52756 1.68838
2388.47913 1.67980
2386.43069 1.67169
2384.38225 1.66402
2382.33381 1.65653
2380.28537 1.64975
2378.23693 1.64318
2376.18850 1.63591
2374.14006 1.62875
2372.09162 1.62343
2370.04318 1.62094
2367.99474 1.61826
2365.94630 1.61162
2363.89787 1.60342
2361.84943 1.59710
2359.80099 1.59336
2357.75255 1.59043
2355.70411 1.58685
2353.65567 1.58320
2351.60723 1.57977
2349.55880 1.57673
2347.51036 1.57481
2345.46192 1.57439
2343.41348 1.57319
2341.36504 1.56950
2339.31660 1.56701
2337.26817 1.56678
2335.21973 1.56672
2333.17129 1.56785
2331.12285 1.56961
2329.07441 1.56834
2327.02597 1.56566
2324.97754 1.56507
2322.92910 1.56634
2320.88066 1.56862
2318.83222 1.56987
2316.78378 1.56859
2314.73534 1.56726
2312.68691 1.56822
2310.63847 1.57012
2308.59003 1.57136
2306.54159 1.57198
2304.49315 1.57234
2302.44471 1.57346
2300.39628 1.57523
2298.34784 1.57634
2296.29940 1.57651
2294.25096 1.57679
2292.20252 1.57789
2290.15408 1.57895
2288.10565 1.57944
2286.05721 1.57967
2284.00877 1.58020
2281.96033 1.58121
2279.91189 1.58263
2277.86345 1.58401
2275.81502 1.58480
2273.76658 1.58552
2271.71814 1.58673
2269.66970 1.58802
2267.62126 1.58938
2265.57282 1.59109
2263.52439 1.59212
2261.47595 1.59249
2259.42751 1.59364
2257.37907 1.59527
2255.33063 1.59649
2253.28219 1.59751
2251.23376 1.59860
2249.18532 1.59928
2247.13688 1.59962
2245.08844 1.60025
2243.04000 1.60104
2240.99156 1.60190
2238.94313 1.60344
2236.89469 1.60530
2234.84625 1.60665
2232.79781 1.60794
2230.74937 1.60978
2228.70093 1.61172
2226.65250 1.61312
2224.60406 1.61451
2222.55562 1.61649
2220.50718 1.61808
2218.45874 1.61912
2216.41030 1.62090
2214.36186 1.62329
2212.31343 1.62544
2210.26499 1.62686
2208.21655 1.62796
2206.16811 1.62961
2204.11967 1.63155
2202.07123 1.63375
2200.02280 1.63550
2197.97436 1.63599
2195.92592 1.63682
2193.87748 1.63863
2191.82904 1.64040
2189.78060 1.64191
2187.73217 1.64370
2185.68373 1.64644
2183.63529 1.64991
2181.58685 1.65337
2179.53841 1.65660
2177.48997 1.66005
2175.44154 1.66412
2173.39310 1.66829
2171.34466 1.67195
2169.29622 1.67528
2167.24778 1.67825
2165.19934 1.68034
2163.15091 1.68164
2161.10247 1.68197
2159.05403 1.68045
2157.00559 1.67740
2154.95715 1.67399
2152.90871 1.67086
2150.86028 1.66813
2148.81184 1.66564
2146.76340 1.66345
2144.71496 1.66145
2142.66652 1.65998
2140.61808 1.66008
2138.56965 1.66080
2136.52121 1.66068
2134.47277 1.66092
2132.42433 1.66220
2130.37589 1.66321
2128.32745 1.66415
2126.27902 1.66573
2124.23058 1.66742
2122.18214 1.66865
2120.13370 1.66913
2118.08526 1.66868
2116.03682 1.66698
2113.98839 1.66507
2111.93995 1.66453
2109.89151 1.66525
2107.84307 1.66666
2105.79463 1.66862
2103.74619 1.67084
2101.69776 1.67334
2099.64932 1.67696
2097.60088 1.68195
2095.55244 1.68786
2093.50400 1.69509
2091.45556 1.70413
2089.40713 1.71403
2087.35869 1.72409
2085.31025 1.73526
2083.26181 1.74712
2081.21337 1.75708
2079.16493 1.76333
2077.11649 1.76534
2075.06806 1.76278
2073.01962 1.75601
2070.97118 1.74615
2068.92274 1.73453
2066.87430 1.72227
2064.82586 1.71017
2062.77743 1.69904
2060.72899 1.68937
2058.68055 1.68082
2056.63211 1.67250
2054.58367 1.66474
2052.53523 1.65841
2050.48680 1.65258
2048.43836 1.64667
2046.38992 1.64140
2044.34148 1.63656
2042.29304 1.63161
2040.24460 1.62752
2038.19617 1.62470
2036.14773 1.62199
2034.09929 1.61906
2032.05085 1.61678
2030.00241 1.61565
2027.95397 1.61495
2025.90554 1.61441
2023.85710 1.61482
2021.80866 1.61544
2019.76022 1.61515
2017.71178 1.61494
2015.66334 1.61573
2013.61491 1.61646
2011.56647 1.61677
2009.51803 1.61768
2007.46959 1.61906
2005.42115 1.62054
2003.37271 1.62245
2001.32428 1.62430
1999.27584 1.62605
1997.22740 1.62867
1995.17896 1.63159
1993.13052 1.63354
1991.08208 1.63547
1989.03365 1.63852
1986.98521 1.64213
1984.93677 1.64570
1982.88833 1.64918
1980.83989 1.65253
1978.79145 1.65553
1976.74302 1.65796
1974.69458 1.66041
1972.64614 1.66335
1970.59770 1.66576
1968.54926 1.66697
1966.50082 1.66715
1964.45239 1.66713
1962.40395 1.66804
1960.35551 1.67000
1958.30707 1.67185
1956.25863 1.67272
1954.21019 1.67305
1952.16176 1.67332
1950.11332 1.67374
1948.06488 1.67438
1946.01644 1.67506
1943.96800 1.67628
1941.91956 1.67872
1939.87112 1.68098
1937.82269 1.68253
1935.77425 1.68473
1933.72581 1.68761
1931.67737 1.69005
1929.62893 1.69134
1927.58049 1.69210
1925.53206 1.69335
1923.48362 1.69519
1921.43518 1.69635
1919.38674 1.69645
1917.33830 1.69602
1915.28986 1.69438
1913.24143 1.69178
1911.19299 1.68957
1909.14455 1.68810
1907.09611 1.68694
1905.04767 1.68603
1902.99923 1.68499
1900.95080 1.68383
1898.90236 1.68276
1896.85392 1.68163
1894.80548 1.68079
1892.75704 1.68082
1890.70860 1.68168
1888.66017 1.68278
1886.61173 1.68331
1884.56329 1.68355
1882.51485 1.68406
1880.46641 1.68476
1878.41797 1.68528
1876.36954 1.68573
1874.32110 1.68673
1872.27266 1.68759
1870.22422 1.68868
1868.17578 1.69265
1866.12734 1.69810
1864.07891 1.70287
1862.03047 1.70796
1859.98203 1.71298
1857.93359 1.71802
1855.88515 1.72535
1853.83671 1.73571
1851.78828 1.74672
1849.73984 1.75627
1847.69140 1.76413
1845.64296 1.77121
1843.59452 1.78083
1841.54608 1.79044
1839.49765 1.79649
1837.44921 1.80015
1835.40077 1.80058
1833.35233 1.79830
1831.30389 1.79580
1829.25545 1.79421
1827.20702 1.79505
1825.15858 1.80009
1823.11014 1.80881
1821.06170 1.81861
1819.01326 1.82927
1816.96482 1.84247
1814.91639 1.85851
1812.86795 1.87527
1810.81951 1.89268
1808.77107 1.90943
1806.72263 1.92119
1804.67419 1.92595
1802.62575 1.92440
1800.57732 1.91746
1798.52888 1.90772
1796.48044 1.89822
1794.43200 1.88968
1792.38356 1.88286
1790.33512 1.87937
1788.28669 1.87780
1786.23825 1.87766
1784.18981 1.87917
1782.14137 1.88079
1780.09293 1.88241
1778.04449 1.88361
1775.99606 1.88305
1773.94762 1.88129
1771.89918 1.88115
1769.85074 1.88173
1767.80230 1.87939
1765.75386 1.87582
1763.70543 1.87263
1761.65699 1.86933
1759.60855 1.86595
1757.56011 1.86259
1755.51167 1.85976
1753.46323 1.85760
1751.41480 1.85624
1749.36636 1.85761
1747.31792 1.86088
1745.26948 1.86323
1743.22104 1.86390
1741.17260 1.86463
1739.12417 1.86693
1737.07573 1.86821
1735.02729 1.86974
1732.97885 1.87698
1730.93041 1.88342
1728.88197 1.88680
1726.83354 1.88991
1724.78510 1.89404
1722.73666 1.89942
1720.68822 1.90492
1718.63978 1.91266
1716.59134 1.92384
1714.54291 1.93179
1712.49447 1.93831
1710.44603 1.94569
1708.39759 1.95344
1706.34915 1.96233
1704.30071 1.97063
1702.25228 1.97737
1700.20384 1.99049
1698.15540 2.00849
1696.10696 2.02317
1694.05852 2.03330
1692.01008 2.03871
1689.96165 2.04621
1687.91321 2.05465
1685.86477 2.06131
1683.81633 2.07888
1681.76789 2.09804
1679.71945 2.10704
1677.67102 2.11470
1675.62258 2.12638
1673.57414 2.13941
1671.52570 2.14900
1669.47726 2.15840
1667.42882 2.16512
1665.38038 2.16855
1663.33195 2.17337
1661.28351 2.18156
1659.23507 2.19006
1657.18663 2.19691
1655.13819 2.20305
1653.08975 2.21360
1651.04132 2.22050
1648.99288 2.22569
1646.94444 2.23752
1644.89600 2.24596
1642.84756 2.24881
1640.79912 2.25163
1638.75069 2.25350
1636.70225 2.25732
1634.65381 2.27016
1632.60537 2.28164
1630.55693 2.29024
1628.50849 2.30092
1626.46006 2.31089
1624.41162 2.31777
1622.36318 2.32585
1620.31474 2.33288
1618.26630 2.33992
1616.21786 2.35157
1614.16943 2.35920
1612.12099 2.36155
1610.07255 2.36432
1608.02411 2.36771
1605.97567 2.37098
1603.92723 2.37819
1601.87880 2.39029
1599.83036 2.40126
1597.78192 2.40755
1595.73348 2.41422
1593.68504 2.42553
1591.63660 2.43869
1589.58817 2.45271
1587.53973 2.46932
1585.49129 2.48799
1583.44285 2.50122
1581.39441 2.50659
1579.34597 2.51405
1577.29754 2.52726
1575.24910 2.53911
1573.20066 2.54737
1571.15222 2.55701
1569.10378 2.56466
1567.05534 2.56095
1565.00691 2.55139
1562.95847 2.54409
1560.91003 2.54239
1558.86159 2.53711
1556.81315 2.51048
1554.76471 2.48407
1552.71628 2.45965
1550.66784 2.43601
1548.61940 2.41185
1546.57096 2.39182
1544.52252 2.37207
1542.47408 2.34343
1540.42565 2.30007
1538.37721 2.27115
1536.32877 2.26192
1534.28033 2.25320
1532.23189 2.24148
1530.18345 2.23153
1528.13501 2.22378
1526.08658 2.21866
1524.03814 2.21563
1521.98970 2.21063
1519.94126 2.20471
1517.89282 2.20465
1515.84438 2.21022
1513.79595 2.21334
1511.74751 2.21511
1509.69907 2.22316
1507.65063 2.23935
1505.60219 2.24212
1503.55375 2.24048
1501.50532 2.24625
1499.45688 2.25585
1497.40844 2.26674
1495.36000 2.27621
1493.31156 2.28273
1491.26312 2.29362
1489.21469 2.31239
1487.16625 2.32645
1485.11781 2.33802
1483.06937 2.34906
1481.02093 2.35833
1478.97249 2.37125
1476.92406 2.38604
1474.87562 2.39764
1472.82718 2.41288
1470.77874 2.42825
1468.73030 2.43758
1466.68186 2.44623
1464.63343 2.45281
1462.58499 2.45795
1460.53655 2.46870
1458.48811 2.49274
1456.43967 2.51570
1454.39123 2.50942
1452.34280 2.50371
1450.29436 2.50678
1448.24592 2.51658
1446.19748 2.52689
1444.14904 2.53071
1442.10060 2.52942
1440.05217 2.52321
1438.00373 2.49887
1435.95529 2.44429
1433.90685 2.39454
1431.85841 2.35153
1429.80997 2.29326
1427.76154 2.23008
1425.71310 2.17022
1423.66466 2.10921
1421.61622 2.05785
1419.56778 2.00846
1417.51934 1.95876
1415.47091 1.92716
1413.42247 1.90489
1411.37403 1.88542
1409.32559 1.86808
1407.27715 1.85375
1405.22871 1.84149
1403.18028 1.83133
1401.13184 1.82422
1399.08340 1.81981
1397.03496 1.81778
1394.98652 1.81856
1392.93808 1.82208
1390.88965 1.82699
1388.84121 1.83597
1386.79277 1.85235
1384.74433 1.87145
1382.69589 1.89126
1380.64745 1.91647
1378.59901 1.94599
1376.55058 1.97483
1374.50214 2.00233
1372.45370 2.02487
1370.40526 2.04173
1368.35682 2.05814
1366.30838 2.07081
1364.25995 2.07982
1362.21151 2.09013
1360.16307 2.09837
1358.11463 2.10308
1356.06619 2.10644
1354.01775 2.10918
1351.96932 2.11136
1349.92088 2.11348
1347.87244 2.11388
1345.82400 2.11006
1343.77556 2.10546
1341.72712 2.10461
1339.67869 2.10496
1337.63025 2.10211
1335.58181 2.09778
1333.53337 2.09613
1331.48493 2.09849
1329.43649 2.10099
1327.38806 2.10077
1325.33962 2.09897
1323.29118 2.09770
1321.24274 2.09558
1319.19430 2.08908
1317.14586 2.08112
1315.09743 2.07549
1313.04899 2.06923
1311.00055 2.06202
1308.95211 2.05582
1306.90367 2.04922
1304.85523 2.04160
1302.80680 2.03366
1300.75836 2.02565
1298.70992 2.01739
1296.66148 2.00901
1294.61304 2.00022
1292.56460 1.99093
1290.51617 1.98290
1288.46773 1.97711
1286.41929 1.97327
1284.37085 1.97054
1282.32241 1.96706
1280.27397 1.96226
1278.22554 1.95732
1276.17710 1.95244
1274.12866 1.94769
1272.08022 1.94322
1270.03178 1.94002
1267.98334 1.93922
1265.93491 1.93880
1263.88647 1.93773
1261.83803 1.93687
1259.78959 1.93582
1257.74115 1.93448
1255.69271 1.93330
1253.64428 1.93287
1251.59584 1.93359
1249.54740 1.93502
1247.49896 1.93646
1245.45052 1.93767
1243.40208 1.93861
1241.35364 1.93979
1239.30521 1.94195
1237.25677 1.94392
1235.20833 1.94454
1233.15989 1.94458
1231.11145 1.94467
1229.06301 1.94595
1227.01458 1.94921
1224.96614 1.95259
1222.91770 1.95415
1220.86926 1.95512
1218.82082 1.95829
1216.77238 1.96340
1214.72395 1.96896
1212.67551 1.97525
1210.62707 1.98135
1208.57863 1.98614
1206.53019 1.99163
1204.48175 1.99856
1202.43332 2.00529
1200.38488 2.01244
1198.33644 2.02024
1196.28800 2.02729
1194.23956 2.03432
1192.19112 2.04222
1190.14269 2.05068
1188.09425 2.05915
1186.04581 2.06637
1183.99737 2.07250
1181.94893 2.07920
1179.90049 2.08633
1177.85206 2.09346
1175.80362 2.10123
1173.75518 2.11046
1171.70674 2.12135
1169.65830 2.13249
1167.60986 2.14263
1165.56143 2.15187
1163.51299 2.16013
1161.46455 2.16814
1159.41611 2.17630
1157.36767 2.18373
1155.31923 2.19075
1153.27080 2.19763
1151.22236 2.20462
1149.17392 2.21286
1147.12548 2.22286
1145.07704 2.23394
1143.02860 2.24485
1140.98017 2.25438
1138.93173 2.26323
1136.88329 2.27309
1134.83485 2.28370
1132.78641 2.29544
1130.73797 2.30751
1128.68954 2.31875
1126.64110 2.33245
1124.59266 2.34901
1122.54422 2.36329
1120.49578 2.37501
1118.44734 2.39042
1116.39891 2.41273
1114.35047 2.43772
1112.30203 2.45861
1110.25359 2.47486
1108.20515 2.49112
1106.15671 2.50988
1104.10827 2.52707
1102.05984 2.52880
1100.01140 2.49961
1097.96296 2.44656
1095.91452 2.40116
1093.86608 2.38060
1091.81764 2.37380
1089.76921 2.37309
1087.72077 2.38505
1085.67233 2.40845
1083.62389 2.43614
1081.57545 2.46847
1079.52701 2.50765
1077.47858 2.54999
1075.43014 2.58622
1073.38170 2.60008
1071.33326 2.58771
1069.28482 2.55974
1067.23638 2.50917
1065.18795 2.43629
1063.13951 2.36155
1061.09107 2.29530
1059.04263 2.23858
1056.99419 2.19305
1054.94575 2.15836
1052.89732 2.13360
1050.84888 2.11959
1048.80044 2.11738
1046.75200 2.12818
1044.70356 2.14910
1042.65512 2.17382
1040.60669 2.19706
1038.55825 2.21658
1036.50981 2.23650
1034.46137 2.25816
1032.41293 2.27500
1030.36449 2.28389
1028.31606 2.28963
1026.26762 2.29530
1024.21918 2.29966
1022.17074 2.30458
1020.12230 2.30974
1018.07386 2.31082
1016.02543 2.31151
1013.97699 2.31571
1011.92855 2.31768
1009.88011 2.31478
1007.83167 2.31111
1005.78323 2.30752
1003.73480 2.30535
1001.68636 2.30782
999.63792 2.31265
997.58948 2.31751
995.54104 2.32244
993.49260 2.32552
991.44417 2.32540
989.39573 2.32433
987.34729 2.32785
985.29885 2.33689
983.25041 2.34750
981.20197 2.35379
979.15354 2.35036
977.10510 2.34475
975.05666 2.34890
973.00822 2.36336
970.95978 2.37776
968.91134 2.38404
966.86290 2.39015
964.81447 2.40367
962.76603 2.41901
960.71759 2.42883
958.66915 2.43408
956.62071 2.44236
954.57227 2.45403
952.52384 2.46529
950.47540 2.47924
948.42696 2.49534
946.37852 2.50632
944.33008 2.51439
942.28164 2.52957
940.23321 2.54786
938.18477 2.55728
936.13633 2.56105
934.08789 2.56586
932.03945 2.57071
929.99101 2.57614
927.94258 2.58303
925.89414 2.59233
923.84570 2.60678
921.79726 2.62448
919.74882 2.63553
917.70038 2.63195
915.65195 2.62080
913.60351 2.61192
911.55507 2.60000
909.50663 2.57640
907.45819 2.54515
905.40975 2.50790
903.36132 2.46148
901.31288 2.41476
899.26444 2.37281
897.21600 2.32937
895.16756 2.28405
893.11912 2.24100
891.07069 2.20514
889.02225 2.18120
886.97381 2.16546
884.92537 2.15199
882.87693 2.14373
880.82849 2.14165
878.78006 2.14126
876.73162 2.14101
874.68318 2.14030
872.63474 2.14339
870.58630 2.15500
868.53786 2.16799
866.48943 2.17549
864.44099 2.18426
862.39255 2.19806
860.34411 2.20917
858.29567 2.21553
856.24723 2.22221
854.19880 2.23119
852.15036 2.24018
850.10192 2.24409
848.05348 2.24050
846.00504 2.23284
843.95660 2.22245
841.90817 2.20719
839.85973 2.18700
837.81129 2.16286
835.76285 2.12968
833.71441 2.08209
831.66597 2.03168
829.61753 1.98900
827.56910 1.94911
825.52066 1.90949
823.47222 1.87550
821.42378 1.85537
819.37534 1.86898
817.32690 1.93538
815.27847 2.03538
813.23003 2.11333
811.18159 2.14638
809.13315 2.16324
807.08471 2.18432
805.03627 2.20228
802.98784 2.20991
800.93940 2.21682
798.89096 2.23344
796.84252 2.25656
794.79408 2.27541
792.74564 2.28204
790.69721 2.28060
788.64877 2.28349
786.60033 2.28973
784.55189 2.29113
782.50345 2.28583
780.45501 2.27539
778.40658 2.26753
776.35814 2.26875
774.30970 2.27550
772.26126 2.28885
770.21282 2.31550
768.16438 2.34608
766.11595 2.36650
764.06751 2.38162
762.01907 2.39787
759.97063 2.40819
757.92219 2.40586
755.87375 2.38076
753.82532 2.32673
751.77688 2.27019
749.72844 2.23903
747.68000 2.23458
745.63156 2.24244
743.58312 2.25050
741.53469 2.25897
739.48625 2.26729
737.43781 2.27236
735.38937 2.27206
733.34093 2.25768
731.29249 2.24206
729.24406 2.24664
727.19562 2.25355
725.14718 2.24249
723.09874 2.23440
721.05030 2.24661
719.00186 2.26297
716.95343 2.26994
714.90499 2.28341
712.85655 2.30304
710.80811 2.29775
708.75967 2.27141
706.71123 2.25399
704.66280 2.24057
702.61436 2.22938
700.56592 2.23640
698.51748 2.24702
696.46904 2.25217
694.42060 2.27209
692.37216 2.28584
690.32373 2.27091
688.27529 2.25312
686.22685 2.23098
684.17841 2.20260
682.12997 2.18460
680.08153 2.16913
678.03310 2.15691
675.98466 2.16591
673.93622 2.18451
671.88778 2.18953
669.83934 2.18246
667.79090 2.17891
665.74247 2.18220
663.69403 2.16151
661.64559 2.12960
659.59715 2.12685
657.54871 2.15186
655.50027 2.17726
653.45184 2.18507
651.40340 2.17808
649.35496 2.17119
647.30652 2.16710
645.25808 2.16307
643.20964 2.16502
641.16121 2.17978
639.11277 2.20387
637.06433 2.21983
635.01589 2.18737
632.96745 2.12911
630.91901 2.10199
628.87058 2.10505
626.82214 2.11832
624.77370 2.14453
622.72526 2.19904
620.67682 2.23554
618.62838 2.20120
616.57995 2.14597
614.53151 2.11874
612.48307 2.12943
610.43463 2.14189
608.38619 2.16624
606.33775 2.24960
604.28932 2.29971
602.24088 2.23538
600.19244 2.18080
598.14400 2.20442
