3996.50324 1.14129
3994.45480 1.14137
3992.40636 1.14147
3990.35792 1.14223
3988.30948 1.14284
3986.26104 1.14282
3984.21261 1.14284
3982.16417 1.14266
3980.11573 1.14214
3978.06729 1.14189
3976.01885 1.14204
3973.97041 1.14231
3971.92198 1.14260
3969.87354 1.14279
3967.82510 1.14276
3965.77666 1.14268
3963.72822 1.14294
3961.67978 1.14358
3959.63135 1.14428
3957.58291 1.14463
3955.53447 1.14449
3953.48603 1.14448
3951.43759 1.14491
3949.38915 1.14545
3947.34072 1.14580
3945.29228 1.14555
3943.24384 1.14538
3941.19540 1.14618
3939.14696 1.14703
3937.09852 1.14759
3935.05009 1.14843
3933.00165 1.15007
3930.95321 1.15202
3928.90477 1.15308
3926.85633 1.15370
3924.80789 1.15489
3922.75946 1.15656
3920.71102 1.15808
3918.66258 1.15975
3916.61414 1.16202
3914.56570 1.16411
3912.51726 1.16527
3910.46883 1.16567
3908.42039 1.16552
3906.37195 1.16518
3904.32351 1.16531
3902.27507 1.16678
3900.22663 1.16938
3898.17820 1.17087
3896.12976 1.17051
3894.08132 1.16970
3892.03288 1.16977
3889.98444 1.17054
3887.93600 1.17105
3885.88756 1.17220
3883.83913 1.17323
3881.79069 1.17297
3879.74225 1.17338
3877.69381 1.17403
3875.64537 1.17403
3873.59693 1.17366
3871.54850 1.17303
3869.50006 1.17288
3867.45162 1.17221
3865.40318 1.17081
3863.35474 1.17020
3861.30630 1.16982
3859.25787 1.16869
3857.20943 1.16710
3855.16099 1.16555
3853.11255 1.16669
3851.06411 1.16909
3849.01567 1.16944
3846.96724 1.16900
3844.91880 1.16838
3842.87036 1.16774
3840.82192 1.16707
3838.77348 1.16759
3836.72504 1.16942
3834.67661 1.17069
3832.62817 1.17189
3830.57973 1.17323
3828.53129 1.17384
3826.48285 1.17410
3824.43441 1.17421
3822.38598 1.17524
3820.33754 1.17904
3818.28910 1.18106
3816.24066 1.18163
3814.19222 1.18273
3812.14378 1.18323
3810.09535 1.18382
3808.04691 1.18502
3805.99847 1.18545
3803.95003 1.18422
3801.90159 1.18372
3799.85315 1.18518
3797.80472 1.18664
3795.75628 1.18828
3793.70784 1.18936
3791.65940 1.18942
3789.61096 1.18910
3787.56252 1.18931
3785.51409 1.19092
3783.46565 1.19284
3781.41721 1.19412
3779.36877 1.19591
3777.32033 1.19799
3775.27189 1.19910
3773.22346 1.19997
3771.17502 1.20223
3769.12658 1.20583
3767.07814 1.20829
3765.02970 1.21013
3762.98126 1.21182
3760.93283 1.21323
3758.88439 1.21583
3756.83595 1.21828
3754.78751 1.21933
3752.73907 1.22002
3750.69063 1.22321
3748.64219 1.22788
3746.59376 1.23029
3744.54532 1.23401
3742.49688 1.23779
3740.44844 1.23880
3738.40000 1.23904
3736.35156 1.24151
3734.30313 1.24776
3732.25469 1.25369
3730.20625 1.25774
3728.15781 1.26158
3726.10937 1.26670
3724.06093 1.27263
3722.01250 1.27882
3719.96406 1.28638
3717.91562 1.29539
3715.86718 1.30390
3713.81874 1.31192
3711.77030 1.32380
3709.72187 1.33855
3707.67343 1.34889
3705.62499 1.35636
3703.57655 1.36404
3701.52811 1.37405
3699.47967 1.38370
3697.43124 1.39039
3695.38280 1.39527
3693.33436 1.39794
3691.28592 1.39873
3689.23748 1.39970
3687.18904 1.40129
3685.14061 1.40317
3683.09217 1.40587
3681.04373 1.40916
3678.99529 1.41217
3676.94685 1.41676
3674.89841 1.42647
3672.84998 1.43485
3670.80154 1.44287
3668.75310 1.45448
3666.70466 1.46275
3664.65622 1.46870
3662.60778 1.47504
3660.55935 1.48211
3658.51091 1.48984
3656.46247 1.49967
3654.41403 1.50968
3652.36559 1.51620
3650.31715 1.52365
3648.26872 1.53917
3646.22028 1.55425
3644.17184 1.56430
3642.12340 1.57397
3640.07496 1.58549
3638.02652 1.59743
3635.97809 1.60921
3633.92965 1.62115
3631.88121 1.63161
3629.83277 1.64454
3627.78433 1.66516
3625.73589 1.67979
3623.68746 1.69052
3621.63902 1.70172
3619.59058 1.71346
3617.54214 1.72247
3615.49370 1.72720
3613.44526 1.73283
3611.39682 1.74089
3609.34839 1.74962
3607.29995 1.75912
3605.25151 1.76732
3603.20307 1.77458
3601.15463 1.78223
3599.10619 1.78891
3597.05776 1.79629
3595.00932 1.80566
3592.96088 1.81400
3590.91244 1.81988
3588.86400 1.82709
3586.81556 1.83842
3584.76713 1.84796
3582.71869 1.85506
3580.67025 1.86359
3578.62181 1.87315
3576.57337 1.88114
3574.52493 1.88850
3572.47650 1.89671
3570.42806 1.90333
3568.37962 1.90816
3566.33118 1.92022
3564.28274 1.93578
3562.23430 1.94672
3560.18587 1.95656
3558.13743 1.96668
3556.08899 1.97698
3554.04055 1.98798
3551.99211 1.99792
3549.94367 2.00521
3547.89524 2.01276
3545.84680 2.02236
3543.79836 2.03361
3541.74992 2.04494
3539.70148 2.05527
3537.65304 2.06303
3535.60461 2.06928
3533.55617 2.07621
3531.50773 2.08383
3529.45929 2.09150
3527.41085 2.09817
3525.36241 2.10576
3523.31398 2.11311
3521.26554 2.12003
3519.21710 2.12907
3517.16866 2.13669
3515.12022 2.13847
3513.07178 2.13897
3511.02335 2.14408
3508.97491 2.15189
3506.92647 2.15639
3504.87803 2.15643
3502.82959 2.15889
3500.78115 2.16821
3498.73272 2.17767
3496.68428 2.18228
3494.63584 2.18477
3492.58740 2.18904
3490.53896 2.19490
3488.49052 2.19921
3486.44209 2.20303
3484.39365 2.20650
3482.34521 2.20732
3480.29677 2.20904
3478.24833 2.21497
3476.19989 2.22337
3474.15146 2.22977
3472.10302 2.23282
3470.05458 2.23611
3468.00614 2.24165
3465.95770 2.24800
3463.90926 2.25307
3461.86082 2.25670
3459.81239 2.26227
3457.76395 2.26983
3455.71551 2.27678
3453.66707 2.28121
3451.61863 2.28335
3449.57019 2.28586
3447.52176 2.28805
3445.47332 2.29358
3443.42488 2.30613
3441.37644 2.32007
3439.32800 2.32985
3437.27956 2.33436
3435.23113 2.33347
3433.18269 2.33400
3431.13425 2.33854
3429.08581 2.34173
3427.03737 2.34178
3424.98893 2.33790
3422.94050 2.33596
3420.89206 2.33765
3418.84362 2.33453
3416.79518 2.32498
3414.74674 2.31706
3412.69830 2.31180
3410.64987 2.30196
3408.60143 2.29064
3406.55299 2.28184
3404.50455 2.27440
3402.45611 2.27093
3400.40767 2.27154
3398.35924 2.27453
3396.31080 2.27912
3394.26236 2.28293
3392.21392 2.28567
3390.16548 2.28530
3388.11704 2.28338
3386.06861 2.28536
3384.02017 2.28922
3381.97173 2.29112
3379.92329 2.29186
3377.87485 2.29332
3375.82641 2.29369
3373.77798 2.29227
3371.72954 2.29238
3369.68110 2.29482
3367.63266 2.29642
3365.58422 2.29792
3363.53578 2.30285
3361.48735 2.30587
3359.43891 2.30381
3357.39047 2.30446
3355.34203 2.31095
3353.29359 2.31829
3351.24515 2.32206
3349.19672 2.32078
3347.14828 2.31712
3345.09984 2.31340
3343.05140 2.30854
3341.00296 2.30442
3338.95452 2.30187
3336.90609 2.29969
3334.85765 2.29855
3332.80921 2.29687
3330.76077 2.29068
3328.71233 2.28327
3326.66389 2.28006
3324.61545 2.27343
3322.56702 2.25993
3320.51858 2.25021
3318.47014 2.24751
3316.42170 2.24478
3314.37326 2.23951
3312.32482 2.23486
3310.27639 2.23183
3308.22795 2.22966
3306.17951 2.22748
3304.13107 2.22561
3302.08263 2.22340
3300.03419 2.21953
3297.98576 2.21562
3295.93732 2.21345
3293.88888 2.21389
3291.84044 2.21559
3289.79200 2.21357
3287.74356 2.21018
3285.69513 2.21257
3283.64669 2.21477
3281.59825 2.20942
3279.54981 2.20265
3277.50137 2.19924
3275.45293 2.19711
3273.40450 2.19529
3271.35606 2.19354
3269.30762 2.19180
3267.25918 2.18996
3265.21074 2.18801
3263.16230 2.18561
3261.11387 2.17947
3259.06543 2.17315
3257.01699 2.17285
3254.96855 2.17430
3252.92011 2.17275
3250.87167 2.17042
3248.82324 2.16986
3246.77480 2.16938
3244.72636 2.16777
3242.67792 2.16664
3240.62948 2.16429
3238.58104 2.16135
3236.53261 2.15995
3234.48417 2.15747
3232.43573 2.15522
3230.38729 2.15423
3228.33885 2.15093
3226.29041 2.14648
3224.24198 2.14418
3222.19354 2.14329
3220.14510 2.14201
3218.09666 2.14138
3216.04822 2.14244
3213.99978 2.14394
3211.95135 2.14357
3209.90291 2.13961
3207.85447 2.13271
3205.80603 2.12463
3203.75759 2.11751
3201.70915 2.11366
3199.66072 2.11272
3197.61228 2.11229
3195.56384 2.11044
3193.51540 2.10669
3191.46696 2.10323
3189.41852 2.10288
3187.37008 2.10329
3185.32165 2.10039
3183.27321 2.09503
3181.22477 2.09000
3179.17633 2.08680
3177.12789 2.08583
3175.07945 2.08586
3173.03102 2.08504
3170.98258 2.08212
3168.93414 2.07692
3166.88570 2.07249
3164.83726 2.07070
3162.78882 2.06898
3160.74039 2.06657
3158.69195 2.06317
3156.64351 2.05869
3154.59507 2.05622
3152.54663 2.05426
3150.49819 2.05004
3148.44976 2.04687
3146.40132 2.04536
3144.35288 2.04267
3142.30444 2.03930
3140.25600 2.03703
3138.20756 2.03417
3136.15913 2.02864
3134.11069 2.02323
3132.06225 2.02095
3130.01381 2.02074
3127.96537 2.02022
3125.91693 2.01808
3123.86850 2.01478
3121.82006 2.01213
3119.77162 2.01104
3117.72318 2.00995
3115.67474 2.00698
3113.62630 2.00250
3111.57787 1.99908
3109.52943 1.99768
3107.48099 1.99647
3105.43255 1.99596
3103.38411 1.99638
3101.33567 1.99560
3099.28724 1.99426
3097.23880 1.99336
3095.19036 1.99247
3093.14192 1.99109
3091.09348 1.98898
3089.04504 1.98731
3086.99661 1.98655
3084.94817 1.98546
3082.89973 1.98302
3080.85129 1.97977
3078.80285 1.97772
3076.75441 1.97763
3074.70598 1.97680
3072.65754 1.97408
3070.60910 1.97073
3068.56066 1.96660
3066.51222 1.96310
3064.46378 1.96187
3062.41535 1.96099
3060.36691 1.95868
3058.31847 1.95435
3056.27003 1.94867
3054.22159 1.94453
3052.17315 1.94262
3050.12471 1.94042
3048.07628 1.93621
3046.02784 1.93057
3043.97940 1.92526
3041.93096 1.92119
3039.88252 1.91778
3037.83408 1.91528
3035.78565 1.91408
3033.73721 1.91186
3031.68877 1.90811
3029.64033 1.90437
3027.59189 1.90028
3025.54345 1.89681
3023.49502 1.89528
3021.44658 1.89346
3019.39814 1.88976
3017.34970 1.88662
3015.30126 1.88557
3013.25282 1.88473
3011.20439 1.88289
3009.15595 1.88085
3007.10751 1.87908
3005.05907 1.87705
3003.01063 1.87493
3000.96219 1.87326
2998.91376 1.87134
2996.86532 1.86936
2994.81688 1.86822
2992.76844 1.86778
2990.72000 1.86788
2988.67156 1.86807
2986.62313 1.86809
2984.57469 1.86932
2982.52625 1.87213
2980.47781 1.87405
2978.42937 1.87409
2976.38093 1.87474
2974.33250 1.87693
2972.28406 1.87871
2970.23562 1.87929
2968.18718 1.87951
2966.13874 1.87970
2964.09030 1.88076
2962.04187 1.88257
2959.99343 1.88306
2957.94499 1.88223
2955.89655 1.88141
2953.84811 1.88049
2951.79967 1.87845
2949.75124 1.87615
2947.70280 1.87586
2945.65436 1.87711
2943.60592 1.87883
2941.55748 1.88090
2939.50904 1.88221
2937.46061 1.88296
2935.41217 1.88357
2933.36373 1.88428
2931.31529 1.88605
2929.26685 1.88767
2927.21841 1.88881
2925.16998 1.89022
2923.12154 1.89027
2921.07310 1.88886
2919.02466 1.88631
2916.97622 1.88294
2914.92778 1.88004
2912.87934 1.87731
2910.83091 1.87417
2908.78247 1.87075
2906.73403 1.86707
2904.68559 1.86192
2902.63715 1.85610
2900.58871 1.85226
2898.54028 1.84865
2896.49184 1.84319
2894.44340 1.83794
2892.39496 1.83396
2890.34652 1.83063
2888.29808 1.82827
2886.24965 1.82637
2884.20121 1.82397
2882.15277 1.82202
2880.10433 1.82183
2878.05589 1.82223
2876.00745 1.82215
2873.95902 1.82225
2871.91058 1.82215
2869.86214 1.82083
2867.81370 1.81874
2865.76526 1.81756
2863.71682 1.81837
2861.66839 1.82091
2859.61995 1.82372
2857.57151 1.82540
2855.52307 1.82646
2853.47463 1.82694
2851.42619 1.82613
2849.37776 1.82343
2847.32932 1.81724
2845.28088 1.80791
2843.23244 1.79846
2841.18400 1.79109
2839.13556 1.78603
2837.08713 1.78218
2835.03869 1.77891
2832.99025 1.77724
2830.94181 1.77707
2828.89337 1.77625
2826.84493 1.77385
2824.79650 1.77067
2822.74806 1.76743
2820.69962 1.76492
2818.65118 1.76422
2816.60274 1.76457
2814.55430 1.76433
2812.50587 1.76316
2810.45743 1.76157
2808.40899 1.75999
2806.36055 1.75799
2804.31211 1.75634
2802.26367 1.75555
2800.21524 1.75369
2798.16680 1.75016
2796.11836 1.74576
2794.06992 1.74025
2792.02148 1.73450
2789.97304 1.72987
2787.92461 1.72544
2785.87617 1.71998
2783.82773 1.71394
2781.77929 1.70877
2779.73085 1.70480
2777.68241 1.70129
2775.63397 1.69814
2773.58554 1.69521
2771.53710 1.69228
2769.48866 1.68932
2767.44022 1.68667
2765.39178 1.68451
2763.34334 1.68225
2761.29491 1.67962
2759.24647 1.67721
2757.19803 1.67534
2755.14959 1.67355
2753.10115 1.67177
2751.05271 1.66998
2749.00428 1.66827
2746.95584 1.66688
2744.90740 1.66573
2742.85896 1.66464
2740.81052 1.66344
2738.76208 1.66214
2736.71365 1.66080
2734.66521 1.66002
2732.61677 1.65935
2730.56833 1.65760
2728.51989 1.65541
2726.47145 1.65375
2724.42302 1.65258
2722.37458 1.65183
2720.32614 1.65075
2718.27770 1.64860
2716.22926 1.64663
2714.18082 1.64563
2712.13239 1.64466
2710.08395 1.64312
2708.03551 1.64117
2705.98707 1.63984
2703.93863 1.63961
2701.89019 1.63947
2699.84176 1.63911
2697.79332 1.63913
2695.74488 1.63880
2693.69644 1.63789
2691.64800 1.63755
2689.59956 1.63710
2687.55113 1.63588
2685.50269 1.63571
2683.45425 1.63667
2681.40581 1.63610
2679.35737 1.63340
2677.30893 1.63058
2675.26050 1.62830
2673.21206 1.62573
2671.16362 1.62323
2669.11518 1.62148
2667.06674 1.61984
2665.01830 1.61792
2662.96987 1.61652
2660.92143 1.61574
2658.87299 1.61462
2656.82455 1.61319
2654.77611 1.61237
2652.72767 1.61181
2650.67924 1.61085
2648.63080 1.60994
2646.58236 1.60916
2644.53392 1.60857
2642.48548 1.60846
2640.43704 1.60858
2638.38860 1.60874
2636.34017 1.60928
2634.29173 1.60987
2632.24329 1.60954
2630.19485 1.60945
2628.14641 1.61072
2626.09797 1.61188
2624.04954 1.61220
2622.00110 1.61256
2619.95266 1.61335
2617.90422 1.61443
2615.85578 1.61514
2613.80734 1.61544
2611.75891 1.61629
2609.71047 1.61786
2607.66203 1.61928
2605.61359 1.62030
2603.56515 1.62193
2601.51671 1.62422
2599.46828 1.62620
2597.41984 1.62810
2595.37140 1.63129
2593.32296 1.63566
2591.27452 1.63959
2589.22608 1.64287
2587.17765 1.64615
2585.12921 1.64934
2583.08077 1.65241
2581.03233 1.65597
2578.98389 1.65966
2576.93545 1.66265
2574.88702 1.66625
2572.83858 1.67066
2570.79014 1.67401
2568.74170 1.67684
2566.69326 1.68057
2564.64482 1.68452
2562.59639 1.68816
2560.54795 1.69230
2558.49951 1.69642
2556.45107 1.69987
2554.40263 1.70354
2552.35419 1.70751
2550.30576 1.71061
2548.25732 1.71234
2546.20888 1.71325
2544.16044 1.71378
2542.11200 1.71384
2540.06356 1.71350
2538.01513 1.71256
2535.96669 1.71038
2533.91825 1.70776
2531.86981 1.70603
2529.82137 1.70420
2527.77293 1.70146
2525.72450 1.69894
2523.67606 1.69725
2521.62762 1.69624
2519.57918 1.69499
2517.53074 1.69203
2515.48230 1.68728
2513.43387 1.68146
2511.38543 1.67510
2509.33699 1.66825
2507.28855 1.66100
2505.24011 1.65515
2503.19167 1.65150
2501.14324 1.64820
2499.09480 1.64475
2497.04636 1.64215
2494.99792 1.64045
2492.94948 1.63897
2490.90104 1.63788
2488.85260 1.63794
2486.80417 1.63861
2484.75573 1.63877
2482.70729 1.63779
2480.65885 1.63601
2478.61041 1.63441
2476.56197 1.63340
2474.51354 1.63312
2472.46510 1.63359
2470.41666 1.63492
2468.36822 1.63696
2466.31978 1.63898
2464.27134 1.64094
2462.22291 1.64325
2460.17447 1.64567
2458.12603 1.64815
2456.07759 1.65046
2454.02915 1.65215
2451.98071 1.65419
2449.93228 1.65775
2447.88384 1.66200
2445.83540 1.66548
2443.78696 1.66857
2441.73852 1.67211
2439.69008 1.67579
2437.64165 1.67969
2435.59321 1.68363
2433.54477 1.68690
2431.49633 1.68972
2429.44789 1.69201
2427.39945 1.69286
2425.35102 1.69234
2423.30258 1.69099
2421.25414 1.68918
2419.20570 1.68704
2417.15726 1.68412
2415.10882 1.68078
2413.06039 1.67799
2411.01195 1.67532
2408.96351 1.67161
2406.91507 1.66707
2404.86663 1.66320
2402.81819 1.65995
2400.76976 1.65531
2398.72132 1.64893
2396.67288 1.64237
2394.62444 1.63630
2392.57600 1.62979
2390.52756 1.62192
2388.47913 1.61353
2386.43069 1.60567
2384.38225 1.59889
2382.33381 1.59358
2380.28537 1.58904
2378.23693 1.58435
2376.18850 1.57969
2374.14006 1.57477
2372.09162 1.56860
2370.04318 1.56123
2367.99474 1.55453
2365.94630 1.54856
2363.89787 1.54074
2361.84943 1.53292
2359.80099 1.52813
2357.75255 1.52674
2355.70411 1.52639
2353.65567 1.52439
2351.60723 1.52271
2349.55880 1.52251
2347.51036 1.52194
2345.46192 1.51986
2343.41348 1.51796
2341.36504 1.51759
2339.31660 1.51661
2337.26817 1.51382
2335.21973 1.51191
2333.17129 1.51354
2331.12285 1.51652
2329.07441 1.51755
2327.02597 1.51764
2324.97754 1.51776
2322.92910 1.51724
2320.88066 1.51746
2318.83222 1.51899
2316.78378 1.52030
2314.73534 1.52062
2312.68691 1.52038
2310.63847 1.52077
2308.59003 1.52220
2306.54159 1.52347
2304.49315 1.52410
2302.44471 1.52457
2300.39628 1.52508
2298.34784 1.52541
2296.29940 1.52528
2294.25096 1.52541
2292.20252 1.52683
2290.15408 1.52904
2288.10565 1.53075
2286.05721 1.53138
2284.00877 1.53161
2281.96033 1.53258
2279.91189 1.53421
2277.86345 1.53555
2275.81502 1.53647
2273.76658 1.53723
2271.71814 1.53799
2269.66970 1.53937
2267.62126 1.54110
2265.57282 1.54202
2263.52439 1.54251
2261.47595 1.54367
2259.42751 1.54524
2257.37907 1.54642
2255.33063 1.54736
2253.28219 1.54882
2251.23376 1.55059
2249.18532 1.55192
2247.13688 1.55312
2245.08844 1.55463
2243.04000 1.55596
2240.99156 1.55675
2238.94313 1.55761
2236.89469 1.55904
2234.84625 1.56041
2232.79781 1.56163
2230.74937 1.56333
2228.70093 1.56461
2226.65250 1.56522
2224.60406 1.56661
2222.55562 1.56854
2220.50718 1.56984
2218.45874 1.57076
2216.41030 1.57200
2214.36186 1.57356
2212.31343 1.57511
2210.26499 1.57634
2208.21655 1.57743
2206.16811 1.57890
2204.11967 1.58090
2202.07123 1.58306
2200.02280 1.58478
2197.97436 1.58561
2195.92592 1.58601
2193.87748 1.58710
2191.82904 1.58899
2189.78060 1.59107
2187.73217 1.59330
2185.68373 1.59586
2183.63529 1.59852
2181.58685 1.60073
2179.53841 1.60274
2177.48997 1.60531
2175.44154 1.60828
2173.39310 1.61132
2171.34466 1.61444
2169.29622 1.61718
2167.24778 1.61946
2165.19934 1.62155
2163.15091 1.62295
2161.10247 1.62320
2159.05403 1.62222
2157.00559 1.62005
2154.95715 1.61706
2152.90871 1.61364
2150.86028 1.61015
2148.81184 1.60696
2146.76340 1.60442
2144.71496 1.60285
2142.66652 1.60203
2140.61808 1.60118
2138.56965 1.60019
2136.52121 1.59971
2134.47277 1.59951
2132.42433 1.59932
2130.37589 1.59997
2128.32745 1.60099
2126.27902 1.60160
2124.23058 1.60297
2122.18214 1.60494
2120.13370 1.60559
2118.08526 1.60492
2116.03682 1.60399
2113.98839 1.60313
2111.93995 1.60258
2109.89151 1.60270
2107.84307 1.60441
2105.79463 1.60753
2103.74619 1.61043
2101.69776 1.61279
2099.64932 1.61614
2097.60088 1.62148
2095.55244 1.62762
2093.50400 1.63357
2091.45556 1.64056
2089.40713 1.64976
2087.35869 1.66061
2085.31025 1.67159
2083.26181 1.68109
2081.21337 1.68868
2079.16493 1.69433
2077.11649 1.69702
2075.06806 1.69549
2073.01962 1.68970
2070.97118 1.68136
2068.92274 1.67226
2066.87430 1.66313
2064.82586 1.65375
2062.77743 1.64394
2060.72899 1.63429
2058.68055 1.62591
2056.63211 1.61923
2054.58367 1.61363
2052.53523 1.60859
2050.48680 1.60368
2048.43836 1.59865
2046.38992 1.59372
2044.34148 1.58944
2042.29304 1.58599
2040.24460 1.58295
2038.19617 1.58024
2036.14773 1.57838
2034.09929 1.57756
2032.05085 1.57731
2030.00241 1.57717
2027.95397 1.57687
2025.90554 1.57643
2023.85710 1.57601
2021.80866 1.57548
2019.76022 1.57476
2017.71178 1.57476
2015.66334 1.57581
2013.61491 1.57689
2011.56647 1.57781
2009.51803 1.57909
2007.46959 1.58091
2005.42115 1.58304
2003.37271 1.58515
2001.32428 1.58756
1999.27584 1.59070
1997.22740 1.59400
1995.17896 1.59672
1993.13052 1.59904
1991.08208 1.60186
1989.03365 1.60517
1986.98521 1.60905
1984.93677 1.61343
1982.88833 1.61765
1980.83989 1.62158
1978.79145 1.62506
1976.74302 1.62841
1974.69458 1.63146
1972.64614 1.63350
1970.59770 1.63503
1968.54926 1.63680
1966.50082 1.63898
1964.45239 1.64098
1962.40395 1.64194
1960.35551 1.64230
1958.30707 1.64289
1956.25863 1.64348
1954.21019 1.64377
1952.16176 1.64415
1950.11332 1.64479
1948.06488 1.64535
1946.01644 1.64564
1943.96800 1.64581
1941.91956 1.64679
1939.87112 1.64861
1937.82269 1.65039
1935.77425 1.65256
1933.72581 1.65524
1931.67737 1.65730
1929.62893 1.65821
1927.58049 1.65889
1925.53206 1.65950
1923.48362 1.65920
1921.43518 1.65786
1919.38674 1.65645
1917.33830 1.65578
1915.28986 1.65520
1913.24143 1.65399
1911.19299 1.65312
1909.14455 1.65268
1907.09611 1.65130
1905.04767 1.64939
1902.99923 1.64789
1900.95080 1.64696
1898.90236 1.64643
1896.85392 1.64546
1894.80548 1.64385
1892.75704 1.64267
1890.70860 1.64215
1888.66017 1.64258
1886.61173 1.64345
1884.56329 1.64330
1882.51485 1.64339
1880.46641 1.64466
1878.41797 1.64570
1876.36954 1.64627
1874.32110 1.64737
1872.27266 1.64897
1870.22422 1.65128
1868.17578 1.65573
1866.12734 1.66097
1864.07891 1.66469
1862.03047 1.66800
1859.98203 1.67275
1857.93359 1.67950
1855.88515 1.68752
1853.83671 1.69586
1851.78828 1.70364
1849.73984 1.71032
1847.69140 1.71668
1845.64296 1.72407
1843.59452 1.73244
1841.54608 1.73875
1839.49765 1.74332
1837.44921 1.74638
1835.40077 1.74638
1833.35233 1.74464
1831.30389 1.74289
1829.25545 1.74243
1827.20702 1.74385
1825.15858 1.74718
1823.11014 1.75329
1821.06170 1.76192
1819.01326 1.77298
1816.96482 1.78581
1814.91639 1.79911
1812.86795 1.81221
1810.81951 1.82539
1808.77107 1.83703
1806.72263 1.84523
1804.67419 1.84933
1802.62575 1.84864
1800.57732 1.84266
1798.52888 1.83327
1796.48044 1.82382
1794.43200 1.81480
1792.38356 1.80655
1790.33512 1.80339
1788.28669 1.80355
1786.23825 1.80316
1784.18981 1.80212
1782.14137 1.80103
1780.09293 1.80187
1778.04449 1.80522
1775.99606 1.80711
1773.94762 1.80530
1771.89918 1.80199
1769.85074 1.80043
1767.80230 1.79937
1765.75386 1.79831
1763.70543 1.79723
1761.65699 1.79614
1759.60855 1.79667
1757.56011 1.79973
1755.51167 1.80471
1753.46323 1.80923
1751.41480 1.81394
1749.36636 1.82221
1747.31792 1.83208
1745.26948 1.83921
1743.22104 1.84373
1741.17260 1.84809
1739.12417 1.85327
1737.07573 1.85646
1735.02729 1.85827
1732.97885 1.86390
1730.93041 1.87186
1728.88197 1.88010
1726.83354 1.88842
1724.78510 1.89661
1722.73666 1.90451
1720.68822 1.91109
1718.63978 1.91963
1716.59134 1.93621
1714.54291 1.95539
1712.49447 1.97152
1710.44603 1.98444
1708.39759 1.99530
1706.34915 2.00972
1704.30071 2.02726
1702.25228 2.04061
1700.20384 2.05799
1698.15540 2.08260
1696.10696 2.10135
1694.05852 2.11385
1692.01008 2.12395
1689.96165 2.13869
1687.91321 2.15558
1685.86477 2.16947
1683.81633 2.18602
1681.76789 2.19968
1679.71945 2.20796
1677.67102 2.21286
1675.62258 2.21883
1673.57414 2.22956
1671.52570 2.24004
1669.47726 2.25000
1667.42882 2.25684
1665.38038 2.26039
1663.33195 2.26394
1661.28351 2.26509
1659.23507 2.26248
1657.18663 2.25749
1655.13819 2.25289
1653.08975 2.25673
1651.04132 2.25884
1648.99288 2.25363
1646.94444 2.24780
1644.89600 2.25003
1642.84756 2.25772
1640.79912 2.26518
1638.75069 2.27023
1636.70225 2.27395
1634.65381 2.27603
1632.60537 2.27676
1630.55693 2.27881
1628.50849 2.28120
1626.46006 2.28355
1624.41162 2.28532
1622.36318 2.28573
1620.31474 2.28502
1618.26630 2.28151
1616.21786 2.27687
1614.16943 2.27972
1612.12099 2.28798
1610.07255 2.29710
1608.02411 2.30351
1605.97567 2.30694
1603.92723 2.30876
1601.87880 2.31115
1599.83036 2.31833
1597.78192 2.32843
1595.73348 2.33834
1593.68504 2.34582
1591.63660 2.35063
1589.58817 2.35787
1587.53973 2.36833
1585.49129 2.38172
1583.44285 2.39806
1581.39441 2.41154
1579.34597 2.41896
1577.29754 2.42685
1575.24910 2.43744
1573.20066 2.44165
1571.15222 2.44168
1569.10378 2.44132
1567.05534 2.44184
1565.00691 2.44422
1562.95847 2.44669
1560.91003 2.44260
1558.86159 2.42751
1556.81315 2.41107
1554.76471 2.38747
1552.71628 2.35265
1550.66784 2.31380
1548.61940 2.27916
1546.57096 2.25473
1544.52252 2.23159
1542.47408 2.20187
1540.42565 2.15822
1538.37721 2.12154
1536.32877 2.10654
1534.28033 2.09168
1532.23189 2.07221
1530.18345 2.05867
1528.13501 2.04892
1526.08658 2.03891
1524.03814 2.03001
1521.98970 2.02349
1519.94126 2.01963
1517.89282 2.01480
1515.84438 2.00945
1513.79595 2.00748
1511.74751 2.01012
1509.69907 2.01732
1507.65063 2.02827
1505.60219 2.03233
1503.55375 2.03414
1501.50532 2.04027
1499.45688 2.04973
1497.40844 2.06253
1495.36000 2.07380
1493.31156 2.08008
1491.26312 2.08940
1489.21469 2.10807
1487.16625 2.12516
1485.11781 2.13833
1483.06937 2.15469
1481.02093 2.17537
1478.97249 2.19593
1476.92406 2.21523
1474.87562 2.23498
1472.82718 2.25338
1470.77874 2.26403
1468.73030 2.26944
1466.68186 2.27793
1464.63343 2.29113
1462.58499 2.30230
1460.53655 2.31160
1458.48811 2.32302
1456.43967 2.33520
1454.39123 2.34322
1452.34280 2.34893
1450.29436 2.35262
1448.24592 2.35466
1446.19748 2.35707
1444.14904 2.35778
1442.10060 2.34860
1440.05217 2.32792
1438.00373 2.29606
1435.95529 2.24966
1433.90685 2.20883
1431.85841 2.17360
1429.80997 2.13250
1427.76154 2.09203
1425.71310 2.05367
1423.66466 2.01153
1421.61622 1.97158
1419.56778 1.92789
1417.51934 1.88258
1415.47091 1.85456
1413.42247 1.83410
1411.37403 1.81467
1409.32559 1.79777
1407.27715 1.78487
1405.22871 1.77444
1403.18028 1.76719
1401.13184 1.76365
1399.08340 1.76311
1397.03496 1.76536
1394.98652 1.77063
1392.93808 1.77858
1390.88965 1.78691
1388.84121 1.79711
1386.79277 1.81210
1384.74433 1.82942
1382.69589 1.84655
1380.64745 1.86508
1378.59901 1.88499
1376.55058 1.90565
1374.50214 1.92757
1372.45370 1.94698
1370.40526 1.96224
1368.35682 1.97706
1366.30838 1.98988
1364.25995 2.00046
1362.21151 2.01029
1360.16307 2.01644
1358.11463 2.01889
1356.06619 2.01913
1354.01775 2.01825
1351.96932 2.01791
1349.92088 2.01923
1347.87244 2.02081
1345.82400 2.02123
1343.77556 2.02083
1341.72712 2.01983
1339.67869 2.01837
1337.63025 2.01834
1335.58181 2.02069
1333.53337 2.02447
1331.48493 2.02820
1329.43649 2.02967
1327.38806 2.02935
1325.33962 2.02830
1323.29118 2.02534
1321.24274 2.02031
1319.19430 2.01503
1317.14586 2.01027
1315.09743 2.00385
1313.04899 1.99483
1311.00055 1.98448
1308.95211 1.97283
1306.90367 1.96047
1304.85523 1.94823
1302.80680 1.93520
1300.75836 1.92259
1298.70992 1.91223
1296.66148 1.90411
1294.61304 1.89805
1292.56460 1.89335
1290.51617 1.88866
1288.46773 1.88372
1286.41929 1.87979
1284.37085 1.87789
1282.32241 1.87707
1280.27397 1.87585
1278.22554 1.87354
1276.17710 1.87041
1274.12866 1.86821
1272.08022 1.86785
1270.03178 1.86847
1267.98334 1.86958
1265.93491 1.87079
1263.88647 1.87172
1261.83803 1.87218
1259.78959 1.87164
1257.74115 1.87029
1255.69271 1.86921
1253.64428 1.86937
1251.59584 1.87065
1249.54740 1.87152
1247.49896 1.87177
1245.45052 1.87322
1243.40208 1.87614
1241.35364 1.87825
1239.30521 1.87832
1237.25677 1.87830
1235.20833 1.87941
1233.15989 1.88064
1231.11145 1.88196
1229.06301 1.88408
1227.01458 1.88580
1224.96614 1.88576
1222.91770 1.88534
1220.86926 1.88691
1218.82082 1.89032
1216.77238 1.89413
1214.72395 1.89867
1212.67551 1.90399
1210.62707 1.90924
1208.57863 1.91566
1206.53019 1.92342
1204.48175 1.93042
1202.43332 1.93587
1200.38488 1.94051
1198.33644 1.94495
1196.28800 1.94968
1194.23956 1.95509
1192.19112 1.96021
1190.14269 1.96440
1188.09425 1.96924
1186.04581 1.97554
1183.99737 1.98158
1181.94893 1.98625
1179.90049 1.99133
1177.85206 1.99844
1175.80362 2.00576
1173.75518 2.01109
1171.70674 2.01602
1169.65830 2.02227
1167.60986 2.02921
1165.56143 2.03603
1163.51299 2.04246
1161.46455 2.04848
1159.41611 2.05403
1157.36767 2.05875
1155.31923 2.06222
1153.27080 2.06676
1151.22236 2.07346
1149.17392 2.07979
1147.12548 2.08544
1145.07704 2.09101
1143.02860 2.09522
1140.98017 2.09886
1138.93173 2.10438
1136.88329 2.11297
1134.83485 2.12452
1132.78641 2.13555
1130.73797 2.14388
1128.68954 2.15276
1126.64110 2.16469
1124.59266 2.17773
1122.54422 2.18934
1120.49578 2.20184
1118.44734 2.21705
1116.39891 2.23150
1114.35047 2.24306
1112.30203 2.25157
1110.25359 2.25588
1108.20515 2.25796
1106.15671 2.26091
1104.10827 2.26158
1102.05984 2.25185
1100.01140 2.22731
1097.96296 2.19494
1095.91452 2.17220
1093.86608 2.16975
1091.81764 2.17966
1089.76921 2.19061
1087.72077 2.19961
1085.67233 2.20638
1083.62389 2.21214
1081.57545 2.21943
1079.52701 2.22848
1077.47858 2.23653
1075.43014 2.24378
1073.38170 2.25289
1071.33326 2.26006
1069.28482 2.25459
1067.23638 2.22992
1065.18795 2.19044
1063.13951 2.14296
1061.09107 2.09316
1059.04263 2.04714
1056.99419 2.00809
1054.94575 1.97765
1052.89732 1.95627
1050.84888 1.94321
1048.80044 1.93959
1046.75200 1.94622
1044.70356 1.96086
1042.65512 1.98063
1040.60669 2.00327
1038.55825 2.02546
1036.50981 2.04390
1034.46137 2.05735
1032.41293 2.06912
1030.36449 2.08313
1028.31606 2.09480
1026.26762 2.09948
1024.21918 2.10084
1022.17074 2.10249
1020.12230 2.10407
1018.07386 2.10370
1016.02543 2.10131
1013.97699 2.09830
1011.92855 2.09624
1009.88011 2.09727
1007.83167 2.10247
1005.78323 2.10976
1003.73480 2.11402
1001.68636 2.11484
999.63792 2.11690
997.58948 2.12113
995.54104 2.12569
993.49260 2.13092
991.44417 2.13739
989.39573 2.14309
987.34729 2.14940
985.29885 2.15929
983.25041 2.16857
981.20197 2.17284
979.15354 2.17338
977.10510 2.17196
975.05666 2.17264
973.00822 2.17900
970.95978 2.18881
968.91134 2.20119
966.86290 2.21495
964.81447 2.22465
962.76603 2.22926
960.71759 2.23455
958.66915 2.24344
956.62071 2.25153
954.57227 2.25696
952.52384 2.26243
950.47540 2.26990
948.42696 2.27943
946.37852 2.28867
944.33008 2.29761
942.28164 2.30675
940.23321 2.31372
938.18477 2.32026
936.13633 2.32891
934.08789 2.33801
932.03945 2.34631
929.99101 2.35300
927.94258 2.35808
925.89414 2.36315
923.84570 2.36752
921.79726 2.36867
919.74882 2.36702
917.70038 2.36662
915.65195 2.36840
913.60351 2.36328
911.55507 2.34737
909.50663 2.33014
907.45819 2.31599
905.40975 2.29937
903.36132 2.27498
901.31288 2.24240
899.26444 2.20369
897.21600 2.16335
895.16756 2.12511
893.11912 2.09038
891.07069 2.05951
889.02225 2.03407
886.97381 2.01649
884.92537 2.00530
882.87693 1.99871
880.82849 1.99621
878.78006 1.99726
876.73162 2.00169
874.68318 2.00795
872.63474 2.01373
870.58630 2.01731
868.53786 2.01990
866.48943 2.02469
864.44099 2.03237
862.39255 2.04145
860.34411 2.05292
858.29567 2.06576
856.24723 2.07597
854.19880 2.08381
852.15036 2.08720
850.10192 2.08628
848.05348 2.08613
846.00504 2.08455
843.95660 2.07879
841.90817 2.07076
839.85973 2.05712
837.81129 2.03257
835.76285 1.99937
833.71441 1.96027
831.66597 1.91496
829.61753 1.86461
827.56910 1.81323
825.52066 1.76619
823.47222 1.72814
821.42378 1.70673
819.37534 1.71476
817.32690 1.76123
815.27847 1.83584
813.23003 1.90960
811.18159 1.96592
809.13315 2.01151
807.08471 2.04688
805.03627 2.06640
802.98784 2.07770
800.93940 2.08902
798.89096 2.10355
796.84252 2.12221
794.79408 2.13774
792.74564 2.14202
790.69721 2.13457
788.64877 2.12495
786.60033 2.12149
784.55189 2.12062
782.50345 2.11548
780.45501 2.10441
778.40658 2.09328
776.35814 2.09310
774.30970 2.10608
772.26126 2.12125
770.21282 2.13000
768.16438 2.13389
766.11595 2.14144
764.06751 2.15792
762.01907 2.17577
759.97063 2.18623
757.92219 2.18399
755.87375 2.15604
753.82532 2.10252
751.77688 2.05341
749.72844 2.03179
747.68000 2.03070
745.63156 2.03422
743.58312 2.04085
741.53469 2.05283
739.48625 2.06485
737.43781 2.07055
735.38937 2.06579
733.34093 2.06017
731.29249 2.06495
729.24406 2.06801
727.19562 2.06404
725.14718 2.06617
723.09874 2.07280
721.05030 2.07641
719.00186 2.08024
716.95343 2.08431
714.90499 2.08278
712.85655 2.07431
710.80811 2.06315
708.75967 2.05587
706.71123 2.05290
704.66280 2.05232
702.61436 2.05610
700.56592 2.05873
698.51748 2.05101
696.46904 2.03830
694.42060 2.03609
692.37216 2.04638
690.32373 2.05573
688.27529 2.05579
686.22685 2.05446
684.17841 2.06589
682.12997 2.08224
680.08153 2.07612
678.03310 2.06397
675.98466 2.08042
673.93622 2.09693
671.88778 2.08464
669.83934 2.07437
667.79090 2.07496
665.74247 2.05738
663.69403 2.03959
661.64559 2.03365
659.59715 2.03148
657.54871 2.03246
655.50027 2.04274
653.45184 2.04177
651.40340 2.02131
649.35496 2.01148
647.30652 2.03534
645.25808 2.06983
643.20964 2.06397
641.16121 2.03206
639.11277 2.01800
637.06433 2.01489
635.01589 2.00893
632.96745 2.02183
630.91901 2.05184
628.87058 2.06835
626.82214 2.07957
624.77370 2.09294
622.72526 2.10969
620.67682 2.16549
618.62838 2.23927
616.57995 2.20475
614.53151 2.07586
612.48307 2.01631
610.43463 2.04869
608.38619 2.05867
606.33775 2.01269
604.28932 2.00342
602.24088 2.04765
600.19244 2.07026
598.14400 2.02529
