3996.50324 1.22986
3994.45480 1.23030
3992.40636 1.23034
3990.35792 1.23006
3988.30948 1.22978
3986.26104 1.22967
3984.21261 1.22998
3982.16417 1.23056
3980.11573 1.23060
3978.06729 1.23013
3976.01885 1.23001
3973.97041 1.23023
3971.92198 1.23026
3969.87354 1.22990
3967.82510 1.22927
3965.77666 1.22861
3963.72822 1.22832
3961.67978 1.22874
3959.63135 1.22939
3957.58291 1.22981
3955.53447 1.23030
3953.48603 1.23084
3951.43759 1.23125
3949.38915 1.23184
3947.34072 1.23268
3945.29228 1.23294
3943.24384 1.23323
3941.19540 1.23411
3939.14696 1.23446
3937.09852 1.23461
3935.05009 1.23490
3933.00165 1.23550
3930.95321 1.23674
3928.90477 1.23721
3926.85633 1.23661
3924.80789 1.23639
3922.75946 1.23644
3920.71102 1.23633
3918.66258 1.23733
3916.61414 1.23926
3914.56570 1.23996
3912.51726 1.23941
3910.46883 1.23869
3908.42039 1.23749
3906.37195 1.23665
3904.32351 1.23868
3902.27507 1.24167
3900.22663 1.24240
3898.17820 1.24185
3896.12976 1.24034
3894.08132 1.23911
3892.03288 1.23977
3889.98444 1.24015
3887.93600 1.23885
3885.88756 1.23928
3883.83913 1.24087
3881.79069 1.24101
3879.74225 1.24175
3877.69381 1.24163
3875.64537 1.24104
3873.59693 1.24170
3871.54850 1.24252
3869.50006 1.24371
3867.45162 1.24323
3865.40318 1.24195
3863.35474 1.24243
3861.30630 1.24204
3859.25787 1.24034
3857.20943 1.23877
3855.16099 1.23879
3853.11255 1.24407
3851.06411 1.24596
3849.01567 1.24270
3846.96724 1.24006
3844.91880 1.23956
3842.87036 1.24058
3840.82192 1.24179
3838.77348 1.24403
3836.72504 1.24643
3834.67661 1.24638
3832.62817 1.24611
3830.57973 1.24637
3828.53129 1.24619
3826.48285 1.24629
3824.43441 1.24642
3822.38598 1.24755
3820.33754 1.25079
3818.28910 1.25130
3816.24066 1.25154
3814.19222 1.25228
3812.14378 1.25139
3810.09535 1.25062
3808.04691 1.25182
3805.99847 1.25393
3803.95003 1.25437
3801.90159 1.25660
3799.85315 1.25895
3797.80472 1.25837
3795.75628 1.25855
3793.70784 1.25857
3791.65940 1.25812
3789.61096 1.25848
3787.56252 1.25922
3785.51409 1.26059
3783.46565 1.26219
3781.41721 1.26368
3779.36877 1.26635
3777.32033 1.26810
3775.27189 1.26784
3773.22346 1.26788
3771.17502 1.27012
3769.12658 1.27377
3767.07814 1.27588
3765.02970 1.27697
3762.98126 1.27723
3760.93283 1.27781
3758.88439 1.28087
3756.83595 1.28345
3754.78751 1.28459
3752.73907 1.28821
3750.69063 1.29555
3748.64219 1.29756
3746.59376 1.29596
3744.54532 1.29701
3742.49688 1.29835
3740.44844 1.29833
3738.40000 1.29921
3736.35156 1.30243
3734.30313 1.30598
3732.25469 1.30701
3730.20625 1.30683
3728.15781 1.30792
3726.10937 1.31183
3724.06093 1.31587
3722.01250 1.31821
3719.96406 1.32040
3717.91562 1.32231
3715.86718 1.32305
3713.81874 1.32417
3711.77030 1.32993
3709.72187 1.33786
3707.67343 1.34106
3705.62499 1.34260
3703.57655 1.34583
3701.52811 1.35164
3699.47967 1.35680
3697.43124 1.36104
3695.38280 1.36597
3693.33436 1.37043
3691.28592 1.37536
3689.23748 1.38359
3687.18904 1.39101
3685.14061 1.39497
3683.09217 1.39901
3681.04373 1.40481
3678.99529 1.41125
3676.94685 1.42018
3674.89841 1.43474
3672.84998 1.44420
3670.80154 1.45299
3668.75310 1.46500
3666.70466 1.47230
3664.65622 1.47990
3662.60778 1.49011
3660.55935 1.50070
3658.51091 1.51249
3656.46247 1.52835
3654.41403 1.54116
3652.36559 1.54719
3650.31715 1.55889
3648.26872 1.58538
3646.22028 1.60435
3644.17184 1.61463
3642.12340 1.62551
3640.07496 1.63921
3638.02652 1.65384
3635.97809 1.66853
3633.92965 1.68369
3631.88121 1.69657
3629.83277 1.71197
3627.78433 1.73666
3625.73589 1.75320
3623.68746 1.76547
3621.63902 1.78132
3619.59058 1.80624
3617.54214 1.83508
3615.49370 1.85817
3613.44526 1.88224
3611.39682 1.90355
3609.34839 1.91916
3607.29995 1.93391
3605.25151 1.94170
3603.20307 1.94146
3601.15463 1.93680
3599.10619 1.92919
3597.05776 1.92193
3595.00932 1.91711
3592.96088 1.91654
3590.91244 1.91709
3588.86400 1.91840
3586.81556 1.92474
3584.76713 1.93142
3582.71869 1.93442
3580.67025 1.93777
3578.62181 1.94478
3576.57337 1.95249
3574.52493 1.95913
3572.47650 1.96599
3570.42806 1.97093
3568.37962 1.97519
3566.33118 1.98663
3564.28274 1.99911
3562.23430 2.00703
3560.18587 2.01249
3558.13743 2.01720
3556.08899 2.02399
3554.04055 2.03203
3551.99211 2.03684
3549.94367 2.03671
3547.89524 2.03793
3545.84680 2.04379
3543.79836 2.04879
3541.74992 2.05083
3539.70148 2.05351
3537.65304 2.05606
3535.60461 2.05678
3533.55617 2.05665
3531.50773 2.05612
3529.45929 2.05545
3527.41085 2.05506
3525.36241 2.05535
3523.31398 2.05446
3521.26554 2.05074
3519.21710 2.04783
3517.16866 2.04777
3515.12022 2.04753
3513.07178 2.04813
3511.02335 2.05165
3508.97491 2.05586
3506.92647 2.05717
3504.87803 2.05557
3502.82959 2.05425
3500.78115 2.05566
3498.73272 2.05890
3496.68428 2.06097
3494.63584 2.06121
3492.58740 2.06090
3490.53896 2.06231
3488.49052 2.06576
3486.44209 2.06826
3484.39365 2.06863
3482.34521 2.07009
3480.29677 2.07251
3478.24833 2.07235
3476.19989 2.07192
3474.15146 2.07178
3472.10302 2.07086
3470.05458 2.07347
3468.00614 2.07811
3465.95770 2.07916
3463.90926 2.07775
3461.86082 2.07512
3459.81239 2.07459
3457.76395 2.07889
3455.71551 2.08654
3453.66707 2.09493
3451.61863 2.09949
3449.57019 2.10086
3447.52176 2.10263
3445.47332 2.10459
3443.42488 2.10452
3441.37644 2.10412
3439.32800 2.10734
3437.27956 2.11384
3435.23113 2.11893
3433.18269 2.12061
3431.13425 2.12229
3429.08581 2.12736
3427.03737 2.13568
3424.98893 2.14322
3422.94050 2.14929
3420.89206 2.15405
3418.84362 2.15285
3416.79518 2.14863
3414.74674 2.14931
3412.69830 2.15472
3410.64987 2.16059
3408.60143 2.16602
3406.55299 2.17134
3404.50455 2.17282
3402.45611 2.16907
3400.40767 2.16583
3398.35924 2.16619
3396.31080 2.16884
3394.26236 2.16694
3392.21392 2.15772
3390.16548 2.15086
3388.11704 2.14874
3386.06861 2.14558
3384.02017 2.14218
3381.97173 2.14135
3379.92329 2.14040
3377.87485 2.13623
3375.82641 2.13318
3373.77798 2.13465
3371.72954 2.13411
3369.68110 2.13003
3367.63266 2.12912
3365.58422 2.13158
3363.53578 2.13219
3361.48735 2.12906
3359.43891 2.12516
3357.39047 2.12351
3355.34203 2.12509
3353.29359 2.12692
3351.24515 2.12540
3349.19672 2.12338
3347.14828 2.12311
3345.09984 2.12377
3343.05140 2.12510
3341.00296 2.12547
3338.95452 2.12464
3336.90609 2.12367
3334.85765 2.12264
3332.80921 2.12272
3330.76077 2.12345
3328.71233 2.12209
3326.66389 2.12029
3324.61545 2.12010
3322.56702 2.11930
3320.51858 2.11925
3318.47014 2.12053
3316.42170 2.11892
3314.37326 2.11621
3312.32482 2.11575
3310.27639 2.11716
3308.22795 2.11961
3306.17951 2.11966
3304.13107 2.11835
3302.08263 2.12017
3300.03419 2.12362
3297.98576 2.12441
3295.93732 2.12135
3293.88888 2.11819
3291.84044 2.11977
3289.79200 2.12462
3287.74356 2.12736
3285.69513 2.12689
3283.64669 2.12541
3281.59825 2.12552
3279.54981 2.12748
3277.50137 2.12743
3275.45293 2.12529
3273.40450 2.12659
3271.35606 2.13006
3269.30762 2.13127
3267.25918 2.13175
3265.21074 2.13248
3263.16230 2.13258
3261.11387 2.13265
3259.06543 2.13308
3257.01699 2.13374
3254.96855 2.13521
3252.92011 2.13724
3250.87167 2.13769
3248.82324 2.13736
3246.77480 2.13751
3244.72636 2.13515
3242.67792 2.13192
3240.62948 2.13260
3238.58104 2.13623
3236.53261 2.13877
3234.48417 2.13873
3232.43573 2.13931
3230.38729 2.14043
3228.33885 2.14031
3226.29041 2.14187
3224.24198 2.14482
3222.19354 2.14494
3220.14510 2.14333
3218.09666 2.14379
3216.04822 2.14565
3213.99978 2.14624
3211.95135 2.14550
3209.90291 2.14506
3207.85447 2.14315
3205.80603 2.14027
3203.75759 2.14010
3201.70915 2.14093
3199.66072 2.14084
3197.61228 2.14141
3195.56384 2.14348
3193.51540 2.14497
3191.46696 2.14310
3189.41852 2.13991
3187.37008 2.13818
3185.32165 2.13752
3183.27321 2.13948
3181.22477 2.14211
3179.17633 2.14275
3177.12789 2.14415
3175.07945 2.14578
3173.03102 2.14583
3170.98258 2.14465
3168.93414 2.14286
3166.88570 2.14078
3164.83726 2.13844
3162.78882 2.13885
3160.74039 2.14327
3158.69195 2.14586
3156.64351 2.14440
3154.59507 2.14215
3152.54663 2.13991
3150.49819 2.13970
3148.44976 2.14158
3146.40132 2.14285
3144.35288 2.14249
3142.30444 2.14028
3140.25600 2.13799
3138.20756 2.13682
3136.15913 2.13626
3134.11069 2.13597
3132.06225 2.13533
3130.01381 2.13197
3127.96537 2.12721
3125.91693 2.12679
3123.86850 2.12927
3121.82006 2.13002
3119.77162 2.13052
3117.72318 2.13274
3115.67474 2.13375
3113.62630 2.13014
3111.57787 2.12598
3109.52943 2.12587
3107.48099 2.12578
3105.43255 2.12152
3103.38411 2.11573
3101.33567 2.11257
3099.28724 2.11264
3097.23880 2.11348
3095.19036 2.11289
3093.14192 2.11055
3091.09348 2.10779
3089.04504 2.10565
3086.99661 2.10268
3084.94817 2.09802
3082.89973 2.09589
3080.85129 2.09780
3078.80285 2.09765
3076.75441 2.09264
3074.70598 2.08739
3072.65754 2.08565
3070.60910 2.08526
3068.56066 2.08436
3066.51222 2.08358
3064.46378 2.08183
3062.41535 2.07993
3060.36691 2.07825
3058.31847 2.07449
3056.27003 2.07048
3054.22159 2.06862
3052.17315 2.06660
3050.12471 2.06296
3048.07628 2.05996
3046.02784 2.05754
3043.97940 2.05336
3041.93096 2.04868
3039.88252 2.04498
3037.83408 2.04230
3035.78565 2.04115
3033.73721 2.04110
3031.68877 2.04172
3029.64033 2.04140
3027.59189 2.03820
3025.54345 2.03496
3023.49502 2.03395
3021.44658 2.03229
3019.39814 2.02950
3017.34970 2.02638
3015.30126 2.02295
3013.25282 2.02110
3011.20439 2.02061
3009.15595 2.01931
3007.10751 2.01730
3005.05907 2.01684
3003.01063 2.01737
3000.96219 2.01629
2998.91376 2.01449
2996.86532 2.01369
2994.81688 2.01386
2992.76844 2.01406
2990.72000 2.01372
2988.67156 2.01444
2986.62313 2.01711
2984.57469 2.01856
2982.52625 2.01707
2980.47781 2.01639
2978.42937 2.01909
2976.38093 2.02243
2974.33250 2.02287
2972.28406 2.02217
2970.23562 2.02427
2968.18718 2.02760
2966.13874 2.02969
2964.09030 2.03264
2962.04187 2.03565
2959.99343 2.03592
2957.94499 2.03475
2955.89655 2.03280
2953.84811 2.02949
2951.79967 2.02617
2949.75124 2.02377
2947.70280 2.02124
2945.65436 2.01917
2943.60592 2.02101
2941.55748 2.02642
2939.50904 2.03252
2937.46061 2.03921
2935.41217 2.04626
2933.36373 2.05305
2931.31529 2.05965
2929.26685 2.06440
2927.21841 2.06459
2925.16998 2.06054
2923.12154 2.05486
2921.07310 2.04842
2919.02466 2.04127
2916.97622 2.03493
2914.92778 2.02857
2912.87934 2.02056
2910.83091 2.01289
2908.78247 2.00609
2906.73403 1.99967
2904.68559 1.99526
2902.63715 1.99296
2900.58871 1.99139
2898.54028 1.98926
2896.49184 1.98588
2894.44340 1.98191
2892.39496 1.97816
2890.34652 1.97448
2888.29808 1.97171
2886.24965 1.97075
2884.20121 1.97082
2882.15277 1.97158
2880.10433 1.97354
2878.05589 1.97567
2876.00745 1.97679
2873.95902 1.97761
2871.91058 1.97879
2869.86214 1.98030
2867.81370 1.98098
2865.76526 1.98086
2863.71682 1.98326
2861.66839 1.98911
2859.61995 1.99464
2857.57151 1.99761
2855.52307 1.99862
2853.47463 1.99541
2851.42619 1.98616
2849.37776 1.97352
2847.32932 1.96108
2845.28088 1.95040
2843.23244 1.93997
2841.18400 1.93027
2839.13556 1.92406
2837.08713 1.91998
2835.03869 1.91548
2832.99025 1.91134
2830.94181 1.90793
2828.89337 1.90411
2826.84493 1.90086
2824.79650 1.89870
2822.74806 1.89589
2820.69962 1.89307
2818.65118 1.89135
2816.60274 1.88972
2814.55430 1.88788
2812.50587 1.88646
2810.45743 1.88521
2808.40899 1.88288
2806.36055 1.87901
2804.31211 1.87450
2802.26367 1.87133
2800.21524 1.86970
2798.16680 1.86813
2796.11836 1.86598
2794.06992 1.86340
2792.02148 1.86144
2789.97304 1.86026
2787.92461 1.85870
2785.87617 1.85585
2783.82773 1.85295
2781.77929 1.85111
2779.73085 1.84875
2777.68241 1.84569
2775.63397 1.84345
2773.58554 1.84140
2771.53710 1.83877
2769.48866 1.83659
2767.44022 1.83446
2765.39178 1.83204
2763.34334 1.83049
2761.29491 1.82918
2759.24647 1.82667
2757.19803 1.82364
2755.14959 1.82154
2753.10115 1.82028
2751.05271 1.81940
2749.00428 1.81843
2746.95584 1.81695
2744.90740 1.81570
2742.85896 1.81506
2740.81052 1.81414
2738.76208 1.81248
2736.71365 1.81037
2734.66521 1.80787
2732.61677 1.80586
2730.56833 1.80473
2728.51989 1.80288
2726.47145 1.79968
2724.42302 1.79625
2722.37458 1.79359
2720.32614 1.79187
2718.27770 1.78999
2716.22926 1.78688
2714.18082 1.78361
2712.13239 1.78185
2710.08395 1.78097
2708.03551 1.77880
2705.98707 1.77474
2703.93863 1.77121
2701.89019 1.76986
2699.84176 1.76867
2697.79332 1.76650
2695.74488 1.76460
2693.69644 1.76305
2691.64800 1.76120
2689.59956 1.75872
2687.55113 1.75536
2685.50269 1.75202
2683.45425 1.74967
2681.40581 1.74804
2679.35737 1.74687
2677.30893 1.74607
2675.26050 1.74534
2673.21206 1.74432
2671.16362 1.74281
2669.11518 1.74094
2667.06674 1.73920
2665.01830 1.73761
2662.96987 1.73521
2660.92143 1.73231
2658.87299 1.73051
2656.82455 1.72987
2654.77611 1.72934
2652.72767 1.72850
2650.67924 1.72676
2648.63080 1.72408
2646.58236 1.72184
2644.53392 1.72032
2642.48548 1.71928
2640.43704 1.71796
2638.38860 1.71523
2636.34017 1.71286
2634.29173 1.71158
2632.24329 1.70988
2630.19485 1.70867
2628.14641 1.70842
2626.09797 1.70778
2624.04954 1.70672
2622.00110 1.70520
2619.95266 1.70264
2617.90422 1.70046
2615.85578 1.70011
2613.80734 1.70015
2611.75891 1.69955
2609.71047 1.69876
2607.66203 1.69817
2605.61359 1.69831
2603.56515 1.69892
2601.51671 1.69896
2599.46828 1.69788
2597.41984 1.69647
2595.37140 1.69553
2593.32296 1.69484
2591.27452 1.69420
2589.22608 1.69367
2587.17765 1.69338
2585.12921 1.69340
2583.08077 1.69299
2581.03233 1.69155
2578.98389 1.68973
2576.93545 1.68786
2574.88702 1.68565
2572.83858 1.68364
2570.79014 1.68276
2568.74170 1.68274
2566.69326 1.68250
2564.64482 1.68134
2562.59639 1.67942
2560.54795 1.67744
2558.49951 1.67609
2556.45107 1.67553
2554.40263 1.67454
2552.35419 1.67243
2550.30576 1.67082
2548.25732 1.67064
2546.20888 1.67069
2544.16044 1.66976
2542.11200 1.66830
2540.06356 1.66754
2538.01513 1.66719
2535.96669 1.66694
2533.91825 1.66746
2531.86981 1.66770
2529.82137 1.66699
2527.77293 1.66657
2525.72450 1.66626
2523.67606 1.66583
2521.62762 1.66620
2519.57918 1.66695
2517.53074 1.66714
2515.48230 1.66646
2513.43387 1.66522
2511.38543 1.66393
2509.33699 1.66266
2507.28855 1.66178
2505.24011 1.66118
2503.19167 1.65968
2501.14324 1.65719
2499.09480 1.65474
2497.04636 1.65299
2494.99792 1.65196
2492.94948 1.65127
2490.90104 1.65049
2488.85260 1.64934
2486.80417 1.64753
2484.75573 1.64510
2482.70729 1.64285
2480.65885 1.64158
2478.61041 1.64104
2476.56197 1.64020
2474.51354 1.63902
2472.46510 1.63809
2470.41666 1.63774
2468.36822 1.63829
2466.31978 1.63936
2464.27134 1.64010
2462.22291 1.64013
2460.17447 1.63960
2458.12603 1.63840
2456.07759 1.63692
2454.02915 1.63596
2451.98071 1.63551
2449.93228 1.63544
2447.88384 1.63505
2445.83540 1.63415
2443.78696 1.63367
2441.73852 1.63328
2439.69008 1.63272
2437.64165 1.63276
2435.59321 1.63316
2433.54477 1.63354
2431.49633 1.63411
2429.44789 1.63446
2427.39945 1.63369
2425.35102 1.63227
2423.30258 1.63132
2421.25414 1.63081
2419.20570 1.63032
2417.15726 1.62966
2415.10882 1.62891
2413.06039 1.62795
2411.01195 1.62703
2408.96351 1.62683
2406.91507 1.62712
2404.86663 1.62739
2402.81819 1.62792
2400.76976 1.62889
2398.72132 1.62919
2396.67288 1.62834
2394.62444 1.62720
2392.57600 1.62642
2390.52756 1.62597
2388.47913 1.62539
2386.43069 1.62459
2384.38225 1.62389
2382.33381 1.62311
2380.28537 1.62168
2378.23693 1.61983
2376.18850 1.61821
2374.14006 1.61669
2372.09162 1.61536
2370.04318 1.61471
2367.99474 1.61477
2365.94630 1.61526
2363.89787 1.61408
2361.84943 1.61261
2359.80099 1.61394
2357.75255 1.61409
2355.70411 1.61273
2353.65567 1.61414
2351.60723 1.61718
2349.55880 1.61764
2347.51036 1.61494
2345.46192 1.61231
2343.41348 1.61380
2341.36504 1.61737
2339.31660 1.61745
2337.26817 1.61385
2335.21973 1.61176
2333.17129 1.61250
2331.12285 1.61352
2329.07441 1.61482
2327.02597 1.61616
2324.97754 1.61647
2322.92910 1.61712
2320.88066 1.61913
2318.83222 1.62130
2316.78378 1.62277
2314.73534 1.62345
2312.68691 1.62367
2310.63847 1.62375
2308.59003 1.62410
2306.54159 1.62537
2304.49315 1.62704
2302.44471 1.62820
2300.39628 1.62882
2298.34784 1.62991
2296.29940 1.63203
2294.25096 1.63363
2292.20252 1.63393
2290.15408 1.63405
2288.10565 1.63423
2286.05721 1.63445
2284.00877 1.63535
2281.96033 1.63638
2279.91189 1.63690
2277.86345 1.63743
2275.81502 1.63825
2273.76658 1.63940
2271.71814 1.64115
2269.66970 1.64327
2267.62126 1.64521
2265.57282 1.64672
2263.52439 1.64776
2261.47595 1.64829
2259.42751 1.64822
2257.37907 1.64776
2255.33063 1.64750
2253.28219 1.64773
2251.23376 1.64843
2249.18532 1.64933
2247.13688 1.64985
2245.08844 1.65048
2243.04000 1.65175
2240.99156 1.65256
2238.94313 1.65250
2236.89469 1.65242
2234.84625 1.65289
2232.79781 1.65399
2230.74937 1.65565
2228.70093 1.65743
2226.65250 1.65806
2224.60406 1.65748
2222.55562 1.65758
2220.50718 1.65958
2218.45874 1.66176
2216.41030 1.66252
2214.36186 1.66293
2212.31343 1.66361
2210.26499 1.66431
2208.21655 1.66525
2206.16811 1.66640
2204.11967 1.66762
2202.07123 1.66883
2200.02280 1.66990
2197.97436 1.67106
2195.92592 1.67186
2193.87748 1.67204
2191.82904 1.67255
2189.78060 1.67274
2187.73217 1.67181
2185.68373 1.67119
2183.63529 1.67132
2181.58685 1.67101
2179.53841 1.67004
2177.48997 1.66886
2175.44154 1.66830
2173.39310 1.66860
2171.34466 1.66880
2169.29622 1.66859
2167.24778 1.66839
2165.19934 1.66865
2163.15091 1.66925
2161.10247 1.66956
2159.05403 1.66945
2157.00559 1.66938
2154.95715 1.66974
2152.90871 1.67061
2150.86028 1.67194
2148.81184 1.67303
2146.76340 1.67319
2144.71496 1.67345
2142.66652 1.67453
2140.61808 1.67488
2138.56965 1.67386
2136.52121 1.67290
2134.47277 1.67244
2132.42433 1.67229
2130.37589 1.67298
2128.32745 1.67371
2126.27902 1.67311
2124.23058 1.67202
2122.18214 1.67207
2120.13370 1.67300
2118.08526 1.67392
2116.03682 1.67449
2113.98839 1.67440
2111.93995 1.67373
2109.89151 1.67311
2107.84307 1.67317
2105.79463 1.67394
2103.74619 1.67482
2101.69776 1.67583
2099.64932 1.67772
2097.60088 1.68007
2095.55244 1.68166
2093.50400 1.68253
2091.45556 1.68335
2089.40713 1.68444
2087.35869 1.68606
2085.31025 1.68889
2083.26181 1.69243
2081.21337 1.69511
2079.16493 1.69680
2077.11649 1.69775
2075.06806 1.69772
2073.01962 1.69741
2070.97118 1.69731
2068.92274 1.69720
2066.87430 1.69722
2064.82586 1.69715
2062.77743 1.69656
2060.72899 1.69588
2058.68055 1.69548
2056.63211 1.69493
2054.58367 1.69476
2052.53523 1.69608
2050.48680 1.69778
2048.43836 1.69770
2046.38992 1.69680
2044.34148 1.69702
2042.29304 1.69744
2040.24460 1.69758
2038.19617 1.69737
2036.14773 1.69612
2034.09929 1.69501
2032.05085 1.69555
2030.00241 1.69666
2027.95397 1.69654
2025.90554 1.69559
2023.85710 1.69513
2021.80866 1.69516
2019.76022 1.69519
2017.71178 1.69527
2015.66334 1.69547
2013.61491 1.69564
2011.56647 1.69530
2009.51803 1.69482
2007.46959 1.69504
2005.42115 1.69577
2003.37271 1.69716
2001.32428 1.69878
1999.27584 1.70009
1997.22740 1.70203
1995.17896 1.70430
1993.13052 1.70544
1991.08208 1.70633
1989.03365 1.70845
1986.98521 1.71130
1984.93677 1.71378
1982.88833 1.71538
1980.83989 1.71610
1978.79145 1.71606
1976.74302 1.71605
1974.69458 1.71698
1972.64614 1.71808
1970.59770 1.71782
1968.54926 1.71676
1966.50082 1.71648
1964.45239 1.71669
1962.40395 1.71647
1960.35551 1.71567
1958.30707 1.71505
1956.25863 1.71518
1954.21019 1.71559
1952.16176 1.71625
1950.11332 1.71740
1948.06488 1.71887
1946.01644 1.72044
1943.96800 1.72138
1941.91956 1.72111
1939.87112 1.72019
1937.82269 1.72028
1935.77425 1.72092
1933.72581 1.72077
1931.67737 1.72103
1929.62893 1.72188
1927.58049 1.72237
1925.53206 1.72320
1923.48362 1.72491
1921.43518 1.72632
1919.38674 1.72679
1917.33830 1.72754
1915.28986 1.72867
1913.24143 1.72904
1911.19299 1.72859
1909.14455 1.72781
1907.09611 1.72700
1905.04767 1.72622
1902.99923 1.72564
1900.95080 1.72575
1898.90236 1.72614
1896.85392 1.72684
1894.80548 1.72796
1892.75704 1.72837
1890.70860 1.72887
1888.66017 1.73058
1886.61173 1.73180
1884.56329 1.73205
1882.51485 1.73318
1880.46641 1.73530
1878.41797 1.73702
1876.36954 1.73787
1874.32110 1.73858
1872.27266 1.73980
1870.22422 1.74181
1868.17578 1.74429
1866.12734 1.74561
1864.07891 1.74655
1862.03047 1.74843
1859.98203 1.75091
1857.93359 1.75382
1855.88515 1.75703
1853.83671 1.76014
1851.78828 1.76368
1849.73984 1.76760
1847.69140 1.77092
1845.64296 1.77386
1843.59452 1.77821
1841.54608 1.78265
1839.49765 1.78599
1837.44921 1.78961
1835.40077 1.79322
1833.35233 1.79553
1831.30389 1.79737
1829.25545 1.80169
1827.20702 1.80726
1825.15858 1.81175
1823.11014 1.81609
1821.06170 1.82123
1819.01326 1.82682
1816.96482 1.83094
1814.91639 1.83413
1812.86795 1.83936
1810.81951 1.84746
1808.77107 1.85448
1806.72263 1.85843
1804.67419 1.86171
1802.62575 1.86638
1800.57732 1.87251
1798.52888 1.87667
1796.48044 1.87696
1794.43200 1.87496
1792.38356 1.87257
1790.33512 1.87124
1788.28669 1.87035
1786.23825 1.86926
1784.18981 1.86876
1782.14137 1.86933
1780.09293 1.87045
1778.04449 1.87144
1775.99606 1.87180
1773.94762 1.87288
1771.89918 1.87644
1769.85074 1.87923
1767.80230 1.88130
1765.75386 1.88450
1763.70543 1.88751
1761.65699 1.89153
1759.60855 1.89584
1757.56011 1.89918
1755.51167 1.90419
1753.46323 1.91114
1751.41480 1.92070
1749.36636 1.93191
1747.31792 1.94078
1745.26948 1.94918
1743.22104 1.95838
1741.17260 1.96773
1739.12417 1.97643
1737.07573 1.98104
1735.02729 1.98369
1732.97885 1.99005
1730.93041 1.99528
1728.88197 1.99901
1726.83354 2.00334
1724.78510 2.00876
1722.73666 2.01539
1720.68822 2.02025
1718.63978 2.02412
1716.59134 2.03314
1714.54291 2.04303
1712.49447 2.04953
1710.44603 2.05428
1708.39759 2.05797
1706.34915 2.06315
1704.30071 2.06940
1702.25228 2.07551
1700.20384 2.08751
1698.15540 2.09916
1696.10696 2.10870
1694.05852 2.12416
1692.01008 2.13780
1689.96165 2.15151
1687.91321 2.16298
1685.86477 2.16964
1683.81633 2.18835
1681.76789 2.20980
1679.71945 2.21624
1677.67102 2.21805
1675.62258 2.22445
1673.57414 2.23384
1671.52570 2.23959
1669.47726 2.24869
1667.42882 2.25900
1665.38038 2.26458
1663.33195 2.27191
1661.28351 2.28058
1659.23507 2.28440
1657.18663 2.28436
1655.13819 2.28361
1653.08975 2.29072
1651.04132 2.29665
1648.99288 2.29443
1646.94444 2.29743
1644.89600 2.30541
1642.84756 2.30659
1640.79912 2.30810
1638.75069 2.31446
1636.70225 2.32232
1634.65381 2.32228
1632.60537 2.32028
1630.55693 2.32441
1628.50849 2.33357
1626.46006 2.34208
1624.41162 2.34621
1622.36318 2.34812
1620.31474 2.34785
1618.26630 2.34488
1616.21786 2.33819
1614.16943 2.32796
1612.12099 2.31532
1610.07255 2.30057
1608.02411 2.28638
1605.97567 2.27634
1603.92723 2.26812
1601.87880 2.25512
1599.83036 2.23713
1597.78192 2.21809
1595.73348 2.20045
1593.68504 2.18841
1591.63660 2.18328
1589.58817 2.18046
1587.53973 2.17731
1585.49129 2.17503
1583.44285 2.17365
1581.39441 2.17136
1579.34597 2.16835
1577.29754 2.16534
1575.24910 2.15936
1573.20066 2.15230
1571.15222 2.14767
1569.10378 2.14422
1567.05534 2.13944
1565.00691 2.13522
1562.95847 2.13335
1560.91003 2.13361
1558.86159 2.13651
1556.81315 2.13250
1554.76471 2.12506
1552.71628 2.11911
1550.66784 2.11286
1548.61940 2.10470
1546.57096 2.09708
1544.52252 2.09196
1542.47408 2.08910
1540.42565 2.08240
1538.37721 2.07147
1536.32877 2.06379
1534.28033 2.05716
1532.23189 2.05152
1530.18345 2.04678
1528.13501 2.04165
1526.08658 2.03735
1524.03814 2.03576
1521.98970 2.03485
1519.94126 2.03138
1517.89282 2.02593
1515.84438 2.02072
1513.79595 2.01737
1511.74751 2.01315
1509.69907 2.00573
1507.65063 1.99956
1505.60219 2.00432
1503.55375 2.00735
1501.50532 2.00727
1499.45688 2.00821
1497.40844 2.01328
1495.36000 2.01879
1493.31156 2.02032
1491.26312 2.02124
1489.21469 2.02573
1487.16625 2.03209
1485.11781 2.03665
1483.06937 2.04198
1481.02093 2.05016
1478.97249 2.05979
1476.92406 2.07106
1474.87562 2.08403
1472.82718 2.09919
1470.77874 2.11239
1468.73030 2.11893
1466.68186 2.12536
1464.63343 2.13525
1462.58499 2.14177
1460.53655 2.14313
1458.48811 2.14488
1456.43967 2.14929
1454.39123 2.15134
1452.34280 2.15399
1450.29436 2.15797
1448.24592 2.15952
1446.19748 2.15947
1444.14904 2.16030
1442.10060 2.16031
1440.05217 2.15935
1438.00373 2.15762
1435.95529 2.15427
1433.90685 2.14978
1431.85841 2.14419
1429.80997 2.13647
1427.76154 2.12987
1425.71310 2.12449
1423.66466 2.11815
1421.61622 2.11543
1419.56778 2.11540
1417.51934 2.10870
1415.47091 2.09901
1413.42247 2.09268
1411.37403 2.08922
1409.32559 2.08622
1407.27715 2.08300
1405.22871 2.08034
1403.18028 2.07744
1401.13184 2.07347
1399.08340 2.06912
1397.03496 2.06603
1394.98652 2.06406
1392.93808 2.06221
1390.88965 2.06151
1388.84121 2.06212
1386.79277 2.06369
1384.74433 2.06585
1382.69589 2.06835
1380.64745 2.07186
1378.59901 2.07457
1376.55058 2.07495
1374.50214 2.07806
1372.45370 2.08775
1370.40526 2.10069
1368.35682 2.11606
1366.30838 2.13049
1364.25995 2.13812
1362.21151 2.13440
1360.16307 2.12050
1358.11463 2.10470
1356.06619 2.09314
1354.01775 2.08673
1351.96932 2.08011
1349.92088 2.07245
1347.87244 2.06868
1345.82400 2.06785
1343.77556 2.06650
1341.72712 2.06629
1339.67869 2.06816
1337.63025 2.07035
1335.58181 2.07355
1333.53337 2.07862
1331.48493 2.08491
1329.43649 2.09195
1327.38806 2.10075
1325.33962 2.11233
1323.29118 2.12419
1321.24274 2.13247
1319.19430 2.13445
1317.14586 2.12826
1315.09743 2.11500
1313.04899 2.09883
1311.00055 2.08535
1308.95211 2.07452
1306.90367 2.06438
1304.85523 2.05683
1302.80680 2.05222
1300.75836 2.04994
1298.70992 2.05098
1296.66148 2.05462
1294.61304 2.05837
1292.56460 2.06210
1290.51617 2.06594
1288.46773 2.06876
1286.41929 2.07200
1284.37085 2.07772
1282.32241 2.08462
1280.27397 2.09032
1278.22554 2.09552
1276.17710 2.10228
1274.12866 2.10982
1272.08022 2.11671
1270.03178 2.12543
1267.98334 2.13890
1265.93491 2.15394
1263.88647 2.16356
1261.83803 2.16425
1259.78959 2.15751
1257.74115 2.14910
1255.69271 2.14390
1253.64428 2.14146
1251.59584 2.14054
1249.54740 2.14102
1247.49896 2.14330
1245.45052 2.14668
1243.40208 2.14919
1241.35364 2.15138
1239.30521 2.15576
1237.25677 2.16386
1235.20833 2.17375
1233.15989 2.18242
1231.11145 2.18961
1229.06301 2.19553
1227.01458 2.20172
1224.96614 2.21121
1222.91770 2.22197
1220.86926 2.22951
1218.82082 2.23560
1216.77238 2.24489
1214.72395 2.25784
1212.67551 2.27184
1210.62707 2.28303
1208.57863 2.28960
1206.53019 2.29673
1204.48175 2.30661
1202.43332 2.31589
1200.38488 2.32578
1198.33644 2.33623
1196.28800 2.34468
1194.23956 2.35337
1192.19112 2.36393
1190.14269 2.37387
1188.09425 2.38290
1186.04581 2.39247
1183.99737 2.39934
1181.94893 2.40063
1179.90049 2.40064
1177.85206 2.40273
1175.80362 2.40515
1173.75518 2.40608
1171.70674 2.40347
1169.65830 2.39805
1167.60986 2.39411
1165.56143 2.39155
1163.51299 2.38693
1161.46455 2.38195
1159.41611 2.37924
1157.36767 2.37540
1155.31923 2.36888
1153.27080 2.36373
1151.22236 2.35973
1149.17392 2.35345
1147.12548 2.34719
1145.07704 2.34477
1143.02860 2.34478
1140.98017 2.34329
1138.93173 2.34034
1136.88329 2.33991
1134.83485 2.34067
1132.78641 2.33836
1130.73797 2.33614
1128.68954 2.33677
1126.64110 2.33839
1124.59266 2.33775
1122.54422 2.33148
1120.49578 2.32343
1118.44734 2.31900
1116.39891 2.31704
1114.35047 2.31407
1112.30203 2.31007
1110.25359 2.30643
1108.20515 2.30279
1106.15671 2.30117
1104.10827 2.30148
1102.05984 2.30053
1100.01140 2.29935
1097.96296 2.29942
1095.91452 2.29991
1093.86608 2.29888
1091.81764 2.29774
1089.76921 2.30102
1087.72077 2.30755
1085.67233 2.31594
1083.62389 2.32657
1081.57545 2.33582
1079.52701 2.34085
1077.47858 2.34453
1075.43014 2.35098
1073.38170 2.35858
1071.33326 2.36350
1069.28482 2.36608
1067.23638 2.37069
1065.18795 2.37449
1063.13951 2.37005
1061.09107 2.36470
1059.04263 2.36721
1056.99419 2.37295
1054.94575 2.37672
1052.89732 2.38056
1050.84888 2.38497
1048.80044 2.38598
1046.75200 2.38455
1044.70356 2.38655
1042.65512 2.39477
1040.60669 2.40478
1038.55825 2.41337
1036.50981 2.42366
1034.46137 2.43188
1032.41293 2.43434
1030.36449 2.43828
1028.31606 2.44546
1026.26762 2.44870
1024.21918 2.44368
1022.17074 2.43542
1020.12230 2.43690
1018.07386 2.45059
1016.02543 2.45853
1013.97699 2.45149
1011.92855 2.44517
1009.88011 2.44889
1007.83167 2.45432
1005.78323 2.45605
1003.73480 2.45758
1001.68636 2.45938
999.63792 2.45944
997.58948 2.46141
995.54104 2.46808
993.49260 2.47281
991.44417 2.47150
989.39573 2.46855
987.34729 2.46816
985.29885 2.46963
983.25041 2.46584
981.20197 2.45776
979.15354 2.45528
977.10510 2.45825
975.05666 2.46059
973.00822 2.46095
970.95978 2.46203
968.91134 2.46586
966.86290 2.47149
964.81447 2.47713
962.76603 2.48294
960.71759 2.48864
958.66915 2.48979
956.62071 2.48536
954.57227 2.48005
952.52384 2.48213
950.47540 2.49414
948.42696 2.50468
946.37852 2.50638
944.33008 2.50510
942.28164 2.50740
940.23321 2.51241
938.18477 2.52029
936.13633 2.52975
934.08789 2.53287
932.03945 2.53406
929.99101 2.53896
927.94258 2.54226
925.89414 2.54555
923.84570 2.55200
921.79726 2.55374
919.74882 2.54576
917.70038 2.53607
915.65195 2.53182
913.60351 2.53136
911.55507 2.53254
909.50663 2.53314
907.45819 2.53076
905.40975 2.52851
903.36132 2.52727
901.31288 2.52450
899.26444 2.51660
897.21600 2.50478
895.16756 2.49601
893.11912 2.49020
891.07069 2.48903
889.02225 2.49756
886.97381 2.51178
884.92537 2.51936
882.87693 2.51130
880.82849 2.49761
878.78006 2.49690
876.73162 2.51078
874.68318 2.51942
872.63474 2.51208
870.58630 2.50563
868.53786 2.51615
866.48943 2.53406
864.44099 2.53699
862.39255 2.52822
860.34411 2.52013
858.29567 2.50704
856.24723 2.49005
854.19880 2.47947
852.15036 2.47533
850.10192 2.47134
848.05348 2.46939
846.00504 2.47373
843.95660 2.48116
841.90817 2.48830
839.85973 2.49533
837.81129 2.50246
835.76285 2.50953
833.71441 2.51780
831.66597 2.52139
829.61753 2.51527
827.56910 2.50120
825.52066 2.48275
823.47222 2.47818
821.42378 2.49010
819.37534 2.49338
817.32690 2.48868
815.27847 2.49462
813.23003 2.50914
811.18159 2.52978
809.13315 2.55666
807.08471 2.56698
805.03627 2.55553
802.98784 2.55204
800.93940 2.55834
798.89096 2.56019
796.84252 2.56650
794.79408 2.58300
792.74564 2.59373
790.69721 2.58624
788.64877 2.57263
786.60033 2.57063
784.55189 2.59008
782.50345 2.62167
780.45501 2.63238
778.40658 2.61333
776.35814 2.60044
774.30970 2.61289
772.26126 2.62894
770.21282 2.62811
768.16438 2.61609
766.11595 2.61388
764.06751 2.63668
762.01907 2.66134
759.97063 2.65128
757.92219 2.62547
755.87375 2.62674
753.82532 2.65841
751.77688 2.66894
749.72844 2.64752
747.68000 2.65585
745.63156 2.69801
743.58312 2.72636
741.53469 2.72573
739.48625 2.72162
737.43781 2.73237
735.38937 2.76282
733.34093 2.81521
731.29249 2.84499
729.24406 2.82412
727.19562 2.80906
725.14718 2.82801
723.09874 2.85583
721.05030 2.87339
719.00186 2.88327
716.95343 2.87822
714.90499 2.86541
712.85655 2.84290
710.80811 2.79381
708.75967 2.75606
706.71123 2.75448
704.66280 2.76533
702.61436 2.79438
700.56592 2.86203
698.51748 2.91649
696.46904 2.90735
694.42060 2.87612
692.37216 2.86357
690.32373 2.91061
688.27529 3.00962
686.22685 3.07073
684.17841 3.08706
682.12997 3.10434
680.08153 3.10565
678.03310 3.06880
675.98466 3.00760
673.93622 3.02334
671.88778 3.21536
669.83934 3.81860
667.79090 4.19552
665.74247 3.39371
663.69403 3.24384
661.64559 3.17017
659.59715 3.11805
657.54871 3.12118
655.50027 2.98782
653.45184 2.79002
651.40340 2.67280
649.35496 2.64480
647.30652 2.67363
645.25808 2.68015
643.20964 2.62701
641.16121 2.60673
639.11277 2.67793
637.06433 2.77863
635.01589 2.77322
632.96745 2.67182
630.91901 2.58846
628.87058 2.53398
626.82214 2.51604
624.77370 2.55445
622.72526 2.57359
620.67682 2.55338
618.62838 2.56339
616.57995 2.55868
614.53151 2.52226
612.48307 2.51145
610.43463 2.53497
608.38619 2.53988
606.33775 2.46060
604.28932 2.39409
602.24088 2.35761
600.19244 2.31024
598.14400 2.28623
