3996.50324 1.94449
3994.45480 1.94468
3992.40636 1.94267
3990.35792 1.94026
3988.30948 1.94046
3986.26104 1.94263
3984.21261 1.94462
3982.16417 1.94707
3980.11573 1.94906
3978.06729 1.94745
3976.01885 1.94411
3973.97041 1.94370
3971.92198 1.94497
3969.87354 1.94473
3967.82510 1.94468
3965.77666 1.94557
3963.72822 1.94762
3961.67978 1.95158
3959.63135 1.95383
3957.58291 1.95370
3955.53447 1.95509
3953.48603 1.95750
3951.43759 1.95927
3949.38915 1.96218
3947.34072 1.96461
3945.29228 1.96452
3943.24384 1.96302
3941.19540 1.96123
3939.14696 1.96228
3937.09852 1.96477
3935.05009 1.96396
3933.00165 1.96339
3930.95321 1.96930
3928.90477 1.97312
3926.85633 1.97041
3924.80789 1.97014
3922.75946 1.97445
3920.71102 1.97705
3918.66258 1.97695
3916.61414 1.97700
3914.56570 1.97843
3912.51726 1.98146
3910.46883 1.98506
3908.42039 1.98644
3906.37195 1.98661
3904.32351 1.98849
3902.27507 1.99159
3900.22663 1.99631
3898.17820 1.99889
3896.12976 1.99564
3894.08132 1.99315
3892.03288 1.99625
3889.98444 1.99970
3887.93600 1.99893
3885.88756 1.99914
3883.83913 2.00278
3881.79069 2.00315
3879.74225 2.00152
3877.69381 2.00266
3875.64537 2.00617
3873.59693 2.01271
3871.54850 2.01694
3869.50006 2.01196
3867.45162 2.00386
3865.40318 2.00025
3863.35474 2.00201
3861.30630 2.00159
3859.25787 1.99757
3857.20943 1.99610
3855.16099 1.99897
3853.11255 2.00702
3851.06411 2.00687
3849.01567 1.99916
3846.96724 1.99330
3844.91880 1.99163
3842.87036 1.99488
3840.82192 2.00277
3838.77348 2.01404
3836.72504 2.01978
3834.67661 2.01418
3832.62817 2.00598
3830.57973 2.00220
3828.53129 2.00312
3826.48285 2.00497
3824.43441 2.00504
3822.38598 2.00739
3820.33754 2.01510
3818.28910 2.01912
3816.24066 2.01996
3814.19222 2.01840
3812.14378 2.01603
3810.09535 2.01519
3808.04691 2.01487
3805.99847 2.01361
3803.95003 2.01309
3801.90159 2.01709
3799.85315 2.02108
3797.80472 2.02162
3795.75628 2.02325
3793.70784 2.02272
3791.65940 2.01977
3789.61096 2.01895
3787.56252 2.02160
3785.51409 2.02625
3783.46565 2.02880
3781.41721 2.02836
3779.36877 2.02884
3777.32033 2.02912
3775.27189 2.02884
3773.22346 2.02925
3771.17502 2.03103
3769.12658 2.03826
3767.07814 2.04645
3765.02970 2.04773
3762.98126 2.04447
3760.93283 2.04308
3758.88439 2.04684
3756.83595 2.05134
3754.78751 2.05362
3752.73907 2.05761
3750.69063 2.06366
3748.64219 2.06686
3746.59376 2.06869
3744.54532 2.06429
3742.49688 2.05825
3740.44844 2.06130
3738.40000 2.06994
3736.35156 2.08116
3734.30313 2.08796
3732.25469 2.08594
3730.20625 2.08102
3728.15781 2.07892
3726.10937 2.08453
3724.06093 2.09138
3722.01250 2.08957
3719.96406 2.08479
3717.91562 2.08537
3715.86718 2.09180
3713.81874 2.10130
3711.77030 2.11267
3709.72187 2.11473
3707.67343 2.10758
3705.62499 2.10357
3703.57655 2.10546
3701.52811 2.11152
3699.47967 2.11472
3697.43124 2.11471
3695.38280 2.11641
3693.33436 2.12018
3691.28592 2.12480
3689.23748 2.12403
3687.18904 2.11930
3685.14061 2.11949
3683.09217 2.12076
3681.04373 2.12413
3678.99529 2.13190
3676.94685 2.14071
3674.89841 2.14592
3672.84998 2.14368
3670.80154 2.14448
3668.75310 2.15077
3666.70466 2.14887
3664.65622 2.14357
3662.60778 2.14132
3660.55935 2.14181
3658.51091 2.14551
3656.46247 2.15162
3654.41403 2.15526
3652.36559 2.15848
3650.31715 2.16351
3648.26872 2.16829
3646.22028 2.17256
3644.17184 2.17175
3642.12340 2.17018
3640.07496 2.17542
3638.02652 2.18397
3635.97809 2.18969
3633.92965 2.19315
3631.88121 2.19862
3629.83277 2.21002
3627.78433 2.21975
3625.73589 2.22206
3623.68746 2.22417
3621.63902 2.22747
3619.59058 2.23417
3617.54214 2.23976
3615.49370 2.23895
3613.44526 2.23575
3611.39682 2.23580
3609.34839 2.24226
3607.29995 2.24936
3605.25151 2.25054
3603.20307 2.24798
3601.15463 2.24372
3599.10619 2.24450
3597.05776 2.25329
3595.00932 2.26314
3592.96088 2.26989
3590.91244 2.27606
3588.86400 2.28368
3586.81556 2.28822
3584.76713 2.28842
3582.71869 2.28971
3580.67025 2.29253
3578.62181 2.29406
3576.57337 2.29517
3574.52493 2.29993
3572.47650 2.30642
3570.42806 2.31051
3568.37962 2.31279
3566.33118 2.31834
3564.28274 2.32495
3562.23430 2.32790
3560.18587 2.33048
3558.13743 2.33641
3556.08899 2.34375
3554.04055 2.35008
3551.99211 2.35511
3549.94367 2.36000
3547.89524 2.36742
3545.84680 2.37669
3543.79836 2.38289
3541.74992 2.38409
3539.70148 2.38413
3537.65304 2.38670
3535.60461 2.39110
3533.55617 2.39386
3531.50773 2.39550
3529.45929 2.40122
3527.41085 2.41461
3525.36241 2.42637
3523.31398 2.43079
3521.26554 2.43713
3519.21710 2.44485
3517.16866 2.44858
3515.12022 2.44864
3513.07178 2.44559
3511.02335 2.44412
3508.97491 2.45122
3506.92647 2.45893
3504.87803 2.46038
3502.82959 2.46343
3500.78115 2.46696
3498.73272 2.46708
3496.68428 2.46891
3494.63584 2.47249
3492.58740 2.47403
3490.53896 2.47816
3488.49052 2.48570
3486.44209 2.49127
3484.39365 2.49717
3482.34521 2.50505
3480.29677 2.50606
3478.24833 2.49881
3476.19989 2.49607
3474.15146 2.50147
3472.10302 2.50902
3470.05458 2.51332
3468.00614 2.51373
3465.95770 2.51406
3463.90926 2.51797
3461.86082 2.52615
3459.81239 2.53309
3457.76395 2.53647
3455.71551 2.54250
3453.66707 2.55070
3451.61863 2.55248
3449.57019 2.55641
3447.52176 2.57757
3445.47332 2.59861
3443.42488 2.59541
3441.37644 2.59139
3439.32800 2.60539
3437.27956 2.61241
3435.23113 2.60556
3433.18269 2.60539
3431.13425 2.61071
3429.08581 2.61279
3427.03737 2.61580
3424.98893 2.62600
3422.94050 2.63010
3420.89206 2.60739
3418.84362 2.57459
3416.79518 2.54841
3414.74674 2.52574
3412.69830 2.51349
3410.64987 2.50807
3408.60143 2.49844
3406.55299 2.48890
3404.50455 2.48178
3402.45611 2.47619
3400.40767 2.47588
3398.35924 2.47850
3396.31080 2.47964
3394.26236 2.48253
3392.21392 2.48717
3390.16548 2.48937
3388.11704 2.49079
3386.06861 2.49041
3384.02017 2.49379
3381.97173 2.50927
3379.92329 2.52085
3377.87485 2.51811
3375.82641 2.51280
3373.77798 2.51179
3371.72954 2.51840
3369.68110 2.52824
3367.63266 2.53456
3365.58422 2.54083
3363.53578 2.54511
3361.48735 2.54478
3359.43891 2.54350
3357.39047 2.54470
3355.34203 2.55355
3353.29359 2.56309
3351.24515 2.56138
3349.19672 2.55179
3347.14828 2.54426
3345.09984 2.54421
3343.05140 2.55072
3341.00296 2.56018
3338.95452 2.56753
3336.90609 2.57108
3334.85765 2.56856
3332.80921 2.55355
3330.76077 2.53353
3328.71233 2.52199
3326.66389 2.51297
3324.61545 2.49705
3322.56702 2.48608
3320.51858 2.48539
3318.47014 2.47623
3316.42170 2.45312
3314.37326 2.43473
3312.32482 2.42665
3310.27639 2.42073
3308.22795 2.41371
3306.17951 2.40803
3304.13107 2.40803
3302.08263 2.41163
3300.03419 2.41382
3297.98576 2.41498
3295.93732 2.41921
3293.88888 2.42450
3291.84044 2.41924
3289.79200 2.40729
3287.74356 2.40390
3285.69513 2.40445
3283.64669 2.40043
3281.59825 2.39602
3279.54981 2.39365
3277.50137 2.39597
3275.45293 2.40277
3273.40450 2.40524
3271.35606 2.40191
3269.30762 2.39822
3267.25918 2.39524
3265.21074 2.39311
3263.16230 2.39277
3261.11387 2.39442
3259.06543 2.39720
3257.01699 2.39793
3254.96855 2.39643
3252.92011 2.39617
3250.87167 2.39618
3248.82324 2.39381
3246.77480 2.39211
3244.72636 2.39004
3242.67792 2.38220
3240.62948 2.37602
3238.58104 2.38079
3236.53261 2.38881
3234.48417 2.38783
3232.43573 2.38216
3230.38729 2.37941
3228.33885 2.37826
3226.29041 2.37991
3224.24198 2.38181
3222.19354 2.37623
3220.14510 2.36948
3218.09666 2.37152
3216.04822 2.37691
3213.99978 2.37732
3211.95135 2.37246
3209.90291 2.36800
3207.85447 2.36811
3205.80603 2.36777
3203.75759 2.36161
3201.70915 2.35496
3199.66072 2.35553
3197.61228 2.35754
3195.56384 2.35316
3193.51540 2.34839
3191.46696 2.34747
3189.41852 2.34853
3187.37008 2.35004
3185.32165 2.35020
3183.27321 2.34851
3181.22477 2.34469
3179.17633 2.34066
3177.12789 2.33757
3175.07945 2.33376
3173.03102 2.33181
3170.98258 2.33327
3168.93414 2.33462
3166.88570 2.33419
3164.83726 2.33433
3162.78882 2.33720
3160.74039 2.33831
3158.69195 2.33067
3156.64351 2.32111
3154.59507 2.32043
3152.54663 2.32459
3150.49819 2.32427
3148.44976 2.31893
3146.40132 2.31469
3144.35288 2.31083
3142.30444 2.30546
3140.25600 2.30442
3138.20756 2.30792
3136.15913 2.31153
3134.11069 2.31316
3132.06225 2.31066
3130.01381 2.30660
3127.96537 2.30492
3125.91693 2.30295
3123.86850 2.30004
3121.82006 2.30105
3119.77162 2.30647
3117.72318 2.31010
3115.67474 2.30733
3113.62630 2.30248
3111.57787 2.30192
3109.52943 2.30584
3107.48099 2.30992
3105.43255 2.30894
3103.38411 2.30422
3101.33567 2.30316
3099.28724 2.30277
3097.23880 2.29655
3095.19036 2.29058
3093.14192 2.28921
3091.09348 2.29041
3089.04504 2.29206
3086.99661 2.29182
3084.94817 2.29038
3082.89973 2.28917
3080.85129 2.28804
3078.80285 2.28719
3076.75441 2.28745
3074.70598 2.28849
3072.65754 2.28743
3070.60910 2.28329
3068.56066 2.27907
3066.51222 2.27854
3064.46378 2.28177
3062.41535 2.28321
3060.36691 2.28009
3058.31847 2.27545
3056.27003 2.27085
3054.22159 2.26607
3052.17315 2.26267
3050.12471 2.26267
3048.07628 2.26508
3046.02784 2.26509
3043.97940 2.26089
3041.93096 2.25863
3039.88252 2.26118
3037.83408 2.26212
3035.78565 2.25930
3033.73721 2.25711
3031.68877 2.25522
3029.64033 2.25218
3027.59189 2.25032
3025.54345 2.24996
3023.49502 2.25010
3021.44658 2.24940
3019.39814 2.24644
3017.34970 2.24516
3015.30126 2.24790
3013.25282 2.24919
3011.20439 2.24757
3009.15595 2.24636
3007.10751 2.24675
3005.05907 2.24730
3003.01063 2.24381
3000.96219 2.23875
2998.91376 2.24012
2996.86532 2.24752
2994.81688 2.25372
2992.76844 2.25433
2990.72000 2.25032
2988.67156 2.24689
2986.62313 2.24838
2984.57469 2.25308
2982.52625 2.25490
2980.47781 2.25280
2978.42937 2.25299
2976.38093 2.25586
2974.33250 2.25377
2972.28406 2.24646
2970.23562 2.24425
2968.18718 2.24893
2966.13874 2.25319
2964.09030 2.25424
2962.04187 2.25113
2959.99343 2.24749
2957.94499 2.24962
2955.89655 2.25466
2953.84811 2.25545
2951.79967 2.25236
2949.75124 2.24922
2947.70280 2.24794
2945.65436 2.24904
2943.60592 2.24915
2941.55748 2.24681
2939.50904 2.24677
2937.46061 2.25091
2935.41217 2.25478
2933.36373 2.25519
2931.31529 2.25301
2929.26685 2.25028
2927.21841 2.25095
2925.16998 2.25518
2923.12154 2.25626
2921.07310 2.25536
2919.02466 2.25805
2916.97622 2.26285
2914.92778 2.26712
2912.87934 2.26607
2910.83091 2.25974
2908.78247 2.25394
2906.73403 2.24952
2904.68559 2.24688
2902.63715 2.24664
2900.58871 2.24641
2898.54028 2.24452
2896.49184 2.24188
2894.44340 2.23959
2892.39496 2.23961
2890.34652 2.24244
2888.29808 2.24387
2886.24965 2.24219
2884.20121 2.24079
2882.15277 2.24152
2880.10433 2.24163
2878.05589 2.23843
2876.00745 2.23603
2873.95902 2.23841
2871.91058 2.24081
2869.86214 2.24073
2867.81370 2.24065
2865.76526 2.23954
2863.71682 2.23823
2861.66839 2.23849
2859.61995 2.23878
2857.57151 2.23820
2855.52307 2.23588
2853.47463 2.23270
2851.42619 2.23150
2849.37776 2.23114
2847.32932 2.22865
2845.28088 2.22545
2843.23244 2.22501
2841.18400 2.22772
2839.13556 2.23231
2837.08713 2.23594
2835.03869 2.23412
2832.99025 2.22943
2830.94181 2.22925
2828.89337 2.23206
2826.84493 2.23129
2824.79650 2.22652
2822.74806 2.22294
2820.69962 2.22480
2818.65118 2.22813
2816.60274 2.22922
2814.55430 2.23054
2812.50587 2.23097
2810.45743 2.23191
2808.40899 2.23698
2806.36055 2.24158
2804.31211 2.24217
2802.26367 2.23974
2800.21524 2.23543
2798.16680 2.23351
2796.11836 2.23481
2794.06992 2.23456
2792.02148 2.23158
2789.97304 2.22812
2787.92461 2.22606
2785.87617 2.22552
2783.82773 2.22600
2781.77929 2.22725
2779.73085 2.22785
2777.68241 2.22669
2775.63397 2.22436
2773.58554 2.22349
2771.53710 2.22480
2769.48866 2.22477
2767.44022 2.22269
2765.39178 2.22115
2763.34334 2.22038
2761.29491 2.22062
2759.24647 2.22364
2757.19803 2.22730
2755.14959 2.22786
2753.10115 2.22627
2751.05271 2.22540
2749.00428 2.22631
2746.95584 2.22759
2744.90740 2.22750
2742.85896 2.22609
2740.81052 2.22515
2738.76208 2.22655
2736.71365 2.22805
2734.66521 2.22758
2732.61677 2.22736
2730.56833 2.22776
2728.51989 2.22753
2726.47145 2.22687
2724.42302 2.22674
2722.37458 2.22858
2720.32614 2.23106
2718.27770 2.23062
2716.22926 2.22740
2714.18082 2.22482
2712.13239 2.22401
2710.08395 2.22453
2708.03551 2.22643
2705.98707 2.22780
2703.93863 2.22760
2701.89019 2.22686
2699.84176 2.22528
2697.79332 2.22355
2695.74488 2.22390
2693.69644 2.22622
2691.64800 2.22883
2689.59956 2.23057
2687.55113 2.23073
2685.50269 2.22990
2683.45425 2.22927
2681.40581 2.22823
2679.35737 2.22682
2677.30893 2.22800
2675.26050 2.23107
2673.21206 2.23207
2671.16362 2.23295
2669.11518 2.23519
2667.06674 2.23482
2665.01830 2.23184
2662.96987 2.23007
2660.92143 2.22941
2658.87299 2.22799
2656.82455 2.22862
2654.77611 2.23299
2652.72767 2.23814
2650.67924 2.24118
2648.63080 2.23970
2646.58236 2.23592
2644.53392 2.23438
2642.48548 2.23430
2640.43704 2.23364
2638.38860 2.23309
2636.34017 2.23363
2634.29173 2.23377
2632.24329 2.23287
2630.19485 2.23322
2628.14641 2.23553
2626.09797 2.23892
2624.04954 2.24360
2622.00110 2.24768
2619.95266 2.24654
2617.90422 2.24247
2615.85578 2.24204
2613.80734 2.24382
2611.75891 2.24504
2609.71047 2.24573
2607.66203 2.24516
2605.61359 2.24574
2603.56515 2.24742
2601.51671 2.24801
2599.46828 2.25038
2597.41984 2.25483
2595.37140 2.25760
2593.32296 2.25858
2591.27452 2.25842
2589.22608 2.25832
2587.17765 2.26092
2585.12921 2.26420
2583.08077 2.26664
2581.03233 2.26802
2578.98389 2.26755
2576.93545 2.26779
2574.88702 2.26758
2572.83858 2.26623
2570.79014 2.26723
2568.74170 2.26866
2566.69326 2.26984
2564.64482 2.27350
2562.59639 2.27714
2560.54795 2.27991
2558.49951 2.28208
2556.45107 2.28150
2554.40263 2.28147
2552.35419 2.28470
2550.30576 2.28689
2548.25732 2.28603
2546.20888 2.28764
2544.16044 2.29353
2542.11200 2.29671
2540.06356 2.29329
2538.01513 2.28789
2535.96669 2.28557
2533.91825 2.28820
2531.86981 2.29439
2529.82137 2.29810
2527.77293 2.29615
2525.72450 2.29295
2523.67606 2.29269
2521.62762 2.29385
2519.57918 2.29290
2517.53074 2.29197
2515.48230 2.29428
2513.43387 2.29449
2511.38543 2.28799
2509.33699 2.28216
2507.28855 2.28258
2505.24011 2.28478
2503.19167 2.28490
2501.14324 2.28344
2499.09480 2.28296
2497.04636 2.28512
2494.99792 2.28684
2492.94948 2.28482
2490.90104 2.28033
2488.85260 2.27766
2486.80417 2.27813
2484.75573 2.27963
2482.70729 2.28293
2480.65885 2.28725
2478.61041 2.28844
2476.56197 2.28604
2474.51354 2.28315
2472.46510 2.28314
2470.41666 2.28483
2468.36822 2.28470
2466.31978 2.28493
2464.27134 2.28836
2462.22291 2.29270
2460.17447 2.29554
2458.12603 2.29635
2456.07759 2.29580
2454.02915 2.29512
2451.98071 2.29546
2449.93228 2.29817
2447.88384 2.30209
2445.83540 2.30340
2443.78696 2.30183
2441.73852 2.30171
2439.69008 2.30381
2437.64165 2.30463
2435.59321 2.30352
2433.54477 2.30296
2431.49633 2.30611
2429.44789 2.31243
2427.39945 2.31731
2425.35102 2.31746
2423.30258 2.31366
2421.25414 2.31103
2419.20570 2.31123
2417.15726 2.31064
2415.10882 2.30970
2413.06039 2.30912
2411.01195 2.30765
2408.96351 2.30600
2406.91507 2.30583
2404.86663 2.30798
2402.81819 2.30801
2400.76976 2.30482
2398.72132 2.30344
2396.67288 2.30326
2394.62444 2.30138
2392.57600 2.29789
2390.52756 2.29402
2388.47913 2.29086
2386.43069 2.28936
2384.38225 2.29006
2382.33381 2.29121
2380.28537 2.29024
2378.23693 2.28709
2376.18850 2.28233
2374.14006 2.27700
2372.09162 2.27655
2370.04318 2.27855
2367.99474 2.27304
2365.94630 2.26318
2363.89787 2.25090
2361.84943 2.23387
2359.80099 2.22539
2357.75255 2.23211
2355.70411 2.24547
2353.65567 2.26021
2351.60723 2.27364
2349.55880 2.28400
2347.51036 2.28926
2345.46192 2.28449
2343.41348 2.27183
2341.36504 2.26679
2339.31660 2.27120
2337.26817 2.27599
2335.21973 2.27455
2333.17129 2.26810
2331.12285 2.27097
2329.07441 2.28265
2327.02597 2.28326
2324.97754 2.27668
2322.92910 2.27628
2320.88066 2.27392
2318.83222 2.26805
2316.78378 2.27035
2314.73534 2.27623
2312.68691 2.27399
2310.63847 2.26832
2308.59003 2.26974
2306.54159 2.27448
2304.49315 2.27658
2302.44471 2.27935
2300.39628 2.28403
2298.34784 2.28738
2296.29940 2.28773
2294.25096 2.28563
2292.20252 2.28410
2290.15408 2.28768
2288.10565 2.29451
2286.05721 2.29705
2284.00877 2.29478
2281.96033 2.29304
2279.91189 2.29322
2277.86345 2.29357
2275.81502 2.29339
2273.76658 2.29271
2271.71814 2.29172
2269.66970 2.29078
2267.62126 2.29086
2265.57282 2.29378
2263.52439 2.29857
2261.47595 2.30167
2259.42751 2.30039
2257.37907 2.29760
2255.33063 2.29758
2253.28219 2.29857
2251.23376 2.29964
2249.18532 2.30201
2247.13688 2.30482
2245.08844 2.30566
2243.04000 2.30499
2240.99156 2.30628
2238.94313 2.30754
2236.89469 2.30426
2234.84625 2.30023
2232.79781 2.30315
2230.74937 2.31191
2228.70093 2.31845
2226.65250 2.31937
2224.60406 2.31853
2222.55562 2.31809
2220.50718 2.31559
2218.45874 2.31216
2216.41030 2.31105
2214.36186 2.31186
2212.31343 2.31396
2210.26499 2.31816
2208.21655 2.32287
2206.16811 2.32466
2204.11967 2.32437
2202.07123 2.32676
2200.02280 2.33146
2197.97436 2.33200
2195.92592 2.32770
2193.87748 2.32501
2191.82904 2.32470
2189.78060 2.32476
2187.73217 2.32620
2185.68373 2.32933
2183.63529 2.33334
2181.58685 2.33532
2179.53841 2.33528
2177.48997 2.33370
2175.44154 2.33115
2173.39310 2.33416
2171.34466 2.34114
2169.29622 2.34447
2167.24778 2.34725
2165.19934 2.35215
2163.15091 2.35272
2161.10247 2.34901
2159.05403 2.34807
2157.00559 2.34816
2154.95715 2.34533
2152.90871 2.34309
2150.86028 2.34366
2148.81184 2.34461
2146.76340 2.34320
2144.71496 2.34238
2142.66652 2.34597
2140.61808 2.35007
2138.56965 2.35233
2136.52121 2.35372
2134.47277 2.35341
2132.42433 2.35206
2130.37589 2.35222
2128.32745 2.35610
2126.27902 2.36032
2124.23058 2.36018
2122.18214 2.36050
2120.13370 2.36305
2118.08526 2.36099
2116.03682 2.35721
2113.98839 2.35854
2111.93995 2.36188
2109.89151 2.36214
2107.84307 2.35993
2105.79463 2.36086
2103.74619 2.36710
2101.69776 2.37175
2099.64932 2.37358
2097.60088 2.37851
2095.55244 2.38220
2093.50400 2.37970
2091.45556 2.37441
2089.40713 2.37186
2087.35869 2.37576
2085.31025 2.38374
2083.26181 2.39093
2081.21337 2.39518
2079.16493 2.39861
2077.11649 2.40144
2075.06806 2.40190
2073.01962 2.40191
2070.97118 2.40115
2068.92274 2.39691
2066.87430 2.38984
2064.82586 2.38298
2062.77743 2.37924
2060.72899 2.37890
2058.68055 2.37857
2056.63211 2.37649
2054.58367 2.37552
2052.53523 2.37557
2050.48680 2.37529
2048.43836 2.37556
2046.38992 2.37605
2044.34148 2.37616
2042.29304 2.37484
2040.24460 2.37376
2038.19617 2.37526
2036.14773 2.37774
2034.09929 2.37907
2032.05085 2.37850
2030.00241 2.37734
2027.95397 2.37707
2025.90554 2.37753
2023.85710 2.37851
2021.80866 2.38108
2019.76022 2.38429
2017.71178 2.38360
2015.66334 2.37954
2013.61491 2.37906
2011.56647 2.38122
2009.51803 2.38246
2007.46959 2.38649
2005.42115 2.39130
2003.37271 2.39148
2001.32428 2.38878
1999.27584 2.38726
1997.22740 2.38793
1995.17896 2.38790
1993.13052 2.38698
1991.08208 2.38829
1989.03365 2.39276
1986.98521 2.39631
1984.93677 2.39549
1982.88833 2.39417
1980.83989 2.39674
1978.79145 2.40114
1976.74302 2.40156
1974.69458 2.39795
1972.64614 2.39646
1970.59770 2.39884
1968.54926 2.40174
1966.50082 2.40266
1964.45239 2.40248
1962.40395 2.40306
1960.35551 2.40383
1958.30707 2.40576
1956.25863 2.40917
1954.21019 2.41083
1952.16176 2.41282
1950.11332 2.41390
1948.06488 2.41266
1946.01644 2.41559
1943.96800 2.41891
1941.91956 2.41703
1939.87112 2.41549
1937.82269 2.41564
1935.77425 2.41555
1933.72581 2.41672
1931.67737 2.41940
1929.62893 2.42037
1927.58049 2.41965
1925.53206 2.42104
1923.48362 2.42484
1921.43518 2.42538
1919.38674 2.42176
1917.33830 2.42205
1915.28986 2.42921
1913.24143 2.43385
1911.19299 2.43149
1909.14455 2.42886
1907.09611 2.42916
1905.04767 2.42750
1902.99923 2.42276
1900.95080 2.41992
1898.90236 2.42111
1896.85392 2.42337
1894.80548 2.42477
1892.75704 2.42531
1890.70860 2.42765
1888.66017 2.43353
1886.61173 2.43898
1884.56329 2.44274
1882.51485 2.44456
1880.46641 2.44545
1878.41797 2.44739
1876.36954 2.44749
1874.32110 2.44538
1872.27266 2.44431
1870.22422 2.44654
1868.17578 2.45038
1866.12734 2.45407
1864.07891 2.46155
1862.03047 2.47056
1859.98203 2.47332
1857.93359 2.47101
1855.88515 2.47257
1853.83671 2.47786
1851.78828 2.48362
1849.73984 2.49024
1847.69140 2.49256
1845.64296 2.48860
1843.59452 2.48993
1841.54608 2.49769
1839.49765 2.50252
1837.44921 2.50670
1835.40077 2.51015
1833.35233 2.50790
1831.30389 2.50468
1829.25545 2.50568
1827.20702 2.50575
1825.15858 2.50839
1823.11014 2.51831
1821.06170 2.52582
1819.01326 2.52894
1816.96482 2.53544
1814.91639 2.54146
1812.86795 2.54266
1810.81951 2.54814
1808.77107 2.55820
1806.72263 2.56495
1804.67419 2.57047
1802.62575 2.57499
1800.57732 2.56982
1798.52888 2.56004
1796.48044 2.55394
1794.43200 2.54362
1792.38356 2.53214
1790.33512 2.53555
1788.28669 2.54810
1786.23825 2.55806
1784.18981 2.56346
1782.14137 2.56952
1780.09293 2.57357
1778.04449 2.57417
1775.99606 2.57665
1773.94762 2.57787
1771.89918 2.57774
1769.85074 2.58242
1767.80230 2.59001
1765.75386 2.59354
1763.70543 2.59007
1761.65699 2.58812
1759.60855 2.59061
1757.56011 2.59091
1755.51167 2.59288
1753.46323 2.59999
1751.41480 2.60758
1749.36636 2.61221
1747.31792 2.61203
1745.26948 2.60312
1743.22104 2.59507
1741.17260 2.60089
1739.12417 2.61304
1737.07573 2.61319
1735.02729 2.60816
1732.97885 2.61880
1730.93041 2.62819
1728.88197 2.62716
1726.83354 2.62948
1724.78510 2.63880
1722.73666 2.64649
1720.68822 2.64353
1718.63978 2.63807
1716.59134 2.64838
1714.54291 2.65962
1712.49447 2.65925
1710.44603 2.65695
1708.39759 2.65618
1706.34915 2.66466
1704.30071 2.68485
1702.25228 2.69483
1700.20384 2.68364
1698.15540 2.67537
1696.10696 2.69218
1694.05852 2.71153
1692.01008 2.71655
1689.96165 2.71775
1687.91321 2.71570
1685.86477 2.71216
1683.81633 2.73463
1681.76789 2.75565
1679.71945 2.74817
1677.67102 2.74228
1675.62258 2.75041
1673.57414 2.75705
1671.52570 2.75699
1669.47726 2.76833
1667.42882 2.78647
1665.38038 2.79614
1663.33195 2.80189
1661.28351 2.80341
1659.23507 2.79537
1657.18663 2.78104
1655.13819 2.76333
1653.08975 2.77755
1651.04132 2.82410
1648.99288 2.83438
1646.94444 2.81507
1644.89600 2.79688
1642.84756 2.80594
1640.79912 2.82601
1638.75069 2.84033
1636.70225 2.84947
1634.65381 2.85436
1632.60537 2.85285
1630.55693 2.85860
1628.50849 2.87080
1626.46006 2.87996
1624.41162 2.88090
1622.36318 2.86861
1620.31474 2.85331
1618.26630 2.85622
1616.21786 2.88952
1614.16943 2.91526
1612.12099 2.92154
1610.07255 2.93019
1608.02411 2.94114
1605.97567 2.93949
1603.92723 2.93838
1601.87880 2.95448
1599.83036 2.97234
1597.78192 2.97381
1595.73348 2.96905
1593.68504 2.97012
1591.63660 2.98236
1589.58817 3.01138
1587.53973 3.03759
1585.49129 3.04385
1583.44285 3.03528
1581.39441 3.02988
1579.34597 3.05059
1577.29754 3.09744
1575.24910 3.11984
1573.20066 3.11150
1571.15222 3.10242
1569.10378 3.07857
1567.05534 3.05631
1565.00691 3.04698
1562.95847 3.04653
1560.91003 3.02069
1558.86159 2.89414
1556.81315 2.82649
1554.76471 2.82079
1552.71628 2.78835
1550.66784 2.73090
1548.61940 2.67047
1546.57096 2.62421
1544.52252 2.58091
1542.47408 2.53122
1540.42565 2.44341
1538.37721 2.36355
1536.32877 2.33627
1534.28033 2.31239
1532.23189 2.27819
1530.18345 2.25430
1528.13501 2.23701
1526.08658 2.21804
1524.03814 2.20180
1521.98970 2.18704
1519.94126 2.17620
1517.89282 2.16944
1515.84438 2.16065
1513.79595 2.15458
1511.74751 2.15430
1509.69907 2.15862
1507.65063 2.16816
1505.60219 2.17570
1503.55375 2.17889
1501.50532 2.18507
1499.45688 2.19565
1497.40844 2.21081
1495.36000 2.22689
1493.31156 2.24043
1491.26312 2.25842
1489.21469 2.28576
1487.16625 2.30844
1485.11781 2.32750
1483.06937 2.35184
1481.02093 2.38141
1478.97249 2.40939
1476.92406 2.43623
1474.87562 2.46873
1472.82718 2.50534
1470.77874 2.53164
1468.73030 2.55006
1466.68186 2.57448
1464.63343 2.60434
1462.58499 2.62213
1460.53655 2.63418
1458.48811 2.65851
1456.43967 2.69760
1454.39123 2.71875
1452.34280 2.73067
1450.29436 2.74407
1448.24592 2.75556
1446.19748 2.75500
1444.14904 2.74013
1442.10060 2.70697
1440.05217 2.65533
1438.00373 2.57913
1435.95529 2.47870
1433.90685 2.40707
1431.85841 2.35731
1429.80997 2.30276
1427.76154 2.24927
1425.71310 2.19986
1423.66466 2.14648
1421.61622 2.09650
1419.56778 2.04016
1417.51934 1.97596
1415.47091 1.93336
1413.42247 1.90282
1411.37403 1.87384
1409.32559 1.84843
1407.27715 1.83039
1405.22871 1.81789
1403.18028 1.80989
1401.13184 1.80665
1399.08340 1.80859
1397.03496 1.81541
1394.98652 1.82532
1392.93808 1.83719
1390.88965 1.85057
1388.84121 1.86852
1386.79277 1.89279
1384.74433 1.91757
1382.69589 1.94151
1380.64745 1.96827
1378.59901 1.99645
1376.55058 2.02539
1374.50214 2.05762
1372.45370 2.08592
1370.40526 2.10493
1368.35682 2.12244
1366.30838 2.13788
1364.25995 2.15021
1362.21151 2.16530
1360.16307 2.18005
1358.11463 2.19117
1356.06619 2.20201
1354.01775 2.21365
1351.96932 2.22409
1349.92088 2.23376
1347.87244 2.24359
1345.82400 2.25364
1343.77556 2.26222
1341.72712 2.26803
1339.67869 2.27365
1337.63025 2.28098
1335.58181 2.28789
1333.53337 2.29384
1331.48493 2.30170
1329.43649 2.31107
1327.38806 2.31850
1325.33962 2.32343
1323.29118 2.32699
1321.24274 2.32909
1319.19430 2.33068
1317.14586 2.33499
1315.09743 2.34054
1313.04899 2.34460
1311.00055 2.34830
1308.95211 2.34865
1306.90367 2.34648
1304.85523 2.35004
1302.80680 2.35733
1300.75836 2.36250
1298.70992 2.36662
1296.66148 2.36791
1294.61304 2.36584
1292.56460 2.36669
1290.51617 2.37020
1288.46773 2.37277
1286.41929 2.37829
1284.37085 2.38610
1282.32241 2.39113
1280.27397 2.39540
1278.22554 2.40038
1276.17710 2.40324
1274.12866 2.40390
1272.08022 2.40508
1270.03178 2.40801
1267.98334 2.41271
1265.93491 2.41863
1263.88647 2.42378
1261.83803 2.42763
1259.78959 2.43236
1257.74115 2.43934
1255.69271 2.44590
1253.64428 2.44968
1251.59584 2.45094
1249.54740 2.45078
1247.49896 2.45124
1245.45052 2.45541
1243.40208 2.46255
1241.35364 2.46647
1239.30521 2.46788
1237.25677 2.47127
1235.20833 2.47778
1233.15989 2.48688
1231.11145 2.49247
1229.06301 2.49233
1227.01458 2.49434
1224.96614 2.50208
1222.91770 2.51060
1220.86926 2.51771
1218.82082 2.52166
1216.77238 2.52092
1214.72395 2.51917
1212.67551 2.51646
1210.62707 2.51299
1208.57863 2.51529
1206.53019 2.52525
1204.48175 2.53380
1202.43332 2.53392
1200.38488 2.53034
1198.33644 2.52845
1196.28800 2.52893
1194.23956 2.53061
1192.19112 2.53473
1190.14269 2.54210
1188.09425 2.54645
1186.04581 2.54856
1183.99737 2.55577
1181.94893 2.56264
1179.90049 2.56274
1177.85206 2.56043
1175.80362 2.56095
1173.75518 2.56699
1171.70674 2.57585
1169.65830 2.58341
1167.60986 2.58667
1165.56143 2.58305
1163.51299 2.58021
1161.46455 2.58559
1159.41611 2.59226
1157.36767 2.59033
1155.31923 2.58545
1153.27080 2.58955
1151.22236 2.60265
1149.17392 2.61566
1147.12548 2.61730
1145.07704 2.60851
1143.02860 2.60419
1140.98017 2.61240
1138.93173 2.62606
1136.88329 2.63599
1134.83485 2.64623
1132.78641 2.66105
1130.73797 2.67521
1128.68954 2.68683
1126.64110 2.69836
1124.59266 2.70852
1122.54422 2.71261
1120.49578 2.71624
1118.44734 2.72842
1116.39891 2.74075
1114.35047 2.74466
1112.30203 2.74704
1110.25359 2.75555
1108.20515 2.76661
1106.15671 2.77281
1104.10827 2.77246
1102.05984 2.75841
1100.01140 2.71174
1097.96296 2.63963
1095.91452 2.58538
1093.86608 2.57188
1091.81764 2.59048
1089.76921 2.62665
1087.72077 2.66832
1085.67233 2.70667
1083.62389 2.74096
1081.57545 2.77426
1079.52701 2.80163
1077.47858 2.82484
1075.43014 2.85025
1073.38170 2.86338
1071.33326 2.86483
1069.28482 2.85970
1067.23638 2.80702
1065.18795 2.68994
1063.13951 2.55357
1061.09107 2.43040
1059.04263 2.33004
1056.99419 2.25724
1054.94575 2.20648
1052.89732 2.17011
1050.84888 2.15138
1048.80044 2.15185
1046.75200 2.16509
1044.70356 2.18673
1042.65512 2.21613
1040.60669 2.24934
1038.55825 2.28056
1036.50981 2.31005
1034.46137 2.33861
1032.41293 2.36346
1030.36449 2.38432
1028.31606 2.40143
1026.26762 2.41663
1024.21918 2.43301
1022.17074 2.44683
1020.12230 2.45471
1018.07386 2.46140
1016.02543 2.47040
1013.97699 2.48257
1011.92855 2.49669
1009.88011 2.50515
1007.83167 2.50707
1005.78323 2.51151
1003.73480 2.52074
1001.68636 2.53195
999.63792 2.54267
997.58948 2.55228
995.54104 2.56339
993.49260 2.57467
991.44417 2.58192
989.39573 2.58479
987.34729 2.58833
985.29885 2.59644
983.25041 2.60745
981.20197 2.61658
979.15354 2.62270
977.10510 2.63105
975.05666 2.63952
973.00822 2.64286
970.95978 2.64577
968.91134 2.65122
966.86290 2.65963
964.81447 2.66978
962.76603 2.67323
960.71759 2.67239
958.66915 2.67259
956.62071 2.67038
954.57227 2.67150
952.52384 2.68360
950.47540 2.70564
948.42696 2.73109
946.37852 2.75060
944.33008 2.76506
942.28164 2.78177
940.23321 2.79164
938.18477 2.78624
936.13633 2.77803
934.08789 2.78330
932.03945 2.80772
929.99101 2.84496
927.94258 2.87688
925.89414 2.88405
923.84570 2.87923
921.79726 2.88008
919.74882 2.87852
917.70038 2.87118
915.65195 2.86845
913.60351 2.87140
911.55507 2.86781
909.50663 2.85398
907.45819 2.82704
905.40975 2.77110
903.36132 2.68392
901.31288 2.58947
899.26444 2.50670
897.21600 2.43753
895.16756 2.37697
893.11912 2.31934
891.07069 2.26754
889.02225 2.23069
886.97381 2.21037
884.92537 2.20061
882.87693 2.19617
880.82849 2.19542
878.78006 2.19841
876.73162 2.20413
874.68318 2.21279
872.63474 2.22681
870.58630 2.24887
868.53786 2.27705
866.48943 2.29855
864.44099 2.30665
862.39255 2.31735
860.34411 2.33979
858.29567 2.35979
856.24723 2.37510
854.19880 2.39812
852.15036 2.42415
850.10192 2.44043
848.05348 2.44546
846.00504 2.44589
843.95660 2.44607
841.90817 2.44239
839.85973 2.43009
837.81129 2.40527
835.76285 2.35254
833.71441 2.26118
831.66597 2.14884
829.61753 2.04334
827.56910 1.96263
825.52066 1.91307
823.47222 1.89438
821.42378 1.91047
819.37534 1.97506
817.32690 2.09067
815.27847 2.22112
813.23003 2.31448
811.18159 2.36963
809.13315 2.41685
807.08471 2.46254
805.03627 2.49508
802.98784 2.51499
800.93940 2.52717
798.89096 2.52154
796.84252 2.51643
794.79408 2.53619
792.74564 2.55860
790.69721 2.57020
788.64877 2.58348
786.60033 2.58966
784.55189 2.57896
782.50345 2.56056
780.45501 2.54288
778.40658 2.53673
776.35814 2.54293
774.30970 2.54125
772.26126 2.53551
770.21282 2.54774
768.16438 2.58108
766.11595 2.61586
764.06751 2.62389
762.01907 2.62404
759.97063 2.64260
757.92219 2.64018
755.87375 2.58131
753.82532 2.49500
751.77688 2.42512
749.72844 2.39025
747.68000 2.37709
745.63156 2.37483
743.58312 2.38744
741.53469 2.40718
739.48625 2.42591
737.43781 2.44305
735.38937 2.44899
733.34093 2.44991
731.29249 2.46364
729.24406 2.48238
727.19562 2.49374
725.14718 2.50067
723.09874 2.50006
721.05030 2.49449
719.00186 2.50126
716.95343 2.52201
714.90499 2.52825
712.85655 2.49989
710.80811 2.47851
708.75967 2.49937
706.71123 2.52795
704.66280 2.52864
702.61436 2.51810
700.56592 2.50092
698.51748 2.48342
696.46904 2.49241
694.42060 2.53934
692.37216 2.59721
690.32373 2.59082
688.27529 2.55693
686.22685 2.58406
684.17841 2.63469
682.12997 2.64445
680.08153 2.60765
678.03310 2.55229
675.98466 2.52898
673.93622 2.55387
671.88778 2.56891
669.83934 2.53434
667.79090 2.51236
665.74247 2.52739
663.69403 2.52898
661.64559 2.54095
659.59715 2.56765
657.54871 2.56787
655.50027 2.55933
653.45184 2.54941
651.40340 2.55203
649.35496 2.58493
647.30652 2.59503
645.25808 2.56904
643.20964 2.50765
641.16121 2.46480
639.11277 2.51063
637.06433 2.59655
635.01589 2.62930
632.96745 2.63101
630.91901 2.62023
628.87058 2.56649
626.82214 2.53331
624.77370 2.54132
622.72526 2.53747
620.67682 2.55686
618.62838 2.56760
616.57995 2.55517
614.53151 2.62029
612.48307 2.65747
610.43463 2.47554
608.38619 2.29456
606.33775 2.22770
604.28932 2.23023
602.24088 2.30884
600.19244 2.51193
598.14400 2.72623
