3996.50324 1.86326
3994.45480 1.86376
3992.40636 1.86284
3990.35792 1.86284
3988.30948 1.86404
3986.26104 1.86471
3984.21261 1.86457
3982.16417 1.86565
3980.11573 1.86789
3978.06729 1.86889
3976.01885 1.86890
3973.97041 1.86954
3971.92198 1.87086
3969.87354 1.87060
3967.82510 1.86907
3965.77666 1.86987
3963.72822 1.87186
3961.67978 1.87223
3959.63135 1.87168
3957.58291 1.87132
3955.53447 1.87134
3953.48603 1.87142
3951.43759 1.87059
3949.38915 1.87014
3947.34072 1.87179
3945.29228 1.87340
3943.24384 1.87497
3941.19540 1.87718
3939.14696 1.87966
3937.09852 1.88158
3935.05009 1.88233
3933.00165 1.88520
3930.95321 1.88858
3928.90477 1.88829
3926.85633 1.88879
3924.80789 1.89277
3922.75946 1.89642
3920.71102 1.89645
3918.66258 1.89424
3916.61414 1.89463
3914.56570 1.89936
3912.51726 1.90361
3910.46883 1.90471
3908.42039 1.90376
3906.37195 1.90364
3904.32351 1.90800
3902.27507 1.91503
3900.22663 1.91795
3898.17820 1.91715
3896.12976 1.91399
3894.08132 1.91008
3892.03288 1.90948
3889.98444 1.91158
3887.93600 1.91267
3885.88756 1.91666
3883.83913 1.92159
3881.79069 1.92089
3879.74225 1.91800
3877.69381 1.91608
3875.64537 1.91623
3873.59693 1.91880
3871.54850 1.92029
3869.50006 1.91958
3867.45162 1.91778
3865.40318 1.91705
3863.35474 1.91867
3861.30630 1.91799
3859.25787 1.91431
3857.20943 1.91063
3855.16099 1.90908
3853.11255 1.91615
3851.06411 1.92058
3849.01567 1.91597
3846.96724 1.91120
3844.91880 1.90944
3842.87036 1.90923
3840.82192 1.90815
3838.77348 1.90903
3836.72504 1.91318
3834.67661 1.91888
3832.62817 1.92383
3830.57973 1.92324
3828.53129 1.92049
3826.48285 1.91922
3824.43441 1.91666
3822.38598 1.91605
3820.33754 1.92262
3818.28910 1.92528
3816.24066 1.92444
3814.19222 1.92687
3812.14378 1.92862
3810.09535 1.92671
3808.04691 1.92499
3805.99847 1.92695
3803.95003 1.92759
3801.90159 1.92988
3799.85315 1.93288
3797.80472 1.93172
3795.75628 1.93176
3793.70784 1.93144
3791.65940 1.92916
3789.61096 1.92736
3787.56252 1.92742
3785.51409 1.93006
3783.46565 1.93297
3781.41721 1.93568
3779.36877 1.94030
3777.32033 1.94043
3775.27189 1.93734
3773.22346 1.93860
3771.17502 1.94431
3769.12658 1.95068
3767.07814 1.95330
3765.02970 1.95218
3762.98126 1.95049
3760.93283 1.95228
3758.88439 1.95912
3756.83595 1.96445
3754.78751 1.96563
3752.73907 1.96518
3750.69063 1.96657
3748.64219 1.97143
3746.59376 1.97481
3744.54532 1.98205
3742.49688 1.98862
3740.44844 1.98703
3738.40000 1.98649
3736.35156 1.99246
3734.30313 1.99817
3732.25469 1.99899
3730.20625 1.99880
3728.15781 1.99914
3726.10937 2.00113
3724.06093 2.00500
3722.01250 2.00881
3719.96406 2.01111
3717.91562 2.01299
3715.86718 2.01615
3713.81874 2.02326
3711.77030 2.03432
3709.72187 2.03722
3707.67343 2.03455
3705.62499 2.03320
3703.57655 2.03376
3701.52811 2.04130
3699.47967 2.05117
3697.43124 2.05607
3695.38280 2.05750
3693.33436 2.05679
3691.28592 2.05753
3689.23748 2.06164
3687.18904 2.05988
3685.14061 2.05470
3683.09217 2.05367
3681.04373 2.05716
3678.99529 2.06363
3676.94685 2.07106
3674.89841 2.07244
3672.84998 2.07125
3670.80154 2.07727
3668.75310 2.08522
3666.70466 2.08570
3664.65622 2.08556
3662.60778 2.08853
3660.55935 2.09329
3658.51091 2.09815
3656.46247 2.10328
3654.41403 2.10780
3652.36559 2.11442
3650.31715 2.13183
3648.26872 2.14872
3646.22028 2.14124
3644.17184 2.13017
3642.12340 2.12636
3640.07496 2.12955
3638.02652 2.13455
3635.97809 2.14039
3633.92965 2.14904
3631.88121 2.15865
3629.83277 2.16959
3627.78433 2.18107
3625.73589 2.18557
3623.68746 2.18960
3621.63902 2.19710
3619.59058 2.20555
3617.54214 2.20645
3615.49370 2.20423
3613.44526 2.20807
3611.39682 2.21469
3609.34839 2.21725
3607.29995 2.21499
3605.25151 2.21287
3603.20307 2.21621
3601.15463 2.22438
3599.10619 2.23167
3597.05776 2.23806
3595.00932 2.24379
3592.96088 2.24451
3590.91244 2.24454
3588.86400 2.25026
3586.81556 2.25953
3584.76713 2.26010
3582.71869 2.25095
3580.67025 2.24192
3578.62181 2.24480
3576.57337 2.25935
3574.52493 2.27229
3572.47650 2.27621
3570.42806 2.27852
3568.37962 2.28435
3566.33118 2.29152
3564.28274 2.29679
3562.23430 2.30135
3560.18587 2.30825
3558.13743 2.31318
3556.08899 2.31250
3554.04055 2.31385
3551.99211 2.32343
3549.94367 2.33438
3547.89524 2.34142
3545.84680 2.34745
3543.79836 2.35035
3541.74992 2.34862
3539.70148 2.35115
3537.65304 2.36013
3535.60461 2.36365
3533.55617 2.35753
3531.50773 2.35046
3529.45929 2.35054
3527.41085 2.35957
3525.36241 2.36899
3523.31398 2.37589
3521.26554 2.38323
3519.21710 2.38857
3517.16866 2.39337
3515.12022 2.39819
3513.07178 2.40066
3511.02335 2.39904
3508.97491 2.39527
3506.92647 2.39728
3504.87803 2.40391
3502.82959 2.40772
3500.78115 2.40538
3498.73272 2.40450
3496.68428 2.41251
3494.63584 2.42396
3492.58740 2.43069
3490.53896 2.43209
3488.49052 2.42942
3486.44209 2.42643
3484.39365 2.43176
3482.34521 2.44502
3480.29677 2.45440
3478.24833 2.45488
3476.19989 2.45254
3474.15146 2.45499
3472.10302 2.46249
3470.05458 2.46814
3468.00614 2.47024
3465.95770 2.47271
3463.90926 2.48006
3461.86082 2.49238
3459.81239 2.50303
3457.76395 2.51248
3455.71551 2.52128
3453.66707 2.52162
3451.61863 2.51989
3449.57019 2.52565
3447.52176 2.53400
3445.47332 2.53794
3443.42488 2.53090
3441.37644 2.51673
3439.32800 2.51544
3437.27956 2.53376
3435.23113 2.55353
3433.18269 2.56096
3431.13425 2.56416
3429.08581 2.57099
3427.03737 2.58026
3424.98893 2.58297
3422.94050 2.57469
3420.89206 2.56628
3418.84362 2.56143
3416.79518 2.55617
3414.74674 2.54697
3412.69830 2.52962
3410.64987 2.51051
3408.60143 2.49717
3406.55299 2.48935
3404.50455 2.48882
3402.45611 2.49177
3400.40767 2.48630
3398.35924 2.47870
3396.31080 2.48142
3394.26236 2.48651
3392.21392 2.48818
3390.16548 2.49001
3388.11704 2.49133
3386.06861 2.49518
3384.02017 2.50075
3381.97173 2.50431
3379.92329 2.50978
3377.87485 2.51287
3375.82641 2.50765
3373.77798 2.50000
3371.72954 2.49764
3369.68110 2.50693
3367.63266 2.52308
3365.58422 2.53272
3363.53578 2.53393
3361.48735 2.53175
3359.43891 2.52889
3357.39047 2.52517
3355.34203 2.52496
3353.29359 2.53298
3351.24515 2.53845
3349.19672 2.53449
3347.14828 2.53174
3345.09984 2.53193
3343.05140 2.52318
3341.00296 2.50950
3338.95452 2.50800
3336.90609 2.51467
3334.85765 2.50889
3332.80921 2.49357
3330.76077 2.48414
3328.71233 2.47607
3326.66389 2.46437
3324.61545 2.45206
3322.56702 2.43844
3320.51858 2.42428
3318.47014 2.41228
3316.42170 2.40438
3314.37326 2.39652
3312.32482 2.38593
3310.27639 2.37483
3308.22795 2.36648
3306.17951 2.36706
3304.13107 2.37108
3302.08263 2.36877
3300.03419 2.36570
3297.98576 2.36615
3295.93732 2.36581
3293.88888 2.36516
3291.84044 2.36230
3289.79200 2.35638
3287.74356 2.35741
3285.69513 2.36480
3283.64669 2.36821
3281.59825 2.36999
3279.54981 2.37671
3277.50137 2.38015
3275.45293 2.37321
3273.40450 2.36679
3271.35606 2.36550
3269.30762 2.36247
3267.25918 2.35704
3265.21074 2.35245
3263.16230 2.35091
3261.11387 2.35224
3259.06543 2.35354
3257.01699 2.35338
3254.96855 2.35004
3252.92011 2.34612
3250.87167 2.35050
3248.82324 2.36322
3246.77480 2.36970
3244.72636 2.36180
3242.67792 2.35491
3240.62948 2.35703
3238.58104 2.35737
3236.53261 2.35443
3234.48417 2.35558
3232.43573 2.36115
3230.38729 2.36516
3228.33885 2.36369
3226.29041 2.35972
3224.24198 2.35490
3222.19354 2.34951
3220.14510 2.34701
3218.09666 2.34548
3216.04822 2.34149
3213.99978 2.33855
3211.95135 2.34005
3209.90291 2.34425
3207.85447 2.34614
3205.80603 2.34355
3203.75759 2.34095
3201.70915 2.34157
3199.66072 2.33963
3197.61228 2.33272
3195.56384 2.32940
3193.51540 2.32991
3191.46696 2.32770
3189.41852 2.32556
3187.37008 2.32447
3185.32165 2.32145
3183.27321 2.32024
3181.22477 2.32146
3179.17633 2.32201
3177.12789 2.32041
3175.07945 2.31575
3173.03102 2.31225
3170.98258 2.31086
3168.93414 2.30843
3166.88570 2.30632
3164.83726 2.30400
3162.78882 2.29948
3160.74039 2.29548
3158.69195 2.29536
3156.64351 2.29656
3154.59507 2.29489
3152.54663 2.29009
3150.49819 2.28397
3148.44976 2.27994
3146.40132 2.27906
3144.35288 2.27986
3142.30444 2.28100
3140.25600 2.28134
3138.20756 2.28206
3136.15913 2.28292
3134.11069 2.27984
3132.06225 2.27361
3130.01381 2.27145
3127.96537 2.27398
3125.91693 2.27404
3123.86850 2.27026
3121.82006 2.26761
3119.77162 2.26850
3117.72318 2.27084
3115.67474 2.27135
3113.62630 2.27189
3111.57787 2.27363
3109.52943 2.27239
3107.48099 2.26872
3105.43255 2.26599
3103.38411 2.26362
3101.33567 2.26002
3099.28724 2.25584
3097.23880 2.25484
3095.19036 2.25791
3093.14192 2.26022
3091.09348 2.25794
3089.04504 2.25270
3086.99661 2.24881
3084.94817 2.24778
3082.89973 2.24889
3080.85129 2.25239
3078.80285 2.25594
3076.75441 2.25521
3074.70598 2.25200
3072.65754 2.25075
3070.60910 2.25064
3068.56066 2.24823
3066.51222 2.24524
3064.46378 2.24428
3062.41535 2.24317
3060.36691 2.24273
3058.31847 2.24309
3056.27003 2.23967
3054.22159 2.23489
3052.17315 2.23356
3050.12471 2.23238
3048.07628 2.22974
3046.02784 2.22788
3043.97940 2.22637
3041.93096 2.22574
3039.88252 2.22474
3037.83408 2.22191
3035.78565 2.21950
3033.73721 2.21964
3031.68877 2.22189
3029.64033 2.22281
3027.59189 2.22300
3025.54345 2.22520
3023.49502 2.22752
3021.44658 2.22699
3019.39814 2.22341
3017.34970 2.21889
3015.30126 2.21615
3013.25282 2.21640
3011.20439 2.21716
3009.15595 2.21618
3007.10751 2.21381
3005.05907 2.21220
3003.01063 2.21502
3000.96219 2.22043
2998.91376 2.22297
2996.86532 2.22342
2994.81688 2.22211
2992.76844 2.21868
2990.72000 2.21773
2988.67156 2.21750
2986.62313 2.21517
2984.57469 2.21481
2982.52625 2.21520
2980.47781 2.21297
2978.42937 2.21039
2976.38093 2.20997
2974.33250 2.21046
2972.28406 2.21117
2970.23562 2.21379
2968.18718 2.21781
2966.13874 2.22050
2964.09030 2.22050
2962.04187 2.21963
2959.99343 2.21948
2957.94499 2.22040
2955.89655 2.22149
2953.84811 2.21957
2951.79967 2.21591
2949.75124 2.21404
2947.70280 2.21258
2945.65436 2.21246
2943.60592 2.21561
2941.55748 2.21951
2939.50904 2.22273
2937.46061 2.22196
2935.41217 2.21909
2933.36373 2.21998
2931.31529 2.21996
2929.26685 2.21868
2927.21841 2.22117
2925.16998 2.22302
2923.12154 2.22127
2921.07310 2.21858
2919.02466 2.21604
2916.97622 2.21853
2914.92778 2.22651
2912.87934 2.22916
2910.83091 2.22408
2908.78247 2.21906
2906.73403 2.21742
2904.68559 2.21735
2902.63715 2.21668
2900.58871 2.21340
2898.54028 2.20852
2896.49184 2.20738
2894.44340 2.21122
2892.39496 2.21522
2890.34652 2.21410
2888.29808 2.20965
2886.24965 2.20876
2884.20121 2.20913
2882.15277 2.20586
2880.10433 2.20382
2878.05589 2.20413
2876.00745 2.20263
2873.95902 2.20015
2871.91058 2.19848
2869.86214 2.19976
2867.81370 2.20350
2865.76526 2.20478
2863.71682 2.20316
2861.66839 2.20287
2859.61995 2.20497
2857.57151 2.20597
2855.52307 2.20548
2853.47463 2.20674
2851.42619 2.20840
2849.37776 2.20697
2847.32932 2.20456
2845.28088 2.20419
2843.23244 2.20432
2841.18400 2.20384
2839.13556 2.20324
2837.08713 2.20270
2835.03869 2.20228
2832.99025 2.20159
2830.94181 2.20028
2828.89337 2.19992
2826.84493 2.20133
2824.79650 2.20304
2822.74806 2.20525
2820.69962 2.20822
2818.65118 2.21107
2816.60274 2.21151
2814.55430 2.20834
2812.50587 2.20559
2810.45743 2.20560
2808.40899 2.20591
2806.36055 2.20559
2804.31211 2.20588
2802.26367 2.20574
2800.21524 2.20406
2798.16680 2.20207
2796.11836 2.20182
2794.06992 2.20177
2792.02148 2.19834
2789.97304 2.19479
2787.92461 2.19387
2785.87617 2.19319
2783.82773 2.19227
2781.77929 2.19075
2779.73085 2.18780
2777.68241 2.18562
2775.63397 2.18471
2773.58554 2.18503
2771.53710 2.18728
2769.48866 2.18688
2767.44022 2.18280
2765.39178 2.17969
2763.34334 2.17899
2761.29491 2.18008
2759.24647 2.18172
2757.19803 2.18187
2755.14959 2.17943
2753.10115 2.17741
2751.05271 2.17775
2749.00428 2.17943
2746.95584 2.18333
2744.90740 2.18678
2742.85896 2.18460
2740.81052 2.17844
2738.76208 2.17512
2736.71365 2.17664
2734.66521 2.17950
2732.61677 2.18208
2730.56833 2.18409
2728.51989 2.18553
2726.47145 2.18586
2724.42302 2.18503
2722.37458 2.18573
2720.32614 2.18665
2718.27770 2.18368
2716.22926 2.17998
2714.18082 2.18020
2712.13239 2.18145
2710.08395 2.18143
2708.03551 2.18226
2705.98707 2.18289
2703.93863 2.18241
2701.89019 2.18241
2699.84176 2.18273
2697.79332 2.18339
2695.74488 2.18337
2693.69644 2.18142
2691.64800 2.18007
2689.59956 2.18114
2687.55113 2.18359
2685.50269 2.18628
2683.45425 2.18748
2681.40581 2.18535
2679.35737 2.18109
2677.30893 2.17660
2675.26050 2.17399
2673.21206 2.17388
2671.16362 2.17436
2669.11518 2.17552
2667.06674 2.17581
2665.01830 2.17331
2662.96987 2.17125
2660.92143 2.17101
2658.87299 2.17083
2656.82455 2.17161
2654.77611 2.17273
2652.72767 2.17291
2650.67924 2.17405
2648.63080 2.17602
2646.58236 2.17601
2644.53392 2.17404
2642.48548 2.17361
2640.43704 2.17433
2638.38860 2.17346
2636.34017 2.17291
2634.29173 2.17393
2632.24329 2.17519
2630.19485 2.17665
2628.14641 2.17773
2626.09797 2.17733
2624.04954 2.17716
2622.00110 2.17896
2619.95266 2.18102
2617.90422 2.18204
2615.85578 2.18331
2613.80734 2.18370
2611.75891 2.18285
2609.71047 2.18344
2607.66203 2.18406
2605.61359 2.18344
2603.56515 2.18330
2601.51671 2.18356
2599.46828 2.18445
2597.41984 2.18745
2595.37140 2.19065
2593.32296 2.19174
2591.27452 2.19367
2589.22608 2.19692
2587.17765 2.19803
2585.12921 2.19831
2583.08077 2.19986
2581.03233 2.20137
2578.98389 2.20327
2576.93545 2.20731
2574.88702 2.21152
2572.83858 2.21288
2570.79014 2.21362
2568.74170 2.21620
2566.69326 2.21875
2564.64482 2.21953
2562.59639 2.21927
2560.54795 2.22077
2558.49951 2.22449
2556.45107 2.22703
2554.40263 2.22656
2552.35419 2.22668
2550.30576 2.23013
2548.25732 2.23384
2546.20888 2.23553
2544.16044 2.23696
2542.11200 2.23898
2540.06356 2.23870
2538.01513 2.23531
2535.96669 2.23323
2533.91825 2.23537
2531.86981 2.23791
2529.82137 2.23678
2527.77293 2.23566
2525.72450 2.23625
2523.67606 2.23532
2521.62762 2.23396
2519.57918 2.23355
2517.53074 2.23283
2515.48230 2.23137
2513.43387 2.22962
2511.38543 2.22793
2509.33699 2.22594
2507.28855 2.22428
2505.24011 2.22421
2503.19167 2.22490
2501.14324 2.22468
2499.09480 2.22317
2497.04636 2.22015
2494.99792 2.21673
2492.94948 2.21648
2490.90104 2.21988
2488.85260 2.22226
2486.80417 2.22031
2484.75573 2.21621
2482.70729 2.21494
2480.65885 2.21711
2478.61041 2.21769
2476.56197 2.21642
2474.51354 2.21674
2472.46510 2.21677
2470.41666 2.21428
2468.36822 2.21211
2466.31978 2.21275
2464.27134 2.21488
2462.22291 2.21672
2460.17447 2.21767
2458.12603 2.21815
2456.07759 2.21864
2454.02915 2.21853
2451.98071 2.21767
2449.93228 2.21817
2447.88384 2.22113
2445.83540 2.22398
2443.78696 2.22472
2441.73852 2.22416
2439.69008 2.22479
2437.64165 2.22697
2435.59321 2.22902
2433.54477 2.23275
2431.49633 2.23828
2429.44789 2.24158
2427.39945 2.24195
2425.35102 2.24045
2423.30258 2.23912
2421.25414 2.24114
2419.20570 2.24296
2417.15726 2.23915
2415.10882 2.23292
2413.06039 2.23033
2411.01195 2.23131
2408.96351 2.23239
2406.91507 2.23163
2404.86663 2.22821
2402.81819 2.22427
2400.76976 2.22279
2398.72132 2.22194
2396.67288 2.21996
2394.62444 2.21892
2392.57600 2.21759
2390.52756 2.21405
2388.47913 2.21055
2386.43069 2.20793
2384.38225 2.20569
2382.33381 2.20375
2380.28537 2.20022
2378.23693 2.19725
2376.18850 2.19930
2374.14006 2.20023
2372.09162 2.19582
2370.04318 2.19465
2367.99474 2.19914
2365.94630 2.20354
2363.89787 2.20613
2361.84943 2.20352
2359.80099 2.18818
2357.75255 2.17573
2355.70411 2.17655
2353.65567 2.17715
2351.60723 2.17648
2349.55880 2.17752
2347.51036 2.17894
2345.46192 2.17945
2343.41348 2.17721
2341.36504 2.17536
2339.31660 2.17528
2337.26817 2.17248
2335.21973 2.17119
2333.17129 2.17166
2331.12285 2.16829
2329.07441 2.16793
2327.02597 2.17002
2324.97754 2.17037
2322.92910 2.17303
2320.88066 2.17408
2318.83222 2.17281
2316.78378 2.17415
2314.73534 2.17620
2312.68691 2.17603
2310.63847 2.17330
2308.59003 2.17094
2306.54159 2.17279
2304.49315 2.17519
2302.44471 2.17335
2300.39628 2.17292
2298.34784 2.17743
2296.29940 2.17947
2294.25096 2.17727
2292.20252 2.17677
2290.15408 2.17804
2288.10565 2.17934
2286.05721 2.18174
2284.00877 2.18469
2281.96033 2.18706
2279.91189 2.18874
2277.86345 2.19042
2275.81502 2.19261
2273.76658 2.19278
2271.71814 2.19037
2269.66970 2.19057
2267.62126 2.19430
2265.57282 2.19686
2263.52439 2.19650
2261.47595 2.19497
2259.42751 2.19410
2257.37907 2.19504
2255.33063 2.19647
2253.28219 2.19583
2251.23376 2.19492
2249.18532 2.19710
2247.13688 2.20125
2245.08844 2.20380
2243.04000 2.20264
2240.99156 2.20092
2238.94313 2.20306
2236.89469 2.20475
2234.84625 2.20235
2232.79781 2.20173
2230.74937 2.20619
2228.70093 2.21030
2226.65250 2.20965
2224.60406 2.20728
2222.55562 2.20696
2220.50718 2.21011
2218.45874 2.21457
2216.41030 2.21695
2214.36186 2.21696
2212.31343 2.21653
2210.26499 2.21847
2208.21655 2.22150
2206.16811 2.22227
2204.11967 2.22188
2202.07123 2.22205
2200.02280 2.22084
2197.97436 2.21835
2195.92592 2.21807
2193.87748 2.22007
2191.82904 2.22119
2189.78060 2.22075
2187.73217 2.22183
2185.68373 2.22467
2183.63529 2.22715
2181.58685 2.22936
2179.53841 2.23052
2177.48997 2.23099
2175.44154 2.23299
2173.39310 2.23630
2171.34466 2.23885
2169.29622 2.23972
2167.24778 2.24114
2165.19934 2.24333
2163.15091 2.24360
2161.10247 2.24209
2159.05403 2.24044
2157.00559 2.23943
2154.95715 2.23944
2152.90871 2.24028
2150.86028 2.24091
2148.81184 2.24234
2146.76340 2.24526
2144.71496 2.24647
2142.66652 2.24495
2140.61808 2.24415
2138.56965 2.24425
2136.52121 2.24186
2134.47277 2.23976
2132.42433 2.24138
2130.37589 2.24413
2128.32745 2.24616
2126.27902 2.24717
2124.23058 2.24879
2122.18214 2.25252
2120.13370 2.25503
2118.08526 2.25394
2116.03682 2.25100
2113.98839 2.24901
2111.93995 2.24902
2109.89151 2.24925
2107.84307 2.24882
2105.79463 2.24965
2103.74619 2.25292
2101.69776 2.25508
2099.64932 2.25274
2097.60088 2.25093
2095.55244 2.25506
2093.50400 2.26068
2091.45556 2.26246
2089.40713 2.26221
2087.35869 2.26309
2085.31025 2.26622
2083.26181 2.27097
2081.21337 2.27492
2079.16493 2.27599
2077.11649 2.27594
2075.06806 2.27558
2073.01962 2.27479
2070.97118 2.27462
2068.92274 2.27297
2066.87430 2.27049
2064.82586 2.26782
2062.77743 2.26282
2060.72899 2.25843
2058.68055 2.25765
2056.63211 2.25804
2054.58367 2.25541
2052.53523 2.25020
2050.48680 2.24764
2048.43836 2.24889
2046.38992 2.25009
2044.34148 2.25102
2042.29304 2.25163
2040.24460 2.24912
2038.19617 2.24656
2036.14773 2.24872
2034.09929 2.25169
2032.05085 2.25076
2030.00241 2.24860
2027.95397 2.24906
2025.90554 2.25082
2023.85710 2.24985
2021.80866 2.24893
2019.76022 2.25056
2017.71178 2.25157
2015.66334 2.25325
2013.61491 2.25696
2011.56647 2.25932
2009.51803 2.25877
2007.46959 2.25807
2005.42115 2.25921
2003.37271 2.26109
2001.32428 2.26232
1999.27584 2.26163
1997.22740 2.25965
1995.17896 2.25896
1993.13052 2.26075
1991.08208 2.26370
1989.03365 2.26622
1986.98521 2.26933
1984.93677 2.27267
1982.88833 2.27436
1980.83989 2.27469
1978.79145 2.27335
1976.74302 2.27022
1974.69458 2.26934
1972.64614 2.27329
1970.59770 2.27853
1968.54926 2.28132
1966.50082 2.28184
1964.45239 2.28209
1962.40395 2.28244
1960.35551 2.28201
1958.30707 2.28234
1956.25863 2.28404
1954.21019 2.28325
1952.16176 2.28067
1950.11332 2.28247
1948.06488 2.28729
1946.01644 2.29041
1943.96800 2.29383
1941.91956 2.29833
1939.87112 2.30017
1937.82269 2.30016
1935.77425 2.29958
1933.72581 2.29726
1931.67737 2.29579
1929.62893 2.29954
1927.58049 2.30619
1925.53206 2.30998
1923.48362 2.31089
1921.43518 2.30932
1919.38674 2.30417
1917.33830 2.30186
1915.28986 2.30717
1913.24143 2.31278
1911.19299 2.31409
1909.14455 2.31429
1907.09611 2.31627
1905.04767 2.31889
1902.99923 2.31929
1900.95080 2.31766
1898.90236 2.31892
1896.85392 2.32358
1894.80548 2.32734
1892.75704 2.32993
1890.70860 2.33274
1888.66017 2.33608
1886.61173 2.33893
1884.56329 2.34079
1882.51485 2.34448
1880.46641 2.34938
1878.41797 2.35226
1876.36954 2.35316
1874.32110 2.35213
1872.27266 2.34933
1870.22422 2.34914
1868.17578 2.35617
1866.12734 2.36197
1864.07891 2.36218
1862.03047 2.36163
1859.98203 2.36069
1857.93359 2.36208
1855.88515 2.36818
1853.83671 2.37347
1851.78828 2.37560
1849.73984 2.37789
1847.69140 2.38074
1845.64296 2.38285
1843.59452 2.38392
1841.54608 2.38424
1839.49765 2.38716
1837.44921 2.39364
1835.40077 2.39652
1833.35233 2.39193
1831.30389 2.38762
1829.25545 2.38928
1827.20702 2.39104
1825.15858 2.39004
1823.11014 2.38993
1821.06170 2.39315
1819.01326 2.40068
1816.96482 2.41077
1814.91639 2.41734
1812.86795 2.41926
1810.81951 2.42005
1808.77107 2.42220
1806.72263 2.42807
1804.67419 2.43556
1802.62575 2.44122
1800.57732 2.44237
1798.52888 2.43809
1796.48044 2.43159
1794.43200 2.42506
1792.38356 2.42152
1790.33512 2.42356
1788.28669 2.42685
1786.23825 2.43127
1784.18981 2.43834
1782.14137 2.44166
1780.09293 2.43831
1778.04449 2.43494
1775.99606 2.43443
1773.94762 2.43451
1771.89918 2.43402
1769.85074 2.43287
1767.80230 2.43191
1765.75386 2.43478
1763.70543 2.44227
1761.65699 2.44767
1759.60855 2.44336
1757.56011 2.43862
1755.51167 2.44164
1753.46323 2.44835
1751.41480 2.45386
1749.36636 2.45300
1747.31792 2.44919
1745.26948 2.44856
1743.22104 2.45198
1741.17260 2.46061
1739.12417 2.46676
1737.07573 2.46491
1735.02729 2.46504
1732.97885 2.47155
1730.93041 2.47250
1728.88197 2.47000
1726.83354 2.46752
1724.78510 2.46648
1722.73666 2.46870
1720.68822 2.47277
1718.63978 2.47891
1716.59134 2.49065
1714.54291 2.50030
1712.49447 2.50179
1710.44603 2.50094
1708.39759 2.50521
1706.34915 2.51244
1704.30071 2.51354
1702.25228 2.51466
1700.20384 2.52045
1698.15540 2.52740
1696.10696 2.53895
1694.05852 2.54758
1692.01008 2.54981
1689.96165 2.55110
1687.91321 2.55251
1685.86477 2.55861
1683.81633 2.57413
1681.76789 2.57735
1679.71945 2.57195
1677.67102 2.57020
1675.62258 2.57552
1673.57414 2.57982
1671.52570 2.58328
1669.47726 2.59856
1667.42882 2.60655
1665.38038 2.60176
1663.33195 2.59712
1661.28351 2.59578
1659.23507 2.59712
1657.18663 2.59840
1655.13819 2.59886
1653.08975 2.61001
1651.04132 2.62853
1648.99288 2.64195
1646.94444 2.65528
1644.89600 2.65744
1642.84756 2.65360
1640.79912 2.65109
1638.75069 2.65430
1636.70225 2.66435
1634.65381 2.66805
1632.60537 2.66501
1630.55693 2.66916
1628.50849 2.68015
1626.46006 2.68790
1624.41162 2.69321
1622.36318 2.69791
1620.31474 2.69773
1618.26630 2.70801
1616.21786 2.72932
1614.16943 2.73443
1612.12099 2.73906
1610.07255 2.74676
1608.02411 2.74867
1605.97567 2.75495
1603.92723 2.76804
1601.87880 2.77916
1599.83036 2.79096
1597.78192 2.80564
1595.73348 2.81715
1593.68504 2.82297
1591.63660 2.83241
1589.58817 2.84525
1587.53973 2.85101
1585.49129 2.85718
1583.44285 2.87024
1581.39441 2.89555
1579.34597 2.93122
1577.29754 2.95614
1575.24910 2.94141
1573.20066 2.92027
1571.15222 2.91381
1569.10378 2.91597
1567.05534 2.91914
1565.00691 2.91416
1562.95847 2.90674
1560.91003 2.89329
1558.86159 2.83071
1556.81315 2.75151
1554.76471 2.69810
1552.71628 2.63988
1550.66784 2.57154
1548.61940 2.50287
1546.57096 2.45016
1544.52252 2.40333
1542.47408 2.35816
1540.42565 2.28060
1538.37721 2.19877
1536.32877 2.16673
1534.28033 2.14014
1532.23189 2.10545
1530.18345 2.08217
1528.13501 2.06764
1526.08658 2.05408
1524.03814 2.04541
1521.98970 2.04188
1519.94126 2.03679
1517.89282 2.03283
1515.84438 2.03282
1513.79595 2.03579
1511.74751 2.04237
1509.69907 2.05253
1507.65063 2.06847
1505.60219 2.07737
1503.55375 2.07882
1501.50532 2.08708
1499.45688 2.10369
1497.40844 2.12507
1495.36000 2.14046
1493.31156 2.14871
1491.26312 2.16105
1489.21469 2.18566
1487.16625 2.20997
1485.11781 2.22787
1483.06937 2.24835
1481.02093 2.27483
1478.97249 2.30002
1476.92406 2.32110
1474.87562 2.34613
1472.82718 2.38258
1470.77874 2.40911
1468.73030 2.42053
1466.68186 2.43601
1464.63343 2.45804
1462.58499 2.47743
1460.53655 2.49624
1458.48811 2.52351
1456.43967 2.55359
1454.39123 2.56591
1452.34280 2.57978
1450.29436 2.60042
1448.24592 2.61959
1446.19748 2.62988
1444.14904 2.62624
1442.10060 2.60384
1440.05217 2.56765
1438.00373 2.51078
1435.95529 2.42069
1433.90685 2.34305
1431.85841 2.27892
1429.80997 2.20462
1427.76154 2.12960
1425.71310 2.05593
1423.66466 1.97642
1421.61622 1.90656
1419.56778 1.83536
1417.51934 1.76042
1415.47091 1.71211
1413.42247 1.67814
1411.37403 1.64770
1409.32559 1.62232
1407.27715 1.60388
1405.22871 1.58890
1403.18028 1.57751
1401.13184 1.57164
1399.08340 1.57027
1397.03496 1.57247
1394.98652 1.57843
1392.93808 1.58807
1390.88965 1.60073
1388.84121 1.62049
1386.79277 1.64956
1384.74433 1.67922
1382.69589 1.70752
1380.64745 1.74003
1378.59901 1.77543
1376.55058 1.81083
1374.50214 1.84726
1372.45370 1.87978
1370.40526 1.90430
1368.35682 1.92722
1366.30838 1.94880
1364.25995 1.96787
1362.21151 1.98663
1360.16307 2.00270
1358.11463 2.01654
1356.06619 2.02948
1354.01775 2.04150
1351.96932 2.05303
1349.92088 2.06464
1347.87244 2.07501
1345.82400 2.08203
1343.77556 2.08758
1341.72712 2.09607
1339.67869 2.10586
1337.63025 2.11092
1335.58181 2.11328
1333.53337 2.11729
1331.48493 2.12371
1329.43649 2.13115
1327.38806 2.13775
1325.33962 2.14335
1323.29118 2.14943
1321.24274 2.15506
1319.19430 2.15804
1317.14586 2.15838
1315.09743 2.16023
1313.04899 2.16560
1311.00055 2.17058
1308.95211 2.17323
1306.90367 2.17535
1304.85523 2.17738
1302.80680 2.17943
1300.75836 2.18340
1298.70992 2.18860
1296.66148 2.19171
1294.61304 2.19371
1292.56460 2.19868
1290.51617 2.20490
1288.46773 2.20845
1286.41929 2.21056
1284.37085 2.21367
1282.32241 2.21692
1280.27397 2.21923
1278.22554 2.22129
1276.17710 2.22408
1274.12866 2.22932
1272.08022 2.23451
1270.03178 2.23548
1267.98334 2.23536
1265.93491 2.23858
1263.88647 2.24389
1261.83803 2.24795
1259.78959 2.24999
1257.74115 2.25433
1255.69271 2.26032
1253.64428 2.26287
1251.59584 2.26457
1249.54740 2.26683
1247.49896 2.26691
1245.45052 2.26621
1243.40208 2.26892
1241.35364 2.27474
1239.30521 2.27804
1237.25677 2.27643
1235.20833 2.27627
1233.15989 2.28078
1231.11145 2.28220
1229.06301 2.27949
1227.01458 2.27840
1224.96614 2.27696
1222.91770 2.27480
1220.86926 2.27780
1218.82082 2.28647
1216.77238 2.29391
1214.72395 2.29539
1212.67551 2.29339
1210.62707 2.29309
1208.57863 2.29705
1206.53019 2.30092
1204.48175 2.30049
1202.43332 2.30014
1200.38488 2.30286
1198.33644 2.30777
1196.28800 2.31342
1194.23956 2.31773
1192.19112 2.32061
1190.14269 2.32230
1188.09425 2.32470
1186.04581 2.32978
1183.99737 2.33419
1181.94893 2.33626
1179.90049 2.33861
1177.85206 2.34130
1175.80362 2.34309
1173.75518 2.34523
1171.70674 2.34932
1169.65830 2.35323
1167.60986 2.35478
1165.56143 2.35700
1163.51299 2.36212
1161.46455 2.36696
1159.41611 2.37276
1157.36767 2.38392
1155.31923 2.39225
1153.27080 2.39147
1151.22236 2.39171
1149.17392 2.39600
1147.12548 2.39985
1145.07704 2.40533
1143.02860 2.40976
1140.98017 2.40982
1138.93173 2.41041
1136.88329 2.41328
1134.83485 2.41727
1132.78641 2.42186
1130.73797 2.42623
1128.68954 2.43250
1126.64110 2.43807
1124.59266 2.43813
1122.54422 2.44137
1120.49578 2.45361
1118.44734 2.46646
1116.39891 2.47284
1114.35047 2.47630
1112.30203 2.48554
1110.25359 2.50135
1108.20515 2.51823
1106.15671 2.53110
1104.10827 2.53524
1102.05984 2.51869
1100.01140 2.46208
1097.96296 2.37743
1095.91452 2.31145
1093.86608 2.29378
1091.81764 2.31915
1089.76921 2.36153
1087.72077 2.39892
1085.67233 2.42900
1083.62389 2.45731
1081.57545 2.48976
1079.52701 2.52588
1077.47858 2.55505
1075.43014 2.57640
1073.38170 2.59517
1071.33326 2.60632
1069.28482 2.59670
1067.23638 2.54779
1065.18795 2.44539
1063.13951 2.30933
1061.09107 2.17703
1059.04263 2.06724
1056.99419 1.98452
1054.94575 1.92920
1052.89732 1.89732
1050.84888 1.88358
1048.80044 1.88528
1046.75200 1.90105
1044.70356 1.92850
1042.65512 1.96251
1040.60669 1.99620
1038.55825 2.02679
1036.50981 2.05487
1034.46137 2.07884
1032.41293 2.09844
1030.36449 2.11700
1028.31606 2.13525
1026.26762 2.15057
1024.21918 2.16203
1022.17074 2.17074
1020.12230 2.17938
1018.07386 2.18971
1016.02543 2.20018
1013.97699 2.21094
1011.92855 2.22273
1009.88011 2.23237
1007.83167 2.23808
1005.78323 2.24281
1003.73480 2.24855
1001.68636 2.25560
999.63792 2.26465
997.58948 2.27439
995.54104 2.28121
993.49260 2.28503
991.44417 2.29063
989.39573 2.29720
987.34729 2.30202
985.29885 2.30929
983.25041 2.31881
981.20197 2.32502
979.15354 2.32967
977.10510 2.33473
975.05666 2.33715
973.00822 2.34016
970.95978 2.34435
968.91134 2.34400
966.86290 2.34202
964.81447 2.34457
962.76603 2.35214
960.71759 2.36253
958.66915 2.37314
956.62071 2.38340
954.57227 2.39673
952.52384 2.41253
950.47540 2.42460
948.42696 2.43520
946.37852 2.45052
944.33008 2.47008
942.28164 2.49007
940.23321 2.50680
938.18477 2.52404
936.13633 2.54155
934.08789 2.54986
932.03945 2.55542
929.99101 2.56508
927.94258 2.56495
925.89414 2.55432
923.84570 2.54485
921.79726 2.53259
919.74882 2.52009
917.70038 2.51415
915.65195 2.50736
913.60351 2.49071
911.55507 2.46187
909.50663 2.42495
907.45819 2.38120
905.40975 2.32731
903.36132 2.26682
901.31288 2.20389
899.26444 2.13540
897.21600 2.06237
895.16756 1.99183
893.11912 1.92960
891.07069 1.87764
889.02225 1.83467
886.97381 1.80169
884.92537 1.78008
882.87693 1.76848
880.82849 1.76547
878.78006 1.76976
876.73162 1.77932
874.68318 1.79211
872.63474 1.80801
870.58630 1.82841
868.53786 1.85104
866.48943 1.87251
864.44099 1.89452
862.39255 1.91759
860.34411 1.93693
858.29567 1.95169
856.24723 1.96592
854.19880 1.97914
852.15036 1.99041
850.10192 2.00299
848.05348 2.01711
846.00504 2.03012
843.95660 2.03813
841.90817 2.03939
839.85973 2.03493
837.81129 2.01897
835.76285 1.98313
833.71441 1.92380
831.66597 1.84302
829.61753 1.75340
827.56910 1.67420
825.52066 1.62002
823.47222 1.59667
821.42378 1.60605
819.37534 1.65336
817.32690 1.73974
815.27847 1.84319
813.23003 1.92776
811.18159 1.98219
809.13315 2.01646
807.08471 2.03693
805.03627 2.04781
802.98784 2.05872
800.93940 2.07835
798.89096 2.10276
796.84252 2.11966
794.79408 2.12474
792.74564 2.12893
790.69721 2.13736
788.64877 2.13952
786.60033 2.13130
784.55189 2.11769
782.50345 2.10201
780.45501 2.08667
778.40658 2.07960
776.35814 2.08716
774.30970 2.09979
772.26126 2.10836
770.21282 2.11821
768.16438 2.13684
766.11595 2.15894
764.06751 2.17629
762.01907 2.19426
759.97063 2.20408
757.92219 2.17771
755.87375 2.09494
753.82532 1.98162
751.77688 1.89424
749.72844 1.85693
747.68000 1.85761
745.63156 1.87306
743.58312 1.88966
741.53469 1.90453
739.48625 1.91737
737.43781 1.93072
735.38937 1.94381
733.34093 1.95281
731.29249 1.95918
729.24406 1.96436
727.19562 1.96867
725.14718 1.97647
723.09874 1.98889
721.05030 2.00371
719.00186 2.02245
716.95343 2.03858
714.90499 2.03708
712.85655 2.02208
710.80811 2.00862
708.75967 2.00162
706.71123 2.00519
704.66280 2.01641
702.61436 2.02170
700.56592 2.02167
698.51748 2.02700
696.46904 2.03177
694.42060 2.03225
692.37216 2.03696
690.32373 2.04429
688.27529 2.04445
686.22685 2.03344
684.17841 2.02650
682.12997 2.03566
680.08153 2.04569
678.03310 2.04160
675.98466 2.03753
673.93622 2.04354
671.88778 2.04782
669.83934 2.04315
667.79090 2.03953
665.74247 2.05029
663.69403 2.06324
661.64559 2.06985
659.59715 2.06219
657.54871 2.04894
655.50027 2.03999
653.45184 2.03668
651.40340 2.05396
649.35496 2.09075
647.30652 2.11238
645.25808 2.09544
643.20964 2.05886
641.16121 2.03163
639.11277 2.03384
637.06433 2.06201
635.01589 2.08456
632.96745 2.07899
630.91901 2.07188
628.87058 2.08979
626.82214 2.11601
624.77370 2.13593
622.72526 2.14577
620.67682 2.15006
618.62838 2.14413
616.57995 2.11425
614.53151 2.08912
612.48307 2.10567
610.43463 2.16726
608.38619 2.18841
606.33775 2.14094
604.28932 2.13024
602.24088 2.18533
600.19244 2.25994
598.14400 2.27408
