3996.50324 1.39567
3994.45480 1.39606
3992.40636 1.39644
3990.35792 1.39673
3988.30948 1.39678
3986.26104 1.39653
3984.21261 1.39595
3982.16417 1.39544
3980.11573 1.39532
3978.06729 1.39568
3976.01885 1.39588
3973.97041 1.39541
3971.92198 1.39545
3969.87354 1.39635
3967.82510 1.39694
3965.77666 1.39692
3963.72822 1.39730
3961.67978 1.39877
3959.63135 1.40012
3957.58291 1.40026
3955.53447 1.40002
3953.48603 1.40013
3951.43759 1.40065
3949.38915 1.40127
3947.34072 1.40130
3945.29228 1.40101
3943.24384 1.40123
3941.19540 1.40212
3939.14696 1.40320
3937.09852 1.40419
3935.05009 1.40554
3933.00165 1.40817
3930.95321 1.41140
3928.90477 1.41312
3926.85633 1.41403
3924.80789 1.41585
3922.75946 1.41821
3920.71102 1.42021
3918.66258 1.42267
3916.61414 1.42609
3914.56570 1.42869
3912.51726 1.43000
3910.46883 1.43151
3908.42039 1.43364
3906.37195 1.43657
3904.32351 1.44068
3902.27507 1.44373
3900.22663 1.44420
3898.17820 1.44360
3896.12976 1.44263
3894.08132 1.44226
3892.03288 1.44343
3889.98444 1.44439
3887.93600 1.44481
3885.88756 1.44662
3883.83913 1.44771
3881.79069 1.44622
3879.74225 1.44572
3877.69381 1.44676
3875.64537 1.44775
3873.59693 1.44920
3871.54850 1.45069
3869.50006 1.45077
3867.45162 1.44880
3865.40318 1.44680
3863.35474 1.44494
3861.30630 1.44247
3859.25787 1.44064
3857.20943 1.43979
3855.16099 1.44008
3853.11255 1.44167
3851.06411 1.44100
3849.01567 1.43931
3846.96724 1.43804
3844.91880 1.43763
3842.87036 1.43821
3840.82192 1.43954
3838.77348 1.44163
3836.72504 1.44136
3834.67661 1.43966
3832.62817 1.44077
3830.57973 1.44305
3828.53129 1.44413
3826.48285 1.44566
3824.43441 1.44748
3822.38598 1.44987
3820.33754 1.45437
3818.28910 1.45629
3816.24066 1.45677
3814.19222 1.45756
3812.14378 1.45807
3810.09535 1.45861
3808.04691 1.45995
3805.99847 1.46143
3803.95003 1.46205
3801.90159 1.46385
3799.85315 1.46421
3797.80472 1.46204
3795.75628 1.46063
3793.70784 1.46004
3791.65940 1.45965
3789.61096 1.45991
3787.56252 1.46081
3785.51409 1.46239
3783.46565 1.46429
3781.41721 1.46637
3779.36877 1.46972
3777.32033 1.47261
3775.27189 1.47397
3773.22346 1.47591
3771.17502 1.47922
3769.12658 1.48216
3767.07814 1.48464
3765.02970 1.48825
3762.98126 1.49114
3760.93283 1.49373
3758.88439 1.49856
3756.83595 1.50292
3754.78751 1.50609
3752.73907 1.51214
3750.69063 1.52182
3748.64219 1.52447
3746.59376 1.52317
3744.54532 1.52636
3742.49688 1.53039
3740.44844 1.53165
3738.40000 1.53280
3736.35156 1.53658
3734.30313 1.54478
3732.25469 1.55081
3730.20625 1.55336
3728.15781 1.55564
3726.10937 1.55910
3724.06093 1.56421
3722.01250 1.57068
3719.96406 1.57754
3717.91562 1.58342
3715.86718 1.58790
3713.81874 1.59282
3711.77030 1.60075
3709.72187 1.60711
3707.67343 1.60980
3705.62499 1.61438
3703.57655 1.62235
3701.52811 1.63222
3699.47967 1.64040
3697.43124 1.64658
3695.38280 1.65153
3693.33436 1.65502
3691.28592 1.66009
3689.23748 1.66932
3687.18904 1.67516
3685.14061 1.67697
3683.09217 1.67953
3681.04373 1.68458
3678.99529 1.69154
3676.94685 1.70027
3674.89841 1.71119
3672.84998 1.71799
3670.80154 1.72476
3668.75310 1.73327
3666.70466 1.73877
3664.65622 1.74618
3662.60778 1.75644
3660.55935 1.76624
3658.51091 1.77571
3656.46247 1.78728
3654.41403 1.79769
3652.36559 1.80662
3650.31715 1.82241
3648.26872 1.84347
3646.22028 1.85422
3644.17184 1.86071
3642.12340 1.87031
3640.07496 1.88401
3638.02652 1.89766
3635.97809 1.91102
3633.92965 1.92495
3631.88121 1.93832
3629.83277 1.95732
3627.78433 1.98077
3625.73589 1.99425
3623.68746 2.00656
3621.63902 2.02115
3619.59058 2.03714
3617.54214 2.04737
3615.49370 2.05386
3613.44526 2.06537
3611.39682 2.07609
3609.34839 2.08174
3607.29995 2.08872
3605.25151 2.09659
3603.20307 2.10205
3601.15463 2.10902
3599.10619 2.12142
3597.05776 2.13620
3595.00932 2.14918
3592.96088 2.15629
3590.91244 2.15583
3588.86400 2.15817
3586.81556 2.17071
3584.76713 2.17978
3582.71869 2.18396
3580.67025 2.18876
3578.62181 2.19359
3576.57337 2.19916
3574.52493 2.20679
3572.47650 2.21525
3570.42806 2.22324
3568.37962 2.22994
3566.33118 2.23720
3564.28274 2.24560
3562.23430 2.25357
3560.18587 2.25952
3558.13743 2.26498
3556.08899 2.27413
3554.04055 2.28220
3551.99211 2.28508
3549.94367 2.29036
3547.89524 2.29667
3545.84680 2.29871
3543.79836 2.30420
3541.74992 2.31094
3539.70148 2.31334
3537.65304 2.31584
3535.60461 2.32121
3533.55617 2.32666
3531.50773 2.33310
3529.45929 2.33817
3527.41085 2.33457
3525.36241 2.33552
3523.31398 2.35116
3521.26554 2.36197
3519.21710 2.35819
3517.16866 2.35378
3515.12022 2.35332
3513.07178 2.35218
3511.02335 2.35082
3508.97491 2.35398
3506.92647 2.36080
3504.87803 2.36832
3502.82959 2.37792
3500.78115 2.38538
3498.73272 2.38725
3496.68428 2.38416
3494.63584 2.37890
3492.58740 2.37602
3490.53896 2.37601
3488.49052 2.37761
3486.44209 2.38282
3484.39365 2.39013
3482.34521 2.39549
3480.29677 2.40134
3478.24833 2.41002
3476.19989 2.41707
3474.15146 2.41806
3472.10302 2.41841
3470.05458 2.42313
3468.00614 2.42893
3465.95770 2.43126
3463.90926 2.43106
3461.86082 2.43125
3459.81239 2.43287
3457.76395 2.43768
3455.71551 2.44470
3453.66707 2.45003
3451.61863 2.45084
3449.57019 2.44958
3447.52176 2.45067
3445.47332 2.45316
3443.42488 2.45385
3441.37644 2.45676
3439.32800 2.46549
3437.27956 2.47733
3435.23113 2.48813
3433.18269 2.49369
3431.13425 2.49355
3429.08581 2.48619
3427.03737 2.47552
3424.98893 2.47131
3422.94050 2.47259
3420.89206 2.46810
3418.84362 2.44931
3416.79518 2.42471
3414.74674 2.40267
3412.69830 2.38328
3410.64987 2.36968
3408.60143 2.36004
3406.55299 2.34842
3404.50455 2.33878
3402.45611 2.33623
3400.40767 2.33725
3398.35924 2.34219
3396.31080 2.35179
3394.26236 2.36076
3392.21392 2.36813
3390.16548 2.37343
3388.11704 2.37614
3386.06861 2.37911
3384.02017 2.38229
3381.97173 2.38360
3379.92329 2.38347
3377.87485 2.38110
3375.82641 2.37725
3373.77798 2.37663
3371.72954 2.38388
3369.68110 2.39706
3367.63266 2.40563
3365.58422 2.40776
3363.53578 2.40639
3361.48735 2.40020
3359.43891 2.39508
3357.39047 2.39581
3355.34203 2.39890
3353.29359 2.40086
3351.24515 2.40209
3349.19672 2.40273
3347.14828 2.39898
3345.09984 2.39318
3343.05140 2.39348
3341.00296 2.39600
3338.95452 2.39611
3336.90609 2.39520
3334.85765 2.38850
3332.80921 2.37716
3330.76077 2.36828
3328.71233 2.36249
3326.66389 2.35606
3324.61545 2.34587
3322.56702 2.33544
3320.51858 2.33132
3318.47014 2.32875
3316.42170 2.31843
3314.37326 2.30572
3312.32482 2.29940
3310.27639 2.29699
3308.22795 2.29555
3306.17951 2.29623
3304.13107 2.29761
3302.08263 2.29786
3300.03419 2.29597
3297.98576 2.29257
3295.93732 2.28869
3293.88888 2.28303
3291.84044 2.27848
3289.79200 2.28093
3287.74356 2.28821
3285.69513 2.29223
3283.64669 2.29175
3281.59825 2.29163
3279.54981 2.29413
3277.50137 2.29515
3275.45293 2.29127
3273.40450 2.28811
3271.35606 2.28834
3269.30762 2.28809
3267.25918 2.28727
3265.21074 2.28611
3263.16230 2.28240
3261.11387 2.27904
3259.06543 2.28072
3257.01699 2.28304
3254.96855 2.28103
3252.92011 2.27966
3250.87167 2.28253
3248.82324 2.28712
3246.77480 2.29033
3244.72636 2.28952
3242.67792 2.28643
3240.62948 2.28477
3238.58104 2.28423
3236.53261 2.28329
3234.48417 2.28577
3232.43573 2.29336
3230.38729 2.29633
3228.33885 2.29175
3226.29041 2.28735
3224.24198 2.28432
3222.19354 2.27954
3220.14510 2.27526
3218.09666 2.27686
3216.04822 2.28367
3213.99978 2.28869
3211.95135 2.28554
3209.90291 2.27671
3207.85447 2.27048
3205.80603 2.26928
3203.75759 2.27127
3201.70915 2.27428
3199.66072 2.27515
3197.61228 2.27260
3195.56384 2.26843
3193.51540 2.26658
3191.46696 2.26839
3189.41852 2.27031
3187.37008 2.26923
3185.32165 2.26845
3183.27321 2.26949
3181.22477 2.26872
3179.17633 2.26844
3177.12789 2.27028
3175.07945 2.26952
3173.03102 2.26363
3170.98258 2.25643
3168.93414 2.25489
3166.88570 2.25835
3164.83726 2.26039
3162.78882 2.26026
3160.74039 2.25818
3158.69195 2.25447
3156.64351 2.25314
3154.59507 2.25388
3152.54663 2.25464
3150.49819 2.25365
3148.44976 2.25175
3146.40132 2.25288
3144.35288 2.25316
3142.30444 2.25021
3140.25600 2.24594
3138.20756 2.23884
3136.15913 2.23336
3134.11069 2.23514
3132.06225 2.24004
3130.01381 2.24071
3127.96537 2.23804
3125.91693 2.23706
3123.86850 2.23792
3121.82006 2.24046
3119.77162 2.24314
3117.72318 2.24337
3115.67474 2.24324
3113.62630 2.24236
3111.57787 2.23796
3109.52943 2.23242
3107.48099 2.23097
3105.43255 2.23389
3103.38411 2.23766
3101.33567 2.23921
3099.28724 2.23717
3097.23880 2.23467
3095.19036 2.23380
3093.14192 2.23214
3091.09348 2.22887
3089.04504 2.22739
3086.99661 2.23042
3084.94817 2.23335
3082.89973 2.23107
3080.85129 2.22808
3078.80285 2.22901
3076.75441 2.23156
3074.70598 2.23101
3072.65754 2.22536
3070.60910 2.22008
3068.56066 2.21889
3066.51222 2.21822
3064.46378 2.21637
3062.41535 2.21387
3060.36691 2.21039
3058.31847 2.20724
3056.27003 2.20701
3054.22159 2.20927
3052.17315 2.20998
3050.12471 2.20745
3048.07628 2.20407
3046.02784 2.20202
3043.97940 2.19949
3041.93096 2.19331
3039.88252 2.18683
3037.83408 2.18657
3035.78565 2.18969
3033.73721 2.18878
3031.68877 2.18523
3029.64033 2.18441
3027.59189 2.18662
3025.54345 2.18651
3023.49502 2.18107
3021.44658 2.17471
3019.39814 2.17282
3017.34970 2.17418
3015.30126 2.17205
3013.25282 2.16817
3011.20439 2.16862
3009.15595 2.16930
3007.10751 2.16594
3005.05907 2.16225
3003.01063 2.16212
3000.96219 2.16550
2998.91376 2.16706
2996.86532 2.16248
2994.81688 2.15835
2992.76844 2.15988
2990.72000 2.16248
2988.67156 2.16286
2986.62313 2.16220
2984.57469 2.16132
2982.52625 2.16074
2980.47781 2.16184
2978.42937 2.16416
2976.38093 2.16526
2974.33250 2.16458
2972.28406 2.16428
2970.23562 2.16461
2968.18718 2.16330
2966.13874 2.16044
2964.09030 2.15849
2962.04187 2.15862
2959.99343 2.15901
2957.94499 2.15826
2955.89655 2.15854
2953.84811 2.16172
2951.79967 2.16509
2949.75124 2.16517
2947.70280 2.16317
2945.65436 2.16142
2943.60592 2.16048
2941.55748 2.16071
2939.50904 2.16276
2937.46061 2.16535
2935.41217 2.16622
2933.36373 2.16585
2931.31529 2.16454
2929.26685 2.16329
2927.21841 2.16376
2925.16998 2.16544
2923.12154 2.16749
2921.07310 2.16695
2919.02466 2.16282
2916.97622 2.15941
2914.92778 2.15842
2912.87934 2.15755
2910.83091 2.15680
2908.78247 2.15786
2906.73403 2.16018
2904.68559 2.16144
2902.63715 2.15947
2900.58871 2.15429
2898.54028 2.14858
2896.49184 2.14536
2894.44340 2.14241
2892.39496 2.13696
2890.34652 2.13216
2888.29808 2.12958
2886.24965 2.12760
2884.20121 2.12587
2882.15277 2.12464
2880.10433 2.12385
2878.05589 2.12453
2876.00745 2.12581
2873.95902 2.12503
2871.91058 2.12528
2869.86214 2.12862
2867.81370 2.12884
2865.76526 2.12367
2863.71682 2.11859
2861.66839 2.11612
2859.61995 2.11636
2857.57151 2.11744
2855.52307 2.11684
2853.47463 2.11761
2851.42619 2.11939
2849.37776 2.11772
2847.32932 2.11342
2845.28088 2.10857
2843.23244 2.10513
2841.18400 2.10473
2839.13556 2.10539
2837.08713 2.10415
2835.03869 2.10077
2832.99025 2.09720
2830.94181 2.09501
2828.89337 2.09477
2826.84493 2.09544
2824.79650 2.09574
2822.74806 2.09578
2820.69962 2.09524
2818.65118 2.09510
2816.60274 2.09652
2814.55430 2.09819
2812.50587 2.09920
2810.45743 2.09867
2808.40899 2.09529
2806.36055 2.09176
2804.31211 2.09141
2802.26367 2.09275
2800.21524 2.09254
2798.16680 2.08974
2796.11836 2.08659
2794.06992 2.08404
2792.02148 2.08082
2789.97304 2.07653
2787.92461 2.07049
2785.87617 2.06410
2783.82773 2.05906
2781.77929 2.05483
2779.73085 2.05198
2777.68241 2.04992
2775.63397 2.04627
2773.58554 2.04176
2771.53710 2.03859
2769.48866 2.03732
2767.44022 2.03734
2765.39178 2.03705
2763.34334 2.03593
2761.29491 2.03454
2759.24647 2.03188
2757.19803 2.02822
2755.14959 2.02634
2753.10115 2.02663
2751.05271 2.02663
2749.00428 2.02503
2746.95584 2.02203
2744.90740 2.01847
2742.85896 2.01599
2740.81052 2.01581
2738.76208 2.01829
2736.71365 2.02045
2734.66521 2.01850
2732.61677 2.01499
2730.56833 2.01388
2728.51989 2.01415
2726.47145 2.01277
2724.42302 2.01001
2722.37458 2.00858
2720.32614 2.00902
2718.27770 2.00854
2716.22926 2.00604
2714.18082 2.00414
2712.13239 2.00359
2710.08395 2.00396
2708.03551 2.00473
2705.98707 2.00447
2703.93863 2.00398
2701.89019 2.00477
2699.84176 2.00603
2697.79332 2.00660
2695.74488 2.00616
2693.69644 2.00455
2691.64800 2.00330
2689.59956 2.00345
2687.55113 2.00368
2685.50269 2.00324
2683.45425 2.00272
2681.40581 2.00243
2679.35737 2.00142
2677.30893 1.99978
2675.26050 1.99793
2673.21206 1.99560
2671.16362 1.99253
2669.11518 1.98859
2667.06674 1.98495
2665.01830 1.98155
2662.96987 1.97769
2660.92143 1.97511
2658.87299 1.97411
2656.82455 1.97358
2654.77611 1.97408
2652.72767 1.97514
2650.67924 1.97546
2648.63080 1.97496
2646.58236 1.97404
2644.53392 1.97382
2642.48548 1.97484
2640.43704 1.97620
2638.38860 1.97815
2636.34017 1.98059
2634.29173 1.98236
2632.24329 1.98338
2630.19485 1.98385
2628.14641 1.98359
2626.09797 1.98232
2624.04954 1.98113
2622.00110 1.98205
2619.95266 1.98582
2617.90422 1.99000
2615.85578 1.99157
2613.80734 1.99255
2611.75891 1.99421
2609.71047 1.99480
2607.66203 1.99685
2605.61359 2.00280
2603.56515 2.00857
2601.51671 2.01154
2599.46828 2.01403
2597.41984 2.01671
2595.37140 2.01974
2593.32296 2.02445
2591.27452 2.03057
2589.22608 2.03565
2587.17765 2.03890
2585.12921 2.04298
2583.08077 2.04866
2581.03233 2.05328
2578.98389 2.05559
2576.93545 2.05712
2574.88702 2.06061
2572.83858 2.06787
2570.79014 2.07554
2568.74170 2.07839
2566.69326 2.07870
2564.64482 2.08206
2562.59639 2.08672
2560.54795 2.08949
2558.49951 2.09232
2556.45107 2.09604
2554.40263 2.09970
2552.35419 2.10302
2550.30576 2.10517
2548.25732 2.10612
2546.20888 2.10739
2544.16044 2.10844
2542.11200 2.10966
2540.06356 2.11193
2538.01513 2.11182
2535.96669 2.10926
2533.91825 2.10707
2531.86981 2.10456
2529.82137 2.10051
2527.77293 2.09577
2525.72450 2.09256
2523.67606 2.09123
2521.62762 2.09146
2519.57918 2.09131
2517.53074 2.08682
2515.48230 2.07912
2513.43387 2.07181
2511.38543 2.06450
2509.33699 2.05622
2507.28855 2.04831
2505.24011 2.04258
2503.19167 2.03866
2501.14324 2.03422
2499.09480 2.02936
2497.04636 2.02693
2494.99792 2.02737
2492.94948 2.02717
2490.90104 2.02497
2488.85260 2.02372
2486.80417 2.02471
2484.75573 2.02659
2482.70729 2.02751
2480.65885 2.02743
2478.61041 2.02817
2476.56197 2.02845
2474.51354 2.02705
2472.46510 2.02669
2470.41666 2.02917
2468.36822 2.03301
2466.31978 2.03625
2464.27134 2.03910
2462.22291 2.04181
2460.17447 2.04387
2458.12603 2.04677
2456.07759 2.05083
2454.02915 2.05442
2451.98071 2.05747
2449.93228 2.05994
2447.88384 2.06198
2445.83540 2.06519
2443.78696 2.07021
2441.73852 2.07620
2439.69008 2.08170
2437.64165 2.08627
2435.59321 2.08935
2433.54477 2.08994
2431.49633 2.09019
2429.44789 2.09242
2427.39945 2.09562
2425.35102 2.09855
2423.30258 2.09989
2421.25414 2.09739
2419.20570 2.09200
2417.15726 2.08769
2415.10882 2.08488
2413.06039 2.08198
2411.01195 2.07966
2408.96351 2.07624
2406.91507 2.06999
2404.86663 2.06417
2402.81819 2.05984
2400.76976 2.05464
2398.72132 2.04857
2396.67288 2.04241
2394.62444 2.03469
2392.57600 2.02495
2390.52756 2.01464
2388.47913 2.00361
2386.43069 1.99202
2384.38225 1.98133
2382.33381 1.97243
2380.28537 1.96559
2378.23693 1.96003
2376.18850 1.95422
2374.14006 1.94722
2372.09162 1.93947
2370.04318 1.93152
2367.99474 1.92497
2365.94630 1.91908
2363.89787 1.90739
2361.84943 1.89503
2359.80099 1.89011
2357.75255 1.88472
2355.70411 1.87617
2353.65567 1.86983
2351.60723 1.86693
2349.55880 1.86537
2347.51036 1.86336
2345.46192 1.86138
2343.41348 1.85933
2341.36504 1.85616
2339.31660 1.85354
2337.26817 1.85076
2335.21973 1.84792
2333.17129 1.84798
2331.12285 1.85022
2329.07441 1.85234
2327.02597 1.85387
2324.97754 1.85436
2322.92910 1.85237
2320.88066 1.85074
2318.83222 1.85276
2316.78378 1.85490
2314.73534 1.85620
2312.68691 1.85810
2310.63847 1.85853
2308.59003 1.85729
2306.54159 1.85650
2304.49315 1.85681
2302.44471 1.85723
2300.39628 1.85717
2298.34784 1.85753
2296.29940 1.85878
2294.25096 1.86062
2292.20252 1.86214
2290.15408 1.86234
2288.10565 1.86204
2286.05721 1.86246
2284.00877 1.86403
2281.96033 1.86626
2279.91189 1.86722
2277.86345 1.86709
2275.81502 1.86883
2273.76658 1.87195
2271.71814 1.87374
2269.66970 1.87499
2267.62126 1.87650
2265.57282 1.87662
2263.52439 1.87563
2261.47595 1.87669
2259.42751 1.88012
2257.37907 1.88288
2255.33063 1.88357
2253.28219 1.88326
2251.23376 1.88443
2249.18532 1.88740
2247.13688 1.89006
2245.08844 1.89117
2243.04000 1.89113
2240.99156 1.89211
2238.94313 1.89434
2236.89469 1.89543
2234.84625 1.89637
2232.79781 1.89977
2230.74937 1.90377
2228.70093 1.90534
2226.65250 1.90549
2224.60406 1.90642
2222.55562 1.90819
2220.50718 1.91009
2218.45874 1.91203
2216.41030 1.91350
2214.36186 1.91503
2212.31343 1.91773
2210.26499 1.92022
2208.21655 1.92100
2206.16811 1.92169
2204.11967 1.92401
2202.07123 1.92655
2200.02280 1.92782
2197.97436 1.92849
2195.92592 1.92944
2193.87748 1.93029
2191.82904 1.93130
2189.78060 1.93455
2187.73217 1.93951
2185.68373 1.94332
2183.63529 1.94649
2181.58685 1.95049
2179.53841 1.95490
2177.48997 1.96057
2175.44154 1.96710
2173.39310 1.97209
2171.34466 1.97603
2169.29622 1.97992
2167.24778 1.98324
2165.19934 1.98619
2163.15091 1.98848
2161.10247 1.98898
2159.05403 1.98706
2157.00559 1.98336
2154.95715 1.97849
2152.90871 1.97203
2150.86028 1.96511
2148.81184 1.95870
2146.76340 1.95316
2144.71496 1.95026
2142.66652 1.95010
2140.61808 1.95018
2138.56965 1.94844
2136.52121 1.94614
2134.47277 1.94559
2132.42433 1.94698
2130.37589 1.94875
2128.32745 1.94960
2126.27902 1.94974
2124.23058 1.95039
2122.18214 1.95194
2120.13370 1.95260
2118.08526 1.95187
2116.03682 1.95114
2113.98839 1.95180
2111.93995 1.95318
2109.89151 1.95281
2107.84307 1.95230
2105.79463 1.95532
2103.74619 1.96132
2101.69776 1.96723
2099.64932 1.97260
2097.60088 1.97877
2095.55244 1.98572
2093.50400 1.99342
2091.45556 2.00259
2089.40713 2.01468
2087.35869 2.03034
2085.31025 2.04618
2083.26181 2.05832
2081.21337 2.06692
2079.16493 2.07435
2077.11649 2.08048
2075.06806 2.08186
2073.01962 2.07551
2070.97118 2.06262
2068.92274 2.04782
2066.87430 2.03405
2064.82586 2.02167
2062.77743 2.00979
2060.72899 1.99707
2058.68055 1.98478
2056.63211 1.97429
2054.58367 1.96443
2052.53523 1.95518
2050.48680 1.94719
2048.43836 1.93987
2046.38992 1.93399
2044.34148 1.92985
2042.29304 1.92501
2040.24460 1.91903
2038.19617 1.91379
2036.14773 1.90923
2034.09929 1.90481
2032.05085 1.90158
2030.00241 1.90028
2027.95397 1.89981
2025.90554 1.89856
2023.85710 1.89715
2021.80866 1.89731
2019.76022 1.89881
2017.71178 1.90090
2015.66334 1.90264
2013.61491 1.90353
2011.56647 1.90419
2009.51803 1.90486
2007.46959 1.90662
2005.42115 1.90964
2003.37271 1.91290
2001.32428 1.91646
1999.27584 1.91975
1997.22740 1.92324
1995.17896 1.92819
1993.13052 1.93300
1991.08208 1.93714
1989.03365 1.94207
1986.98521 1.94652
1984.93677 1.94960
1982.88833 1.95336
1980.83989 1.95840
1978.79145 1.96325
1976.74302 1.96710
1974.69458 1.97055
1972.64614 1.97462
1970.59770 1.97834
1968.54926 1.98135
1966.50082 1.98463
1964.45239 1.98623
1962.40395 1.98566
1960.35551 1.98582
1958.30707 1.98678
1956.25863 1.98646
1954.21019 1.98583
1952.16176 1.98717
1950.11332 1.98979
1948.06488 1.99179
1946.01644 1.99306
1943.96800 1.99489
1941.91956 1.99830
1939.87112 2.00180
1937.82269 2.00447
1935.77425 2.00652
1933.72581 2.00712
1931.67737 2.00674
1929.62893 2.00730
1927.58049 2.00855
1925.53206 2.00933
1923.48362 2.00996
1921.43518 2.00980
1919.38674 2.00856
1917.33830 2.00679
1915.28986 2.00424
1913.24143 2.00177
1911.19299 2.00027
1909.14455 1.99910
1907.09611 1.99782
1905.04767 1.99648
1902.99923 1.99521
1900.95080 1.99509
1898.90236 1.99565
1896.85392 1.99583
1894.80548 1.99611
1892.75704 1.99652
1890.70860 1.99640
1888.66017 1.99688
1886.61173 1.99868
1884.56329 1.99950
1882.51485 1.99935
1880.46641 2.00104
1878.41797 2.00412
1876.36954 2.00557
1874.32110 2.00584
1872.27266 2.00717
1870.22422 2.01008
1868.17578 2.01369
1866.12734 2.01709
1864.07891 2.02170
1862.03047 2.02847
1859.98203 2.03623
1857.93359 2.04482
1855.88515 2.05500
1853.83671 2.06633
1851.78828 2.07879
1849.73984 2.09151
1847.69140 2.10263
1845.64296 2.11389
1843.59452 2.12966
1841.54608 2.14472
1839.49765 2.15615
1837.44921 2.16493
1835.40077 2.16775
1833.35233 2.16638
1831.30389 2.16422
1829.25545 2.16233
1827.20702 2.16375
1825.15858 2.17055
1823.11014 2.18189
1821.06170 2.19451
1819.01326 2.20905
1816.96482 2.22627
1814.91639 2.24281
1812.86795 2.25612
1810.81951 2.26818
1808.77107 2.28026
1806.72263 2.28818
1804.67419 2.28846
1802.62575 2.28535
1800.57732 2.28295
1798.52888 2.27511
1796.48044 2.26129
1794.43200 2.24674
1792.38356 2.23263
1790.33512 2.22422
1788.28669 2.22160
1786.23825 2.22026
1784.18981 2.21859
1782.14137 2.21724
1780.09293 2.21897
1778.04449 2.22319
1775.99606 2.22677
1773.94762 2.22867
1771.89918 2.22881
1769.85074 2.22836
1767.80230 2.22976
1765.75386 2.23200
1763.70543 2.23135
1761.65699 2.22617
1759.60855 2.22089
1757.56011 2.22026
1755.51167 2.22335
1753.46323 2.22460
1751.41480 2.22153
1749.36636 2.21918
1747.31792 2.22303
1745.26948 2.22825
1743.22104 2.23149
1741.17260 2.23300
1739.12417 2.23248
1737.07573 2.23232
1735.02729 2.23680
1732.97885 2.24485
1730.93041 2.24761
1728.88197 2.24743
1726.83354 2.24785
1724.78510 2.25108
1722.73666 2.25690
1720.68822 2.26180
1718.63978 2.26633
1716.59134 2.27754
1714.54291 2.29029
1712.49447 2.29634
1710.44603 2.30078
1708.39759 2.30909
1706.34915 2.32412
1704.30071 2.33923
1702.25228 2.34700
1700.20384 2.35544
1698.15540 2.36729
1696.10696 2.37373
1694.05852 2.37877
1692.01008 2.38743
1689.96165 2.39733
1687.91321 2.40146
1685.86477 2.40236
1683.81633 2.41167
1681.76789 2.41745
1679.71945 2.41634
1677.67102 2.41715
1675.62258 2.42022
1673.57414 2.42607
1671.52570 2.43552
1669.47726 2.44431
1667.42882 2.44706
1665.38038 2.44608
1663.33195 2.44144
1661.28351 2.43792
1659.23507 2.44189
1657.18663 2.44797
1655.13819 2.45162
1653.08975 2.44694
1651.04132 2.43962
1648.99288 2.44173
1646.94444 2.45268
1644.89600 2.45831
1642.84756 2.45497
1640.79912 2.45253
1638.75069 2.45023
1636.70225 2.44847
1634.65381 2.45805
1632.60537 2.46699
1630.55693 2.46680
1628.50849 2.46163
1626.46006 2.46230
1624.41162 2.47332
1622.36318 2.48243
1620.31474 2.48050
1618.26630 2.47658
1616.21786 2.48041
1614.16943 2.49065
1612.12099 2.49978
1610.07255 2.50571
1608.02411 2.50968
1605.97567 2.51363
1603.92723 2.51585
1601.87880 2.51923
1599.83036 2.52600
1597.78192 2.53259
1595.73348 2.54231
1593.68504 2.55380
1591.63660 2.56294
1589.58817 2.57310
1587.53973 2.58131
1585.49129 2.58497
1583.44285 2.58494
1581.39441 2.58312
1579.34597 2.58364
1577.29754 2.59514
1575.24910 2.61220
1573.20066 2.61580
1571.15222 2.61103
1569.10378 2.59971
1567.05534 2.59247
1565.00691 2.58827
1562.95847 2.58147
1560.91003 2.57176
1558.86159 2.54843
1556.81315 2.52070
1554.76471 2.50104
1552.71628 2.47304
1550.66784 2.43068
1548.61940 2.38451
1546.57096 2.35404
1544.52252 2.33290
1542.47408 2.30299
1540.42565 2.25031
1538.37721 2.20304
1536.32877 2.17970
1534.28033 2.15642
1532.23189 2.12941
1530.18345 2.11057
1528.13501 2.09548
1526.08658 2.07974
1524.03814 2.06617
1521.98970 2.05152
1519.94126 2.03731
1517.89282 2.02883
1515.84438 2.02185
1513.79595 2.01678
1511.74751 2.01327
1509.69907 2.00819
1507.65063 2.00486
1505.60219 2.00880
1503.55375 2.01144
1501.50532 2.01394
1499.45688 2.01791
1497.40844 2.02387
1495.36000 2.02988
1493.31156 2.03399
1491.26312 2.04074
1489.21469 2.05574
1487.16625 2.07159
1485.11781 2.08467
1483.06937 2.10198
1481.02093 2.12571
1478.97249 2.14952
1476.92406 2.17186
1474.87562 2.19567
1472.82718 2.22077
1470.77874 2.24165
1468.73030 2.25341
1466.68186 2.26516
1464.63343 2.28473
1462.58499 2.30225
1460.53655 2.31199
1458.48811 2.32485
1456.43967 2.34949
1454.39123 2.36248
1452.34280 2.36988
1450.29436 2.38299
1448.24592 2.39689
1446.19748 2.40131
1444.14904 2.39501
1442.10060 2.37965
1440.05217 2.35745
1438.00373 2.31850
1435.95529 2.25392
1433.90685 2.20282
1431.85841 2.16451
1429.80997 2.11738
1427.76154 2.06957
1425.71310 2.02698
1423.66466 1.98290
1421.61622 1.94325
1419.56778 1.90321
1417.51934 1.86216
1415.47091 1.83571
1413.42247 1.81724
1411.37403 1.80194
1409.32559 1.79009
1407.27715 1.78154
1405.22871 1.77395
1403.18028 1.76783
1401.13184 1.76533
1399.08340 1.76616
1397.03496 1.76874
1394.98652 1.77276
1392.93808 1.77929
1390.88965 1.78797
1388.84121 1.80053
1386.79277 1.81756
1384.74433 1.83351
1382.69589 1.84798
1380.64745 1.86467
1378.59901 1.88334
1376.55058 1.90294
1374.50214 1.92473
1372.45370 1.94538
1370.40526 1.96075
1368.35682 1.97364
1366.30838 1.98390
1364.25995 1.99290
1362.21151 2.00357
1360.16307 2.01270
1358.11463 2.02001
1356.06619 2.02805
1354.01775 2.03682
1351.96932 2.04448
1349.92088 2.05095
1347.87244 2.05633
1345.82400 2.06020
1343.77556 2.06321
1341.72712 2.06617
1339.67869 2.06900
1337.63025 2.07135
1335.58181 2.07387
1333.53337 2.07678
1331.48493 2.08008
1329.43649 2.08350
1327.38806 2.08636
1325.33962 2.08829
1323.29118 2.09041
1321.24274 2.09351
1319.19430 2.09519
1317.14586 2.09515
1315.09743 2.09696
1313.04899 2.09870
1311.00055 2.09605
1308.95211 2.09168
1306.90367 2.08946
1304.85523 2.08798
1302.80680 2.08533
1300.75836 2.08429
1298.70992 2.08712
1296.66148 2.09041
1294.61304 2.09161
1292.56460 2.09266
1290.51617 2.09367
1288.46773 2.09264
1286.41929 2.08942
1284.37085 2.08607
1282.32241 2.08450
1280.27397 2.08425
1278.22554 2.08340
1276.17710 2.08265
1274.12866 2.08453
1272.08022 2.08791
1270.03178 2.08932
1267.98334 2.08790
1265.93491 2.08599
1263.88647 2.08488
1261.83803 2.08485
1259.78959 2.08611
1257.74115 2.08706
1255.69271 2.08757
1253.64428 2.08789
1251.59584 2.08678
1249.54740 2.08646
1247.49896 2.08950
1245.45052 2.09406
1243.40208 2.09829
1241.35364 2.10214
1239.30521 2.10469
1237.25677 2.10576
1235.20833 2.10709
1233.15989 2.10832
1231.11145 2.10928
1229.06301 2.11168
1227.01458 2.11545
1224.96614 2.11952
1222.91770 2.12251
1220.86926 2.12377
1218.82082 2.12454
1216.77238 2.12661
1214.72395 2.13115
1212.67551 2.13654
1210.62707 2.14006
1208.57863 2.14303
1206.53019 2.14800
1204.48175 2.15304
1202.43332 2.15621
1200.38488 2.15939
1198.33644 2.16300
1196.28800 2.16568
1194.23956 2.16905
1192.19112 2.17402
1190.14269 2.17777
1188.09425 2.17995
1186.04581 2.18354
1183.99737 2.18875
1181.94893 2.19329
1179.90049 2.19621
1177.85206 2.20000
1175.80362 2.20785
1173.75518 2.21580
1171.70674 2.21784
1169.65830 2.21755
1167.60986 2.22042
1165.56143 2.22509
1163.51299 2.22938
1161.46455 2.23408
1159.41611 2.23901
1157.36767 2.24231
1155.31923 2.24510
1153.27080 2.25055
1151.22236 2.25796
1149.17392 2.26455
1147.12548 2.27072
1145.07704 2.27778
1143.02860 2.28502
1140.98017 2.29237
1138.93173 2.30006
1136.88329 2.30735
1134.83485 2.31332
1132.78641 2.31824
1130.73797 2.32372
1128.68954 2.32900
1126.64110 2.33148
1124.59266 2.33324
1122.54422 2.33647
1120.49578 2.33845
1118.44734 2.34134
1116.39891 2.34903
1114.35047 2.35819
1112.30203 2.36500
1110.25359 2.36913
1108.20515 2.37295
1106.15671 2.37846
1104.10827 2.38064
1102.05984 2.37030
1100.01140 2.34344
1097.96296 2.30420
1095.91452 2.26917
1093.86608 2.25771
1091.81764 2.27142
1089.76921 2.29619
1087.72077 2.31940
1085.67233 2.33816
1083.62389 2.35703
1081.57545 2.37705
1079.52701 2.39502
1077.47858 2.41078
1075.43014 2.42319
1073.38170 2.43178
1071.33326 2.43968
1069.28482 2.44150
1067.23638 2.41913
1065.18795 2.36769
1063.13951 2.30089
1061.09107 2.23046
1059.04263 2.16479
1056.99419 2.10869
1054.94575 2.06262
1052.89732 2.02457
1050.84888 1.99408
1048.80044 1.97415
1046.75200 1.96602
1044.70356 1.96909
1042.65512 1.98205
1040.60669 2.00031
1038.55825 2.01853
1036.50981 2.03461
1034.46137 2.04898
1032.41293 2.06215
1030.36449 2.07343
1028.31606 2.08394
1026.26762 2.09590
1024.21918 2.10769
1022.17074 2.11650
1020.12230 2.12175
1018.07386 2.12594
1016.02543 2.13274
1013.97699 2.14090
1011.92855 2.14732
1009.88011 2.15212
1007.83167 2.15645
1005.78323 2.16245
1003.73480 2.17056
1001.68636 2.17950
999.63792 2.18882
997.58948 2.19664
995.54104 2.20342
993.49260 2.21016
991.44417 2.21463
989.39573 2.21803
987.34729 2.22467
985.29885 2.23362
983.25041 2.24083
981.20197 2.24797
979.15354 2.25696
977.10510 2.26523
975.05666 2.27185
973.00822 2.27706
970.95978 2.28158
968.91134 2.28647
966.86290 2.29028
964.81447 2.29282
962.76603 2.29739
960.71759 2.30330
958.66915 2.30818
956.62071 2.31664
954.57227 2.33004
952.52384 2.34079
950.47540 2.34515
948.42696 2.34763
946.37852 2.35431
944.33008 2.36657
942.28164 2.38121
940.23321 2.39181
938.18477 2.39268
936.13633 2.38984
934.08789 2.39271
932.03945 2.40122
929.99101 2.41272
927.94258 2.42507
925.89414 2.43001
923.84570 2.42792
921.79726 2.43185
919.74882 2.44233
917.70038 2.45181
915.65195 2.45976
913.60351 2.46237
911.55507 2.45497
909.50663 2.44366
907.45819 2.42953
905.40975 2.40604
903.36132 2.37338
901.31288 2.33487
899.26444 2.29211
897.21600 2.24810
895.16756 2.20944
893.11912 2.17626
891.07069 2.14239
889.02225 2.11066
886.97381 2.08803
884.92537 2.07418
882.87693 2.06609
880.82849 2.06091
878.78006 2.05566
876.73162 2.05099
874.68318 2.04884
872.63474 2.04972
870.58630 2.05086
868.53786 2.04965
866.48943 2.05312
864.44099 2.06700
862.39255 2.08207
860.34411 2.09005
858.29567 2.09847
856.24723 2.11241
854.19880 2.12492
852.15036 2.13472
850.10192 2.14745
848.05348 2.15962
846.00504 2.16576
843.95660 2.16895
841.90817 2.16885
839.85973 2.15964
837.81129 2.13772
835.76285 2.09975
833.71441 2.04497
831.66597 1.97903
829.61753 1.91238
827.56910 1.85437
825.52066 1.80954
823.47222 1.77864
821.42378 1.76424
819.37534 1.77678
817.32690 1.82401
815.27847 1.89512
813.23003 1.96492
811.18159 2.01805
809.13315 2.05683
807.08471 2.08305
805.03627 2.09804
802.98784 2.11040
800.93940 2.12601
798.89096 2.14344
796.84252 2.15848
794.79408 2.17015
792.74564 2.18190
790.69721 2.19281
788.64877 2.19742
786.60033 2.19148
784.55189 2.17672
782.50345 2.15988
780.45501 2.14179
778.40658 2.12931
776.35814 2.12781
774.30970 2.12644
772.26126 2.12346
770.21282 2.12456
768.16438 2.12820
766.11595 2.13896
764.06751 2.16176
762.01907 2.18967
759.97063 2.21382
757.92219 2.21938
755.87375 2.18790
753.82532 2.12736
751.77688 2.06359
749.72844 2.02024
747.68000 2.00826
745.63156 2.01690
743.58312 2.03095
741.53469 2.04612
739.48625 2.05930
737.43781 2.06833
735.38937 2.07146
733.34093 2.06770
731.29249 2.06396
729.24406 2.06507
727.19562 2.06677
725.14718 2.06624
723.09874 2.07108
721.05030 2.08320
719.00186 2.09272
716.95343 2.09421
714.90499 2.08229
712.85655 2.06246
710.80811 2.04958
708.75967 2.04467
706.71123 2.04626
704.66280 2.05007
702.61436 2.05119
700.56592 2.05417
698.51748 2.06179
696.46904 2.07218
694.42060 2.07709
692.37216 2.07319
690.32373 2.07084
688.27529 2.07330
686.22685 2.07794
684.17841 2.08153
682.12997 2.07538
680.08153 2.06099
678.03310 2.05129
675.98466 2.05806
673.93622 2.07315
671.88778 2.07843
669.83934 2.07721
667.79090 2.07763
665.74247 2.07358
663.69403 2.06503
661.64559 2.06518
659.59715 2.08376
657.54871 2.10942
655.50027 2.13000
653.45184 2.14573
651.40340 2.14018
649.35496 2.11008
647.30652 2.09711
645.25808 2.10602
643.20964 2.10971
641.16121 2.11584
639.11277 2.13857
637.06433 2.16373
635.01589 2.18122
632.96745 2.19383
630.91901 2.17786
628.87058 2.14121
626.82214 2.14060
624.77370 2.17582
622.72526 2.19115
620.67682 2.18962
618.62838 2.19168
616.57995 2.20779
614.53151 2.24946
612.48307 2.28485
610.43463 2.31320
608.38619 2.36075
606.33775 2.39677
604.28932 2.33677
602.24088 2.28352
600.19244 2.34321
598.14400 2.38466
