3996.50324 1.51996
3994.45480 1.52080
3992.40636 1.52107
3990.35792 1.52072
3988.30948 1.52044
3986.26104 1.52054
3984.21261 1.52076
3982.16417 1.52072
3980.11573 1.52029
3978.06729 1.51987
3976.01885 1.52024
3973.97041 1.52080
3971.92198 1.52043
3969.87354 1.52030
3967.82510 1.52128
3965.77666 1.52226
3963.72822 1.52212
3961.67978 1.52130
3959.63135 1.52083
3957.58291 1.52103
3955.53447 1.52195
3953.48603 1.52294
3951.43759 1.52360
3949.38915 1.52472
3947.34072 1.52595
3945.29228 1.52608
3943.24384 1.52596
3941.19540 1.52668
3939.14696 1.52757
3937.09852 1.52776
3935.05009 1.52705
3933.00165 1.52727
3930.95321 1.53030
3928.90477 1.53392
3926.85633 1.53605
3924.80789 1.53730
3922.75946 1.53839
3920.71102 1.53948
3918.66258 1.54111
3916.61414 1.54340
3914.56570 1.54457
3912.51726 1.54498
3910.46883 1.54685
3908.42039 1.54944
3906.37195 1.55161
3904.32351 1.55475
3902.27507 1.55757
3900.22663 1.55806
3898.17820 1.55782
3896.12976 1.55736
3894.08132 1.55726
3892.03288 1.55856
3889.98444 1.55969
3887.93600 1.55918
3885.88756 1.55933
3883.83913 1.56024
3881.79069 1.56110
3879.74225 1.56312
3877.69381 1.56276
3875.64537 1.56096
3873.59693 1.56108
3871.54850 1.56305
3869.50006 1.56507
3867.45162 1.56417
3865.40318 1.56235
3863.35474 1.56096
3861.30630 1.55826
3859.25787 1.55596
3857.20943 1.55547
3855.16099 1.55749
3853.11255 1.56212
3851.06411 1.56074
3849.01567 1.55690
3846.96724 1.55439
3844.91880 1.55307
3842.87036 1.55287
3840.82192 1.55369
3838.77348 1.55597
3836.72504 1.55818
3834.67661 1.55817
3832.62817 1.55739
3830.57973 1.55652
3828.53129 1.55606
3826.48285 1.55820
3824.43441 1.56084
3822.38598 1.56306
3820.33754 1.56834
3818.28910 1.57007
3816.24066 1.56835
3814.19222 1.56691
3812.14378 1.56599
3810.09535 1.56633
3808.04691 1.56910
3805.99847 1.57260
3803.95003 1.57332
3801.90159 1.57464
3799.85315 1.57591
3797.80472 1.57454
3795.75628 1.57309
3793.70784 1.57132
3791.65940 1.56988
3789.61096 1.56966
3787.56252 1.57040
3785.51409 1.57305
3783.46565 1.57582
3781.41721 1.57718
3779.36877 1.57980
3777.32033 1.58228
3775.27189 1.58348
3773.22346 1.58518
3771.17502 1.58770
3769.12658 1.59100
3767.07814 1.59408
3765.02970 1.59654
3762.98126 1.59759
3760.93283 1.59796
3758.88439 1.60045
3756.83595 1.60369
3754.78751 1.60602
3752.73907 1.61046
3750.69063 1.61938
3748.64219 1.62345
3746.59376 1.62320
3744.54532 1.62648
3742.49688 1.62960
3740.44844 1.62923
3738.40000 1.62945
3736.35156 1.63382
3734.30313 1.63881
3732.25469 1.63805
3730.20625 1.63714
3728.15781 1.63959
3726.10937 1.64505
3724.06093 1.65103
3722.01250 1.65574
3719.96406 1.65925
3717.91562 1.66289
3715.86718 1.66725
3713.81874 1.67338
3711.77030 1.68362
3709.72187 1.69258
3707.67343 1.69666
3705.62499 1.70135
3703.57655 1.70978
3701.52811 1.72295
3699.47967 1.73614
3697.43124 1.74556
3695.38280 1.75177
3693.33436 1.75526
3691.28592 1.75548
3689.23748 1.75075
3687.18904 1.74572
3685.14061 1.74359
3683.09217 1.74283
3681.04373 1.74352
3678.99529 1.74650
3676.94685 1.75405
3674.89841 1.76589
3672.84998 1.77161
3670.80154 1.77348
3668.75310 1.77615
3666.70466 1.77883
3664.65622 1.78217
3662.60778 1.78772
3660.55935 1.79374
3658.51091 1.79927
3656.46247 1.80804
3654.41403 1.81719
3652.36559 1.82338
3650.31715 1.83297
3648.26872 1.84635
3646.22028 1.85341
3644.17184 1.85681
3642.12340 1.86080
3640.07496 1.86831
3638.02652 1.87595
3635.97809 1.88078
3633.92965 1.88932
3631.88121 1.90331
3629.83277 1.92028
3627.78433 1.93710
3625.73589 1.94446
3623.68746 1.95056
3621.63902 1.96162
3619.59058 1.97807
3617.54214 1.99065
3615.49370 1.99339
3613.44526 1.99209
3611.39682 1.99350
3609.34839 1.99840
3607.29995 2.00189
3605.25151 2.00382
3603.20307 2.00926
3601.15463 2.02002
3599.10619 2.03100
3597.05776 2.03780
3595.00932 2.04012
3592.96088 2.03940
3590.91244 2.03884
3588.86400 2.04266
3586.81556 2.05403
3584.76713 2.06322
3582.71869 2.06664
3580.67025 2.07054
3578.62181 2.07538
3576.57337 2.08005
3574.52493 2.08827
3572.47650 2.09598
3570.42806 2.09838
3568.37962 2.10202
3566.33118 2.11364
3564.28274 2.12400
3562.23430 2.13104
3560.18587 2.13911
3558.13743 2.14809
3556.08899 2.15519
3554.04055 2.15672
3551.99211 2.15718
3549.94367 2.16165
3547.89524 2.16809
3545.84680 2.17641
3543.79836 2.18234
3541.74992 2.18434
3539.70148 2.18952
3537.65304 2.20034
3535.60461 2.21177
3533.55617 2.21772
3531.50773 2.22060
3529.45929 2.22443
3527.41085 2.22602
3525.36241 2.22644
3523.31398 2.23042
3521.26554 2.23580
3519.21710 2.24252
3517.16866 2.25266
3515.12022 2.26184
3513.07178 2.26633
3511.02335 2.26485
3508.97491 2.25812
3506.92647 2.25484
3504.87803 2.26146
3502.82959 2.27382
3500.78115 2.27886
3498.73272 2.27471
3496.68428 2.27354
3494.63584 2.27819
3492.58740 2.28105
3490.53896 2.28240
3488.49052 2.28491
3486.44209 2.28927
3484.39365 2.29323
3482.34521 2.29154
3480.29677 2.28977
3478.24833 2.29435
3476.19989 2.29913
3474.15146 2.30001
3472.10302 2.29940
3470.05458 2.29889
3468.00614 2.30075
3465.95770 2.30790
3463.90926 2.31844
3461.86082 2.32664
3459.81239 2.33237
3457.76395 2.33699
3455.71551 2.33684
3453.66707 2.33324
3451.61863 2.33575
3449.57019 2.34637
3447.52176 2.35276
3445.47332 2.34942
3443.42488 2.34510
3441.37644 2.34593
3439.32800 2.35314
3437.27956 2.36255
3435.23113 2.36711
3433.18269 2.36806
3431.13425 2.36913
3429.08581 2.36639
3427.03737 2.36242
3424.98893 2.36125
3422.94050 2.35618
3420.89206 2.34615
3418.84362 2.33500
3416.79518 2.32132
3414.74674 2.30759
3412.69830 2.29633
3410.64987 2.28545
3408.60143 2.27637
3406.55299 2.27294
3404.50455 2.27240
3402.45611 2.27058
3400.40767 2.26927
3398.35924 2.26884
3396.31080 2.27159
3394.26236 2.28091
3392.21392 2.28824
3390.16548 2.28907
3388.11704 2.29225
3386.06861 2.29858
3384.02017 2.30098
3381.97173 2.29958
3379.92329 2.29998
3377.87485 2.30237
3375.82641 2.30438
3373.77798 2.30843
3371.72954 2.31398
3369.68110 2.31202
3367.63266 2.30459
3365.58422 2.30266
3363.53578 2.30238
3361.48735 2.30262
3359.43891 2.30822
3357.39047 2.31089
3355.34203 2.30601
3353.29359 2.30305
3351.24515 2.30519
3349.19672 2.30635
3347.14828 2.30410
3345.09984 2.29968
3343.05140 2.29661
3341.00296 2.29484
3338.95452 2.29112
3336.90609 2.28736
3334.85765 2.28625
3332.80921 2.28408
3330.76077 2.27302
3328.71233 2.25524
3326.66389 2.24261
3324.61545 2.23641
3322.56702 2.22865
3320.51858 2.21878
3318.47014 2.21049
3316.42170 2.20436
3314.37326 2.19882
3312.32482 2.19441
3310.27639 2.19302
3308.22795 2.19268
3306.17951 2.19005
3304.13107 2.18489
3302.08263 2.18162
3300.03419 2.18219
3297.98576 2.18348
3295.93732 2.18752
3293.88888 2.19546
3291.84044 2.20087
3289.79200 2.20169
3287.74356 2.20102
3285.69513 2.19994
3283.64669 2.19837
3281.59825 2.19764
3279.54981 2.19821
3277.50137 2.19859
3275.45293 2.20079
3273.40450 2.20318
3271.35606 2.20028
3269.30762 2.19740
3267.25918 2.19948
3265.21074 2.19983
3263.16230 2.19684
3261.11387 2.19777
3259.06543 2.20324
3257.01699 2.20663
3254.96855 2.20593
3252.92011 2.20570
3250.87167 2.20570
3248.82324 2.20267
3246.77480 2.19831
3244.72636 2.19709
3242.67792 2.20109
3240.62948 2.20439
3238.58104 2.20247
3236.53261 2.20028
3234.48417 2.20150
3232.43573 2.20376
3230.38729 2.20376
3228.33885 2.20010
3226.29041 2.19552
3224.24198 2.19563
3222.19354 2.19992
3220.14510 2.20248
3218.09666 2.20036
3216.04822 2.19396
3213.99978 2.18894
3211.95135 2.19164
3209.90291 2.19617
3207.85447 2.19401
3205.80603 2.18923
3203.75759 2.18658
3201.70915 2.18540
3199.66072 2.18554
3197.61228 2.18573
3195.56384 2.18469
3193.51540 2.18254
3191.46696 2.18032
3189.41852 2.18081
3187.37008 2.18409
3185.32165 2.18519
3183.27321 2.18139
3181.22477 2.17676
3179.17633 2.17526
3177.12789 2.17590
3175.07945 2.17565
3173.03102 2.17323
3170.98258 2.16998
3168.93414 2.16847
3166.88570 2.16869
3164.83726 2.16824
3162.78882 2.16740
3160.74039 2.16668
3158.69195 2.16508
3156.64351 2.16333
3154.59507 2.16260
3152.54663 2.16205
3150.49819 2.16032
3148.44976 2.15742
3146.40132 2.15256
3144.35288 2.14779
3142.30444 2.14609
3140.25600 2.14502
3138.20756 2.14270
3136.15913 2.14042
3134.11069 2.14027
3132.06225 2.14211
3130.01381 2.14195
3127.96537 2.14053
3125.91693 2.14158
3123.86850 2.14179
3121.82006 2.13770
3119.77162 2.13250
3117.72318 2.12883
3115.67474 2.12624
3113.62630 2.12566
3111.57787 2.12738
3109.52943 2.12776
3107.48099 2.12482
3105.43255 2.11983
3103.38411 2.11555
3101.33567 2.11418
3099.28724 2.11435
3097.23880 2.11606
3095.19036 2.11763
3093.14192 2.11470
3091.09348 2.10979
3089.04504 2.10802
3086.99661 2.10900
3084.94817 2.10833
3082.89973 2.10561
3080.85129 2.10387
3078.80285 2.10221
3076.75441 2.10079
3074.70598 2.10110
3072.65754 2.10174
3070.60910 2.10151
3068.56066 2.09891
3066.51222 2.09508
3064.46378 2.09337
3062.41535 2.09291
3060.36691 2.09002
3058.31847 2.08521
3056.27003 2.08194
3054.22159 2.07929
3052.17315 2.07640
3050.12471 2.07537
3048.07628 2.07545
3046.02784 2.07348
3043.97940 2.06817
3041.93096 2.06311
3039.88252 2.06129
3037.83408 2.05946
3035.78565 2.05659
3033.73721 2.05544
3031.68877 2.05530
3029.64033 2.05429
3027.59189 2.05147
3025.54345 2.04754
3023.49502 2.04522
3021.44658 2.04388
3019.39814 2.04127
3017.34970 2.03873
3015.30126 2.03638
3013.25282 2.03262
3011.20439 2.02951
3009.15595 2.02877
3007.10751 2.02848
3005.05907 2.02656
3003.01063 2.02305
3000.96219 2.01993
2998.91376 2.01855
2996.86532 2.01888
2994.81688 2.02029
2992.76844 2.02017
2990.72000 2.01746
2988.67156 2.01574
2986.62313 2.01619
2984.57469 2.01675
2982.52625 2.01735
2980.47781 2.01784
2978.42937 2.01662
2976.38093 2.01407
2974.33250 2.01305
2972.28406 2.01371
2970.23562 2.01298
2968.18718 2.01149
2966.13874 2.01144
2964.09030 2.01124
2962.04187 2.00989
2959.99343 2.00969
2957.94499 2.01094
2955.89655 2.01093
2953.84811 2.00908
2951.79967 2.00624
2949.75124 2.00299
2947.70280 2.00204
2945.65436 2.00360
2943.60592 2.00315
2941.55748 2.00089
2939.50904 2.00088
2937.46061 2.00343
2935.41217 2.00582
2933.36373 2.00587
2931.31529 2.00504
2929.26685 2.00481
2927.21841 2.00369
2925.16998 2.00240
2923.12154 2.00355
2921.07310 2.00556
2919.02466 2.00552
2916.97622 2.00458
2914.92778 2.00428
2912.87934 2.00406
2910.83091 2.00434
2908.78247 2.00487
2906.73403 2.00313
2904.68559 2.00012
2902.63715 1.99849
2900.58871 1.99653
2898.54028 1.99258
2896.49184 1.98948
2894.44340 1.98897
2892.39496 1.98779
2890.34652 1.98445
2888.29808 1.98150
2886.24965 1.97984
2884.20121 1.97876
2882.15277 1.97829
2880.10433 1.97808
2878.05589 1.97797
2876.00745 1.97798
2873.95902 1.97747
2871.91058 1.97655
2869.86214 1.97610
2867.81370 1.97607
2865.76526 1.97533
2863.71682 1.97387
2861.66839 1.97348
2859.61995 1.97521
2857.57151 1.97678
2855.52307 1.97570
2853.47463 1.97294
2851.42619 1.97106
2849.37776 1.97021
2847.32932 1.96787
2845.28088 1.96489
2843.23244 1.96398
2841.18400 1.96379
2839.13556 1.96266
2837.08713 1.96066
2835.03869 1.95778
2832.99025 1.95552
2830.94181 1.95507
2828.89337 1.95551
2826.84493 1.95611
2824.79650 1.95656
2822.74806 1.95654
2820.69962 1.95631
2818.65118 1.95679
2816.60274 1.95820
2814.55430 1.95889
2812.50587 1.95813
2810.45743 1.95711
2808.40899 1.95651
2806.36055 1.95642
2804.31211 1.95604
2802.26367 1.95543
2800.21524 1.95577
2798.16680 1.95541
2796.11836 1.95268
2794.06992 1.94876
2792.02148 1.94470
2789.97304 1.94029
2787.92461 1.93523
2785.87617 1.93029
2783.82773 1.92674
2781.77929 1.92401
2779.73085 1.92085
2777.68241 1.91787
2775.63397 1.91544
2773.58554 1.91342
2771.53710 1.91187
2769.48866 1.91069
2767.44022 1.91080
2765.39178 1.91125
2763.34334 1.91034
2761.29491 1.90866
2759.24647 1.90634
2757.19803 1.90392
2755.14959 1.90279
2753.10115 1.90331
2751.05271 1.90398
2749.00428 1.90298
2746.95584 1.90182
2744.90740 1.90178
2742.85896 1.90176
2740.81052 1.90108
2738.76208 1.89961
2736.71365 1.89789
2734.66521 1.89653
2732.61677 1.89629
2730.56833 1.89657
2728.51989 1.89589
2726.47145 1.89489
2724.42302 1.89450
2722.37458 1.89384
2720.32614 1.89214
2718.27770 1.89050
2716.22926 1.88982
2714.18082 1.88946
2712.13239 1.88840
2710.08395 1.88628
2708.03551 1.88437
2705.98707 1.88412
2703.93863 1.88463
2701.89019 1.88485
2699.84176 1.88533
2697.79332 1.88496
2695.74488 1.88338
2693.69644 1.88301
2691.64800 1.88401
2689.59956 1.88487
2687.55113 1.88489
2685.50269 1.88393
2683.45425 1.88292
2681.40581 1.88293
2679.35737 1.88341
2677.30893 1.88266
2675.26050 1.88092
2673.21206 1.87949
2671.16362 1.87731
2669.11518 1.87420
2667.06674 1.87247
2665.01830 1.87213
2662.96987 1.87178
2660.92143 1.87166
2658.87299 1.87159
2656.82455 1.87077
2654.77611 1.86983
2652.72767 1.86972
2650.67924 1.87001
2648.63080 1.87016
2646.58236 1.87025
2644.53392 1.87069
2642.48548 1.87072
2640.43704 1.86998
2638.38860 1.86991
2636.34017 1.87052
2634.29173 1.87067
2632.24329 1.87064
2630.19485 1.87122
2628.14641 1.87262
2626.09797 1.87450
2624.04954 1.87555
2622.00110 1.87537
2619.95266 1.87546
2617.90422 1.87685
2615.85578 1.87854
2613.80734 1.87906
2611.75891 1.87891
2609.71047 1.87898
2607.66203 1.87982
2605.61359 1.88175
2603.56515 1.88433
2601.51671 1.88709
2599.46828 1.88957
2597.41984 1.89175
2595.37140 1.89393
2593.32296 1.89631
2591.27452 1.89910
2589.22608 1.90284
2587.17765 1.90709
2585.12921 1.91039
2583.08077 1.91265
2581.03233 1.91533
2578.98389 1.91814
2576.93545 1.91956
2574.88702 1.92110
2572.83858 1.92467
2570.79014 1.92865
2568.74170 1.93132
2566.69326 1.93359
2564.64482 1.93676
2562.59639 1.94074
2560.54795 1.94511
2558.49951 1.94898
2556.45107 1.95140
2554.40263 1.95395
2552.35419 1.95731
2550.30576 1.95978
2548.25732 1.96168
2546.20888 1.96315
2544.16044 1.96314
2542.11200 1.96191
2540.06356 1.96027
2538.01513 1.95890
2535.96669 1.95909
2533.91825 1.96030
2531.86981 1.96003
2529.82137 1.95824
2527.77293 1.95716
2525.72450 1.95793
2523.67606 1.95848
2521.62762 1.95668
2519.57918 1.95406
2517.53074 1.95187
2515.48230 1.94921
2513.43387 1.94572
2511.38543 1.94124
2509.33699 1.93575
2507.28855 1.92971
2505.24011 1.92371
2503.19167 1.91963
2501.14324 1.91807
2499.09480 1.91679
2497.04636 1.91435
2494.99792 1.91169
2492.94948 1.90960
2490.90104 1.90842
2488.85260 1.90919
2486.80417 1.91068
2484.75573 1.91063
2482.70729 1.90841
2480.65885 1.90618
2478.61041 1.90644
2476.56197 1.90730
2474.51354 1.90657
2472.46510 1.90529
2470.41666 1.90486
2468.36822 1.90540
2466.31978 1.90672
2464.27134 1.90919
2462.22291 1.91234
2460.17447 1.91428
2458.12603 1.91471
2456.07759 1.91580
2454.02915 1.91804
2451.98071 1.91996
2449.93228 1.92151
2447.88384 1.92446
2445.83540 1.92893
2443.78696 1.93326
2441.73852 1.93763
2439.69008 1.94263
2437.64165 1.94694
2435.59321 1.94911
2433.54477 1.95064
2431.49633 1.95286
2429.44789 1.95480
2427.39945 1.95674
2425.35102 1.95827
2423.30258 1.95733
2421.25414 1.95535
2419.20570 1.95500
2417.15726 1.95512
2415.10882 1.95350
2413.06039 1.95005
2411.01195 1.94703
2408.96351 1.94541
2406.91507 1.94430
2404.86663 1.94380
2402.81819 1.94309
2400.76976 1.94089
2398.72132 1.93671
2396.67288 1.93083
2394.62444 1.92528
2392.57600 1.92141
2390.52756 1.91766
2388.47913 1.91266
2386.43069 1.90728
2384.38225 1.90231
2382.33381 1.89761
2380.28537 1.89279
2378.23693 1.88799
2376.18850 1.88310
2374.14006 1.87826
2372.09162 1.87396
2370.04318 1.86816
2367.99474 1.86124
2365.94630 1.85504
2363.89787 1.85030
2361.84943 1.84845
2359.80099 1.84621
2357.75255 1.84201
2355.70411 1.83750
2353.65567 1.83536
2351.60723 1.83627
2349.55880 1.83783
2347.51036 1.83838
2345.46192 1.83572
2343.41348 1.82972
2341.36504 1.82580
2339.31660 1.82684
2337.26817 1.83084
2335.21973 1.83405
2333.17129 1.83409
2331.12285 1.83194
2329.07441 1.83038
2327.02597 1.83071
2324.97754 1.83198
2322.92910 1.83170
2320.88066 1.83054
2318.83222 1.83109
2316.78378 1.83307
2314.73534 1.83572
2312.68691 1.83707
2310.63847 1.83556
2308.59003 1.83376
2306.54159 1.83364
2304.49315 1.83398
2302.44471 1.83503
2300.39628 1.83751
2298.34784 1.83919
2296.29940 1.83849
2294.25096 1.83671
2292.20252 1.83531
2290.15408 1.83506
2288.10565 1.83567
2286.05721 1.83624
2284.00877 1.83670
2281.96033 1.83763
2279.91189 1.83941
2277.86345 1.84109
2275.81502 1.84189
2273.76658 1.84266
2271.71814 1.84390
2269.66970 1.84479
2267.62126 1.84510
2265.57282 1.84629
2263.52439 1.84878
2261.47595 1.85168
2259.42751 1.85378
2257.37907 1.85413
2255.33063 1.85456
2253.28219 1.85685
2251.23376 1.85950
2249.18532 1.86113
2247.13688 1.86211
2245.08844 1.86294
2243.04000 1.86443
2240.99156 1.86688
2238.94313 1.86967
2236.89469 1.87246
2234.84625 1.87476
2232.79781 1.87594
2230.74937 1.87636
2228.70093 1.87695
2226.65250 1.87830
2224.60406 1.88031
2222.55562 1.88254
2220.50718 1.88494
2218.45874 1.88738
2216.41030 1.88968
2214.36186 1.89172
2212.31343 1.89347
2210.26499 1.89497
2208.21655 1.89565
2206.16811 1.89627
2204.11967 1.89905
2202.07123 1.90294
2200.02280 1.90414
2197.97436 1.90313
2195.92592 1.90406
2193.87748 1.90761
2191.82904 1.91083
2189.78060 1.91244
2187.73217 1.91452
2185.68373 1.91803
2183.63529 1.92096
2181.58685 1.92304
2179.53841 1.92605
2177.48997 1.92996
2175.44154 1.93301
2173.39310 1.93507
2171.34466 1.93820
2169.29622 1.94217
2167.24778 1.94494
2165.19934 1.94724
2163.15091 1.94938
2161.10247 1.94912
2159.05403 1.94739
2157.00559 1.94558
2154.95715 1.94209
2152.90871 1.93741
2150.86028 1.93344
2148.81184 1.93131
2146.76340 1.93147
2144.71496 1.93145
2142.66652 1.92910
2140.61808 1.92654
2138.56965 1.92589
2136.52121 1.92711
2134.47277 1.92916
2132.42433 1.93018
2130.37589 1.92996
2128.32745 1.93026
2126.27902 1.93127
2124.23058 1.93173
2122.18214 1.93166
2120.13370 1.93225
2118.08526 1.93374
2116.03682 1.93424
2113.98839 1.93272
2111.93995 1.93037
2109.89151 1.92978
2107.84307 1.93223
2105.79463 1.93478
2103.74619 1.93609
2101.69776 1.93927
2099.64932 1.94497
2097.60088 1.95108
2095.55244 1.95655
2093.50400 1.96125
2091.45556 1.96674
2089.40713 1.97480
2087.35869 1.98494
2085.31025 1.99518
2083.26181 2.00341
2081.21337 2.00882
2079.16493 2.01227
2077.11649 2.01510
2075.06806 2.01552
2073.01962 2.01175
2070.97118 2.00516
2068.92274 1.99603
2066.87430 1.98479
2064.82586 1.97334
2062.77743 1.96372
2060.72899 1.95608
2058.68055 1.94890
2056.63211 1.94260
2054.58367 1.93836
2052.53523 1.93484
2050.48680 1.92976
2048.43836 1.92359
2046.38992 1.91825
2044.34148 1.91433
2042.29304 1.91135
2040.24460 1.90844
2038.19617 1.90537
2036.14773 1.90353
2034.09929 1.90371
2032.05085 1.90417
2030.00241 1.90280
2027.95397 1.90059
2025.90554 1.89962
2023.85710 1.89985
2021.80866 1.90079
2019.76022 1.90251
2017.71178 1.90394
2015.66334 1.90408
2013.61491 1.90475
2011.56647 1.90666
2009.51803 1.90899
2007.46959 1.91254
2005.42115 1.91662
2003.37271 1.91929
2001.32428 1.92070
1999.27584 1.92263
1997.22740 1.92562
1995.17896 1.92908
1993.13052 1.93330
1991.08208 1.93707
1989.03365 1.93844
1986.98521 1.93923
1984.93677 1.94188
1982.88833 1.94567
1980.83989 1.94867
1978.79145 1.95077
1976.74302 1.95309
1974.69458 1.95543
1972.64614 1.95740
1970.59770 1.95935
1968.54926 1.96138
1966.50082 1.96361
1964.45239 1.96600
1962.40395 1.96882
1960.35551 1.97199
1958.30707 1.97444
1956.25863 1.97515
1954.21019 1.97467
1952.16176 1.97495
1950.11332 1.97632
1948.06488 1.97798
1946.01644 1.98021
1943.96800 1.98351
1941.91956 1.98714
1939.87112 1.98862
1937.82269 1.98829
1935.77425 1.98926
1933.72581 1.99243
1931.67737 1.99535
1929.62893 1.99632
1927.58049 1.99671
1925.53206 1.99820
1923.48362 2.00012
1921.43518 2.00005
1919.38674 1.99874
1917.33830 1.99846
1915.28986 1.99845
1913.24143 1.99840
1911.19299 1.99894
1909.14455 1.99903
1907.09611 1.99802
1905.04767 1.99671
1902.99923 1.99583
1900.95080 1.99617
1898.90236 1.99787
1896.85392 1.99996
1894.80548 2.00214
1892.75704 2.00395
1890.70860 2.00526
1888.66017 2.00692
1886.61173 2.00892
1884.56329 2.01151
1882.51485 2.01383
1880.46641 2.01491
1878.41797 2.01679
1876.36954 2.02009
1874.32110 2.02275
1872.27266 2.02551
1870.22422 2.03073
1868.17578 2.03593
1866.12734 2.03810
1864.07891 2.04069
1862.03047 2.04546
1859.98203 2.05129
1857.93359 2.05668
1855.88515 2.06173
1853.83671 2.06812
1851.78828 2.07527
1849.73984 2.08171
1847.69140 2.08844
1845.64296 2.09729
1843.59452 2.10759
1841.54608 2.11398
1839.49765 2.11776
1837.44921 2.12095
1835.40077 2.12222
1833.35233 2.12178
1831.30389 2.12058
1829.25545 2.11929
1827.20702 2.11965
1825.15858 2.12292
1823.11014 2.12844
1821.06170 2.13535
1819.01326 2.14350
1816.96482 2.15255
1814.91639 2.16240
1812.86795 2.17235
1810.81951 2.18201
1808.77107 2.19072
1806.72263 2.19718
1804.67419 2.20105
1802.62575 2.20264
1800.57732 2.20003
1798.52888 2.19226
1796.48044 2.18351
1794.43200 2.17591
1792.38356 2.16703
1790.33512 2.15864
1788.28669 2.15471
1786.23825 2.15267
1784.18981 2.15052
1782.14137 2.14897
1780.09293 2.14900
1778.04449 2.15058
1775.99606 2.15355
1773.94762 2.15676
1771.89918 2.15701
1769.85074 2.15435
1767.80230 2.15125
1765.75386 2.14728
1763.70543 2.14260
1761.65699 2.13897
1759.60855 2.13795
1757.56011 2.13732
1755.51167 2.13652
1753.46323 2.13581
1751.41480 2.13667
1749.36636 2.14198
1747.31792 2.14636
1745.26948 2.14773
1743.22104 2.14941
1741.17260 2.15219
1739.12417 2.15799
1737.07573 2.16596
1735.02729 2.17370
1732.97885 2.17888
1730.93041 2.18148
1728.88197 2.18371
1726.83354 2.18495
1724.78510 2.18741
1722.73666 2.19171
1720.68822 2.19626
1718.63978 2.20314
1716.59134 2.21276
1714.54291 2.21682
1712.49447 2.21813
1710.44603 2.22103
1708.39759 2.22641
1706.34915 2.23525
1704.30071 2.24293
1702.25228 2.24741
1700.20384 2.26029
1698.15540 2.27945
1696.10696 2.29065
1694.05852 2.29759
1692.01008 2.30470
1689.96165 2.31571
1687.91321 2.32802
1685.86477 2.33778
1683.81633 2.35047
1681.76789 2.35856
1679.71945 2.35817
1677.67102 2.35958
1675.62258 2.37008
1673.57414 2.38225
1671.52570 2.39042
1669.47726 2.40113
1667.42882 2.40643
1665.38038 2.40633
1663.33195 2.40925
1661.28351 2.41770
1659.23507 2.42541
1657.18663 2.42970
1655.13819 2.43675
1653.08975 2.45017
1651.04132 2.44873
1648.99288 2.44674
1646.94444 2.45337
1644.89600 2.46099
1642.84756 2.46450
1640.79912 2.46800
1638.75069 2.47237
1636.70225 2.47786
1634.65381 2.48903
1632.60537 2.49638
1630.55693 2.49886
1628.50849 2.50492
1626.46006 2.51718
1624.41162 2.53053
1622.36318 2.53797
1620.31474 2.53962
1618.26630 2.54210
1616.21786 2.54003
1614.16943 2.53764
1612.12099 2.54523
1610.07255 2.55589
1608.02411 2.56116
1605.97567 2.56082
1603.92723 2.55861
1601.87880 2.55849
1599.83036 2.56134
1597.78192 2.56518
1595.73348 2.57211
1593.68504 2.58178
1591.63660 2.59065
1589.58817 2.60125
1587.53973 2.61221
1585.49129 2.61623
1583.44285 2.61466
1581.39441 2.61695
1579.34597 2.62622
1577.29754 2.64068
1575.24910 2.64900
1573.20066 2.64371
1571.15222 2.63305
1569.10378 2.61728
1567.05534 2.60076
1565.00691 2.58578
1562.95847 2.57290
1560.91003 2.56005
1558.86159 2.52552
1556.81315 2.47598
1554.76471 2.43493
1552.71628 2.38909
1550.66784 2.34055
1548.61940 2.29515
1546.57096 2.26233
1544.52252 2.23641
1542.47408 2.20969
1540.42565 2.16278
1538.37721 2.11438
1536.32877 2.09354
1534.28033 2.07447
1532.23189 2.05112
1530.18345 2.03679
1528.13501 2.02723
1526.08658 2.01748
1524.03814 2.01247
1521.98970 2.01064
1519.94126 2.00472
1517.89282 1.99951
1515.84438 1.99820
1513.79595 1.99890
1511.74751 2.00242
1509.69907 2.00891
1507.65063 2.02287
1505.60219 2.04105
1503.55375 2.04867
1501.50532 2.05702
1499.45688 2.06926
1497.40844 2.08416
1495.36000 2.09882
1493.31156 2.11001
1491.26312 2.12500
1489.21469 2.15175
1487.16625 2.17288
1485.11781 2.18551
1483.06937 2.20241
1481.02093 2.22563
1478.97249 2.24982
1476.92406 2.27445
1474.87562 2.30051
1472.82718 2.32665
1470.77874 2.34956
1468.73030 2.36342
1466.68186 2.37597
1464.63343 2.39521
1462.58499 2.41163
1460.53655 2.42016
1458.48811 2.43445
1456.43967 2.45524
1454.39123 2.46242
1452.34280 2.47116
1450.29436 2.48000
1448.24592 2.48443
1446.19748 2.48502
1444.14904 2.47578
1442.10060 2.45323
1440.05217 2.42118
1438.00373 2.37359
1435.95529 2.30099
1433.90685 2.23923
1431.85841 2.18762
1429.80997 2.12507
1427.76154 2.06270
1425.71310 2.00493
1423.66466 1.94397
1421.61622 1.89161
1419.56778 1.84199
1417.51934 1.79182
1415.47091 1.76040
1413.42247 1.73947
1411.37403 1.72197
1409.32559 1.70836
1407.27715 1.69976
1405.22871 1.69424
1403.18028 1.69043
1401.13184 1.68893
1399.08340 1.69092
1397.03496 1.69576
1394.98652 1.70258
1392.93808 1.71148
1390.88965 1.72169
1388.84121 1.73674
1386.79277 1.75943
1384.74433 1.78251
1382.69589 1.80416
1380.64745 1.83043
1378.59901 1.86029
1376.55058 1.88922
1374.50214 1.91839
1372.45370 1.94519
1370.40526 1.96645
1368.35682 1.98554
1366.30838 2.00102
1364.25995 2.01489
1362.21151 2.02997
1360.16307 2.04095
1358.11463 2.04820
1356.06619 2.05568
1354.01775 2.06356
1351.96932 2.06941
1349.92088 2.07381
1347.87244 2.07864
1345.82400 2.08369
1343.77556 2.08842
1341.72712 2.09426
1339.67869 2.10185
1337.63025 2.10785
1335.58181 2.11050
1333.53337 2.11308
1331.48493 2.11816
1329.43649 2.12443
1327.38806 2.12967
1325.33962 2.13335
1323.29118 2.13518
1321.24274 2.13486
1319.19430 2.13356
1317.14586 2.13117
1315.09743 2.12818
1313.04899 2.12664
1311.00055 2.12507
1308.95211 2.12193
1306.90367 2.11863
1304.85523 2.11579
1302.80680 2.11387
1300.75836 2.11319
1298.70992 2.11204
1296.66148 2.10951
1294.61304 2.10655
1292.56460 2.10494
1290.51617 2.10457
1288.46773 2.10347
1286.41929 2.10119
1284.37085 2.10029
1282.32241 2.10198
1280.27397 2.10295
1278.22554 2.10116
1276.17710 2.09764
1274.12866 2.09356
1272.08022 2.09016
1270.03178 2.08732
1267.98334 2.08523
1265.93491 2.08487
1263.88647 2.08364
1261.83803 2.08012
1259.78959 2.07787
1257.74115 2.07850
1255.69271 2.07889
1253.64428 2.07646
1251.59584 2.07198
1249.54740 2.06740
1247.49896 2.06400
1245.45052 2.06167
1243.40208 2.05964
1241.35364 2.05769
1239.30521 2.05524
1237.25677 2.05345
1235.20833 2.05473
1233.15989 2.05650
1231.11145 2.05540
1229.06301 2.05310
1227.01458 2.05181
1224.96614 2.05134
1222.91770 2.05017
1220.86926 2.04815
1218.82082 2.04612
1216.77238 2.04486
1214.72395 2.04559
1212.67551 2.04850
1210.62707 2.05272
1208.57863 2.05857
1206.53019 2.06630
1204.48175 2.07542
1202.43332 2.08541
1200.38488 2.09333
1198.33644 2.09865
1196.28800 2.10482
1194.23956 2.11154
1192.19112 2.11710
1190.14269 2.12241
1188.09425 2.12790
1186.04581 2.13354
1183.99737 2.13911
1181.94893 2.14457
1179.90049 2.15197
1177.85206 2.16064
1175.80362 2.16615
1173.75518 2.17014
1171.70674 2.17711
1169.65830 2.18535
1167.60986 2.19313
1165.56143 2.20178
1163.51299 2.21335
1161.46455 2.22691
1159.41611 2.23619
1157.36767 2.23770
1155.31923 2.23510
1153.27080 2.23334
1151.22236 2.23165
1149.17392 2.22868
1147.12548 2.22627
1145.07704 2.22441
1143.02860 2.22440
1140.98017 2.22693
1138.93173 2.22883
1136.88329 2.22892
1134.83485 2.22932
1132.78641 2.23156
1130.73797 2.23614
1128.68954 2.24360
1126.64110 2.25150
1124.59266 2.25534
1122.54422 2.25681
1120.49578 2.26315
1118.44734 2.27589
1116.39891 2.28959
1114.35047 2.30025
1112.30203 2.30974
1110.25359 2.31859
1108.20515 2.32520
1106.15671 2.32924
1104.10827 2.32446
1102.05984 2.30622
1100.01140 2.27430
1097.96296 2.23450
1095.91452 2.20471
1093.86608 2.19752
1091.81764 2.20887
1089.76921 2.22649
1087.72077 2.24274
1085.67233 2.25730
1083.62389 2.27250
1081.57545 2.28930
1079.52701 2.30529
1077.47858 2.31756
1075.43014 2.32802
1073.38170 2.34051
1071.33326 2.35098
1069.28482 2.34442
1067.23638 2.31269
1065.18795 2.26857
1063.13951 2.22282
1061.09107 2.17584
1059.04263 2.13181
1056.99419 2.09597
1054.94575 2.06871
1052.89732 2.04943
1050.84888 2.03867
1048.80044 2.03863
1046.75200 2.05080
1044.70356 2.07195
1042.65512 2.09779
1040.60669 2.12602
1038.55825 2.15408
1036.50981 2.17872
1034.46137 2.19814
1032.41293 2.21564
1030.36449 2.23360
1028.31606 2.24806
1026.26762 2.25817
1024.21918 2.26632
1022.17074 2.27098
1020.12230 2.27261
1018.07386 2.27623
1016.02543 2.28434
1013.97699 2.29340
1011.92855 2.30089
1009.88011 2.30787
1007.83167 2.31310
1005.78323 2.31460
1003.73480 2.31627
1001.68636 2.32171
999.63792 2.32532
997.58948 2.32589
995.54104 2.33234
993.49260 2.34666
991.44417 2.36006
989.39573 2.36875
987.34729 2.37525
985.29885 2.37959
983.25041 2.38200
981.20197 2.38107
979.15354 2.37863
977.10510 2.37723
975.05666 2.37263
973.00822 2.36688
970.95978 2.36636
968.91134 2.36986
966.86290 2.37456
964.81447 2.37988
962.76603 2.38516
960.71759 2.38704
958.66915 2.38609
956.62071 2.39235
954.57227 2.40789
952.52384 2.42154
950.47540 2.42959
948.42696 2.44411
946.37852 2.46679
944.33008 2.48573
942.28164 2.50240
940.23321 2.51868
938.18477 2.53064
936.13633 2.54197
934.08789 2.55478
932.03945 2.57027
929.99101 2.59358
927.94258 2.61435
925.89414 2.61626
923.84570 2.61173
921.79726 2.61413
919.74882 2.61743
917.70038 2.61363
915.65195 2.60032
913.60351 2.58017
911.55507 2.55913
909.50663 2.53870
907.45819 2.51086
905.40975 2.47061
903.36132 2.42002
901.31288 2.36193
899.26444 2.30536
897.21600 2.25777
895.16756 2.21689
893.11912 2.18109
891.07069 2.15017
889.02225 2.12599
886.97381 2.11147
884.92537 2.10354
882.87693 2.10006
880.82849 2.10223
878.78006 2.10881
876.73162 2.11789
874.68318 2.12849
872.63474 2.13948
870.58630 2.14945
868.53786 2.15808
866.48943 2.16701
864.44099 2.17769
862.39255 2.19088
860.34411 2.20243
858.29567 2.20532
856.24723 2.20747
854.19880 2.21830
852.15036 2.23224
850.10192 2.24212
848.05348 2.24532
846.00504 2.24178
843.95660 2.23047
841.90817 2.20949
839.85973 2.18099
837.81129 2.15034
835.76285 2.11640
833.71441 2.07138
831.66597 2.01673
829.61753 1.96444
827.56910 1.92240
825.52066 1.88954
823.47222 1.86549
821.42378 1.85979
819.37534 1.88827
817.32690 1.95864
815.27847 2.05535
813.23003 2.14020
811.18159 2.18711
809.13315 2.20592
807.08471 2.21619
805.03627 2.22619
802.98784 2.23431
800.93940 2.24283
798.89096 2.25980
796.84252 2.28079
794.79408 2.29307
792.74564 2.29487
790.69721 2.28791
788.64877 2.27462
786.60033 2.25655
784.55189 2.23398
782.50345 2.21856
780.45501 2.21506
778.40658 2.21221
776.35814 2.21226
774.30970 2.22718
772.26126 2.24620
770.21282 2.25923
768.16438 2.28211
766.11595 2.31518
764.06751 2.34052
762.01907 2.36299
759.97063 2.38670
757.92219 2.38363
755.87375 2.32840
753.82532 2.24442
751.77688 2.17745
749.72844 2.14926
747.68000 2.15362
745.63156 2.16753
743.58312 2.17897
741.53469 2.19312
739.48625 2.20470
737.43781 2.21257
735.38937 2.22286
733.34093 2.22489
731.29249 2.22021
729.24406 2.22616
727.19562 2.23342
725.14718 2.23090
723.09874 2.23111
721.05030 2.23834
719.00186 2.25346
716.95343 2.27013
714.90499 2.25993
712.85655 2.22846
710.80811 2.21325
708.75967 2.21969
706.71123 2.23385
704.66280 2.24270
702.61436 2.23990
700.56592 2.24177
698.51748 2.25325
696.46904 2.24975
694.42060 2.22947
692.37216 2.22604
690.32373 2.25211
688.27529 2.27841
686.22685 2.27112
684.17841 2.25530
682.12997 2.26059
680.08153 2.25345
678.03310 2.23625
675.98466 2.24688
673.93622 2.27190
671.88778 2.30150
669.83934 2.33158
667.79090 2.32359
665.74247 2.28726
663.69403 2.26613
661.64559 2.27984
659.59715 2.32592
657.54871 2.35385
655.50027 2.34361
653.45184 2.33632
651.40340 2.35931
649.35496 2.37771
647.30652 2.39105
645.25808 2.45403
643.20964 2.48961
641.16121 2.39608
639.11277 2.29633
637.06433 2.25387
635.01589 2.25464
632.96745 2.29252
630.91901 2.31083
628.87058 2.27207
626.82214 2.24322
624.77370 2.26853
622.72526 2.34440
620.67682 2.42813
618.62838 2.39675
616.57995 2.29482
614.53151 2.27763
612.48307 2.33443
610.43463 2.37724
608.38619 2.40565
606.33775 2.42382
604.28932 2.35278
602.24088 2.26204
600.19244 2.24865
598.14400 2.25015
