3996.50324 1.22378
3994.45480 1.22410
3992.40636 1.22373
3990.35792 1.22359
3988.30948 1.22374
3986.26104 1.22344
3984.21261 1.22301
3982.16417 1.22282
3980.11573 1.22274
3978.06729 1.22303
3976.01885 1.22372
3973.97041 1.22430
3971.92198 1.22451
3969.87354 1.22452
3967.82510 1.22445
3965.77666 1.22425
3963.72822 1.22444
3961.67978 1.22515
3959.63135 1.22570
3957.58291 1.22646
3955.53447 1.22774
3953.48603 1.22893
3951.43759 1.22932
3949.38915 1.22932
3947.34072 1.22974
3945.29228 1.23013
3943.24384 1.23070
3941.19540 1.23161
3939.14696 1.23224
3937.09852 1.23283
3935.05009 1.23347
3933.00165 1.23464
3930.95321 1.23643
3928.90477 1.23723
3926.85633 1.23740
3924.80789 1.23871
3922.75946 1.24057
3920.71102 1.24208
3918.66258 1.24388
3916.61414 1.24576
3914.56570 1.24697
3912.51726 1.24749
3910.46883 1.24771
3908.42039 1.24827
3906.37195 1.25032
3904.32351 1.25449
3902.27507 1.25811
3900.22663 1.25898
3898.17820 1.25787
3896.12976 1.25651
3894.08132 1.25658
3892.03288 1.25803
3889.98444 1.25875
3887.93600 1.25885
3885.88756 1.26030
3883.83913 1.26239
3881.79069 1.26361
3879.74225 1.26417
3877.69381 1.26390
3875.64537 1.26422
3873.59693 1.26534
3871.54850 1.26568
3869.50006 1.26424
3867.45162 1.26197
3865.40318 1.26125
3863.35474 1.26114
3861.30630 1.25947
3859.25787 1.25806
3857.20943 1.25843
3855.16099 1.26101
3853.11255 1.26419
3851.06411 1.26176
3849.01567 1.25782
3846.96724 1.25516
3844.91880 1.25450
3842.87036 1.25609
3840.82192 1.25909
3838.77348 1.26266
3836.72504 1.26366
3834.67661 1.26175
3832.62817 1.25976
3830.57973 1.25846
3828.53129 1.25809
3826.48285 1.25900
3824.43441 1.26040
3822.38598 1.26268
3820.33754 1.26551
3818.28910 1.26563
3816.24066 1.26533
3814.19222 1.26442
3812.14378 1.26328
3810.09535 1.26396
3808.04691 1.26713
3805.99847 1.27021
3803.95003 1.27074
3801.90159 1.27116
3799.85315 1.27117
3797.80472 1.27046
3795.75628 1.26964
3793.70784 1.26850
3791.65940 1.26827
3789.61096 1.26909
3787.56252 1.27009
3785.51409 1.27121
3783.46565 1.27172
3781.41721 1.27257
3779.36877 1.27493
3777.32033 1.27628
3775.27189 1.27638
3773.22346 1.27747
3771.17502 1.28053
3769.12658 1.28405
3767.07814 1.28609
3765.02970 1.28821
3762.98126 1.29124
3760.93283 1.29556
3758.88439 1.30078
3756.83595 1.30375
3754.78751 1.30617
3752.73907 1.31122
3750.69063 1.31752
3748.64219 1.31918
3746.59376 1.31986
3744.54532 1.32305
3742.49688 1.32561
3740.44844 1.32696
3738.40000 1.33013
3736.35156 1.33641
3734.30313 1.34139
3732.25469 1.34266
3730.20625 1.34389
3728.15781 1.34691
3726.10937 1.35344
3724.06093 1.36215
3722.01250 1.37008
3719.96406 1.37743
3717.91562 1.38490
3715.86718 1.39287
3713.81874 1.40384
3711.77030 1.42126
3709.72187 1.43619
3707.67343 1.44418
3705.62499 1.45370
3703.57655 1.46792
3701.52811 1.48623
3699.47967 1.50123
3697.43124 1.51061
3695.38280 1.51758
3693.33436 1.52215
3691.28592 1.52334
3689.23748 1.51751
3687.18904 1.50699
3685.14061 1.50119
3683.09217 1.49947
3681.04373 1.50011
3678.99529 1.50299
3676.94685 1.50964
3674.89841 1.51897
3672.84998 1.52373
3670.80154 1.52824
3668.75310 1.53438
3666.70466 1.53801
3664.65622 1.54111
3662.60778 1.54559
3660.55935 1.55157
3658.51091 1.55888
3656.46247 1.56878
3654.41403 1.57810
3652.36559 1.58491
3650.31715 1.59511
3648.26872 1.60469
3646.22028 1.60610
3644.17184 1.60803
3642.12340 1.61234
3640.07496 1.61853
3638.02652 1.62613
3635.97809 1.63504
3633.92965 1.64490
3631.88121 1.65481
3629.83277 1.66935
3627.78433 1.69031
3625.73589 1.70281
3623.68746 1.71226
3621.63902 1.72407
3619.59058 1.73721
3617.54214 1.74461
3615.49370 1.74496
3613.44526 1.74309
3611.39682 1.74185
3609.34839 1.74405
3607.29995 1.74878
3605.25151 1.75392
3603.20307 1.76145
3601.15463 1.77094
3599.10619 1.77809
3597.05776 1.78278
3595.00932 1.78705
3592.96088 1.79136
3590.91244 1.79625
3588.86400 1.80464
3586.81556 1.81356
3584.76713 1.81639
3582.71869 1.81893
3580.67025 1.82436
3578.62181 1.83194
3576.57337 1.84079
3574.52493 1.84938
3572.47650 1.85625
3570.42806 1.86248
3568.37962 1.87038
3566.33118 1.88026
3564.28274 1.88788
3562.23430 1.89541
3560.18587 1.90424
3558.13743 1.91235
3556.08899 1.92122
3554.04055 1.93124
3551.99211 1.93975
3549.94367 1.94599
3547.89524 1.95272
3545.84680 1.96223
3543.79836 1.97347
3541.74992 1.98238
3539.70148 1.98849
3537.65304 1.99471
3535.60461 2.00194
3533.55617 2.00860
3531.50773 2.01469
3529.45929 2.02085
3527.41085 2.02674
3525.36241 2.03217
3523.31398 2.03583
3521.26554 2.03922
3519.21710 2.04648
3517.16866 2.05520
3515.12022 2.05949
3513.07178 2.06264
3511.02335 2.06991
3508.97491 2.07884
3506.92647 2.08554
3504.87803 2.09229
3502.82959 2.10075
3500.78115 2.10488
3498.73272 2.10491
3496.68428 2.10453
3494.63584 2.10440
3492.58740 2.10874
3490.53896 2.11539
3488.49052 2.11742
3486.44209 2.11938
3484.39365 2.12360
3482.34521 2.12656
3480.29677 2.13216
3478.24833 2.14032
3476.19989 2.14548
3474.15146 2.14647
3472.10302 2.14460
3470.05458 2.14476
3468.00614 2.15161
3465.95770 2.15996
3463.90926 2.16604
3461.86082 2.17157
3459.81239 2.17585
3457.76395 2.18117
3455.71551 2.19125
3453.66707 2.20362
3451.61863 2.21299
3449.57019 2.21822
3447.52176 2.21957
3445.47332 2.21963
3443.42488 2.22353
3441.37644 2.23156
3439.32800 2.23996
3437.27956 2.24648
3435.23113 2.25220
3433.18269 2.25856
3431.13425 2.26439
3429.08581 2.26818
3427.03737 2.27126
3424.98893 2.27444
3422.94050 2.27395
3420.89206 2.26696
3418.84362 2.25822
3416.79518 2.25115
3414.74674 2.24440
3412.69830 2.23782
3410.64987 2.23097
3408.60143 2.22488
3406.55299 2.22148
3404.50455 2.21816
3402.45611 2.21439
3400.40767 2.21284
3398.35924 2.21355
3396.31080 2.21549
3394.26236 2.21906
3392.21392 2.22327
3390.16548 2.22504
3388.11704 2.22680
3386.06861 2.22889
3384.02017 2.22602
3381.97173 2.21909
3379.92329 2.21526
3377.87485 2.21865
3375.82641 2.22656
3373.77798 2.23516
3371.72954 2.24006
3369.68110 2.23762
3367.63266 2.23295
3365.58422 2.23499
3363.53578 2.24074
3361.48735 2.24100
3359.43891 2.23883
3357.39047 2.24013
3355.34203 2.24270
3353.29359 2.24244
3351.24515 2.23924
3349.19672 2.23914
3347.14828 2.24202
3345.09984 2.24076
3343.05140 2.23721
3341.00296 2.23490
3338.95452 2.23214
3336.90609 2.22909
3334.85765 2.22575
3332.80921 2.21988
3330.76077 2.21279
3328.71233 2.20771
3326.66389 2.20124
3324.61545 2.18964
3322.56702 2.17675
3320.51858 2.16679
3318.47014 2.15939
3316.42170 2.15292
3314.37326 2.14686
3312.32482 2.14072
3310.27639 2.13541
3308.22795 2.13285
3306.17951 2.13226
3304.13107 2.13126
3302.08263 2.12847
3300.03419 2.12676
3297.98576 2.12820
3295.93732 2.13018
3293.88888 2.13153
3291.84044 2.13198
3289.79200 2.13124
3287.74356 2.12834
3285.69513 2.12338
3283.64669 2.11901
3281.59825 2.11712
3279.54981 2.11758
3277.50137 2.11767
3275.45293 2.11576
3273.40450 2.11249
3271.35606 2.10814
3269.30762 2.10473
3267.25918 2.10532
3265.21074 2.10910
3263.16230 2.11214
3261.11387 2.11105
3259.06543 2.10696
3257.01699 2.10494
3254.96855 2.10605
3252.92011 2.10632
3250.87167 2.10357
3248.82324 2.10201
3246.77480 2.10350
3244.72636 2.10253
3242.67792 2.09900
3240.62948 2.09680
3238.58104 2.09588
3236.53261 2.09523
3234.48417 2.09388
3232.43573 2.09029
3230.38729 2.08522
3228.33885 2.08434
3226.29041 2.08651
3224.24198 2.08481
3222.19354 2.08205
3220.14510 2.08234
3218.09666 2.08198
3216.04822 2.07843
3213.99978 2.07498
3211.95135 2.07457
3209.90291 2.07494
3207.85447 2.07242
3205.80603 2.06897
3203.75759 2.06827
3201.70915 2.07007
3199.66072 2.07004
3197.61228 2.06533
3195.56384 2.05981
3193.51540 2.05622
3191.46696 2.05400
3189.41852 2.05272
3187.37008 2.04981
3185.32165 2.04457
3183.27321 2.04073
3181.22477 2.03927
3179.17633 2.03903
3177.12789 2.04047
3175.07945 2.04096
3173.03102 2.03789
3170.98258 2.03303
3168.93414 2.02951
3166.88570 2.02699
3164.83726 2.02315
3162.78882 2.02005
3160.74039 2.01931
3158.69195 2.01835
3156.64351 2.01490
3154.59507 2.01003
3152.54663 2.00636
3150.49819 2.00461
3148.44976 2.00355
3146.40132 2.00157
3144.35288 1.99894
3142.30444 1.99553
3140.25600 1.99071
3138.20756 1.98594
3136.15913 1.98124
3134.11069 1.97651
3132.06225 1.97409
3130.01381 1.97361
3127.96537 1.97338
3125.91693 1.97201
3123.86850 1.96709
3121.82006 1.96172
3119.77162 1.96057
3117.72318 1.96178
3115.67474 1.96245
3113.62630 1.96193
3111.57787 1.95892
3109.52943 1.95378
3107.48099 1.95004
3105.43255 1.94837
3103.38411 1.94549
3101.33567 1.94117
3099.28724 1.93808
3097.23880 1.93706
3095.19036 1.93744
3093.14192 1.93777
3091.09348 1.93645
3089.04504 1.93272
3086.99661 1.92822
3084.94817 1.92665
3082.89973 1.92753
3080.85129 1.92815
3078.80285 1.92905
3076.75441 1.92951
3074.70598 1.92799
3072.65754 1.92497
3070.60910 1.92146
3068.56066 1.91848
3066.51222 1.91567
3064.46378 1.91209
3062.41535 1.90768
3060.36691 1.90251
3058.31847 1.89693
3056.27003 1.89144
3054.22159 1.88660
3052.17315 1.88299
3050.12471 1.87894
3048.07628 1.87375
3046.02784 1.86954
3043.97940 1.86624
3041.93096 1.86290
3039.88252 1.85990
3037.83408 1.85757
3035.78565 1.85468
3033.73721 1.85077
3031.68877 1.84809
3029.64033 1.84643
3027.59189 1.84354
3025.54345 1.83994
3023.49502 1.83646
3021.44658 1.83248
3019.39814 1.82828
3017.34970 1.82520
3015.30126 1.82367
3013.25282 1.82215
3011.20439 1.81992
3009.15595 1.81830
3007.10751 1.81715
3005.05907 1.81505
3003.01063 1.81263
3000.96219 1.81129
2998.91376 1.81015
2996.86532 1.80885
2994.81688 1.80805
2992.76844 1.80723
2990.72000 1.80589
2988.67156 1.80449
2986.62313 1.80364
2984.57469 1.80258
2982.52625 1.80132
2980.47781 1.80171
2978.42937 1.80387
2976.38093 1.80574
2974.33250 1.80674
2972.28406 1.80773
2970.23562 1.80848
2968.18718 1.80918
2966.13874 1.80988
2964.09030 1.80948
2962.04187 1.80850
2959.99343 1.80789
2957.94499 1.80781
2955.89655 1.80852
2953.84811 1.80958
2951.79967 1.80973
2949.75124 1.80799
2947.70280 1.80628
2945.65436 1.80665
2943.60592 1.80767
2941.55748 1.80831
2939.50904 1.80858
2937.46061 1.80876
2935.41217 1.81045
2933.36373 1.81293
2931.31529 1.81408
2929.26685 1.81514
2927.21841 1.81797
2925.16998 1.82115
2923.12154 1.82237
2921.07310 1.82210
2919.02466 1.82192
2916.97622 1.82164
2914.92778 1.82026
2912.87934 1.81801
2910.83091 1.81626
2908.78247 1.81491
2906.73403 1.81220
2904.68559 1.80780
2902.63715 1.80319
2900.58871 1.79919
2898.54028 1.79488
2896.49184 1.78957
2894.44340 1.78495
2892.39496 1.78234
2890.34652 1.78019
2888.29808 1.77747
2886.24965 1.77539
2884.20121 1.77425
2882.15277 1.77262
2880.10433 1.77003
2878.05589 1.76743
2876.00745 1.76608
2873.95902 1.76583
2871.91058 1.76485
2869.86214 1.76349
2867.81370 1.76360
2865.76526 1.76458
2863.71682 1.76464
2861.66839 1.76353
2859.61995 1.76301
2857.57151 1.76471
2855.52307 1.76692
2853.47463 1.76662
2851.42619 1.76394
2849.37776 1.76048
2847.32932 1.75664
2845.28088 1.75163
2843.23244 1.74514
2841.18400 1.73929
2839.13556 1.73599
2837.08713 1.73419
2835.03869 1.73204
2832.99025 1.72962
2830.94181 1.72814
2828.89337 1.72743
2826.84493 1.72636
2824.79650 1.72533
2822.74806 1.72520
2820.69962 1.72507
2818.65118 1.72422
2816.60274 1.72362
2814.55430 1.72323
2812.50587 1.72221
2810.45743 1.72160
2808.40899 1.72233
2806.36055 1.72299
2804.31211 1.72231
2802.26367 1.72058
2800.21524 1.71857
2798.16680 1.71660
2796.11836 1.71396
2794.06992 1.70995
2792.02148 1.70470
2789.97304 1.69879
2787.92461 1.69325
2785.87617 1.68805
2783.82773 1.68255
2781.77929 1.67749
2779.73085 1.67307
2777.68241 1.66895
2775.63397 1.66541
2773.58554 1.66237
2771.53710 1.65977
2769.48866 1.65766
2767.44022 1.65594
2765.39178 1.65394
2763.34334 1.65125
2761.29491 1.64908
2759.24647 1.64787
2757.19803 1.64668
2755.14959 1.64532
2753.10115 1.64361
2751.05271 1.64119
2749.00428 1.63894
2746.95584 1.63820
2744.90740 1.63846
2742.85896 1.63749
2740.81052 1.63518
2738.76208 1.63364
2736.71365 1.63342
2734.66521 1.63310
2732.61677 1.63207
2730.56833 1.63152
2728.51989 1.63156
2726.47145 1.63053
2724.42302 1.62847
2722.37458 1.62734
2720.32614 1.62751
2718.27770 1.62801
2716.22926 1.62805
2714.18082 1.62714
2712.13239 1.62609
2710.08395 1.62551
2708.03551 1.62505
2705.98707 1.62446
2703.93863 1.62379
2701.89019 1.62377
2699.84176 1.62467
2697.79332 1.62531
2695.74488 1.62492
2693.69644 1.62422
2691.64800 1.62357
2689.59956 1.62320
2687.55113 1.62357
2685.50269 1.62421
2683.45425 1.62440
2681.40581 1.62350
2679.35737 1.62141
2677.30893 1.61900
2675.26050 1.61653
2673.21206 1.61406
2671.16362 1.61186
2669.11518 1.60960
2667.06674 1.60726
2665.01830 1.60499
2662.96987 1.60274
2660.92143 1.60140
2658.87299 1.60144
2656.82455 1.60158
2654.77611 1.60125
2652.72767 1.60108
2650.67924 1.60127
2648.63080 1.60134
2646.58236 1.60150
2644.53392 1.60247
2642.48548 1.60335
2640.43704 1.60309
2638.38860 1.60272
2636.34017 1.60364
2634.29173 1.60515
2632.24329 1.60580
2630.19485 1.60592
2628.14641 1.60671
2626.09797 1.60822
2624.04954 1.60934
2622.00110 1.61012
2619.95266 1.61172
2617.90422 1.61400
2615.85578 1.61562
2613.80734 1.61640
2611.75891 1.61759
2609.71047 1.61981
2607.66203 1.62204
2605.61359 1.62386
2603.56515 1.62650
2601.51671 1.62967
2599.46828 1.63199
2597.41984 1.63411
2595.37140 1.63729
2593.32296 1.64106
2591.27452 1.64494
2589.22608 1.64946
2587.17765 1.65391
2585.12921 1.65787
2583.08077 1.66185
2581.03233 1.66562
2578.98389 1.66929
2576.93545 1.67318
2574.88702 1.67695
2572.83858 1.68036
2570.79014 1.68388
2568.74170 1.68852
2566.69326 1.69392
2564.64482 1.69809
2562.59639 1.70129
2560.54795 1.70602
2558.49951 1.71196
2556.45107 1.71637
2554.40263 1.71929
2552.35419 1.72296
2550.30576 1.72743
2548.25732 1.73078
2546.20888 1.73236
2544.16044 1.73355
2542.11200 1.73509
2540.06356 1.73574
2538.01513 1.73481
2535.96669 1.73314
2533.91825 1.73135
2531.86981 1.72943
2529.82137 1.72711
2527.77293 1.72445
2525.72450 1.72206
2523.67606 1.71996
2521.62762 1.71779
2519.57918 1.71528
2517.53074 1.71180
2515.48230 1.70708
2513.43387 1.70104
2511.38543 1.69397
2509.33699 1.68679
2507.28855 1.68020
2505.24011 1.67475
2503.19167 1.67036
2501.14324 1.66680
2499.09480 1.66424
2497.04636 1.66269
2494.99792 1.66199
2492.94948 1.66185
2490.90104 1.66208
2488.85260 1.66248
2486.80417 1.66236
2484.75573 1.66128
2482.70729 1.65929
2480.65885 1.65740
2478.61041 1.65686
2476.56197 1.65710
2474.51354 1.65711
2472.46510 1.65731
2470.41666 1.65827
2468.36822 1.65971
2466.31978 1.66119
2464.27134 1.66277
2462.22291 1.66487
2460.17447 1.66724
2458.12603 1.66894
2456.07759 1.67056
2454.02915 1.67297
2451.98071 1.67593
2449.93228 1.67919
2447.88384 1.68255
2445.83540 1.68616
2443.78696 1.68969
2441.73852 1.69288
2439.69008 1.69605
2437.64165 1.69941
2435.59321 1.70356
2433.54477 1.70820
2431.49633 1.71258
2429.44789 1.71604
2427.39945 1.71702
2425.35102 1.71558
2423.30258 1.71402
2421.25414 1.71343
2419.20570 1.71174
2417.15726 1.70740
2415.10882 1.70284
2413.06039 1.70027
2411.01195 1.69867
2408.96351 1.69612
2406.91507 1.69225
2404.86663 1.68841
2402.81819 1.68532
2400.76976 1.68147
2398.72132 1.67583
2396.67288 1.66926
2394.62444 1.66276
2392.57600 1.65594
2390.52756 1.64813
2388.47913 1.63989
2386.43069 1.63197
2384.38225 1.62444
2382.33381 1.61749
2380.28537 1.61155
2378.23693 1.60620
2376.18850 1.60013
2374.14006 1.59311
2372.09162 1.58630
2370.04318 1.58005
2367.99474 1.57435
2365.94630 1.56984
2363.89787 1.56479
2361.84943 1.55787
2359.80099 1.55205
2357.75255 1.54965
2355.70411 1.54755
2353.65567 1.54287
2351.60723 1.53799
2349.55880 1.53500
2347.51036 1.53303
2345.46192 1.53052
2343.41348 1.52742
2341.36504 1.52461
2339.31660 1.52172
2337.26817 1.52029
2335.21973 1.52124
2333.17129 1.52210
2331.12285 1.52164
2329.07441 1.52117
2327.02597 1.52179
2324.97754 1.52334
2322.92910 1.52520
2320.88066 1.52624
2318.83222 1.52619
2316.78378 1.52734
2314.73534 1.52977
2312.68691 1.53113
2310.63847 1.53136
2308.59003 1.53103
2306.54159 1.53040
2304.49315 1.53036
2302.44471 1.53106
2300.39628 1.53192
2298.34784 1.53266
2296.29940 1.53334
2294.25096 1.53358
2292.20252 1.53302
2290.15408 1.53238
2288.10565 1.53228
2286.05721 1.53264
2284.00877 1.53326
2281.96033 1.53434
2279.91189 1.53589
2277.86345 1.53724
2275.81502 1.53823
2273.76658 1.53918
2271.71814 1.54040
2269.66970 1.54215
2267.62126 1.54389
2265.57282 1.54513
2263.52439 1.54624
2261.47595 1.54748
2259.42751 1.54828
2257.37907 1.54839
2255.33063 1.54846
2253.28219 1.54877
2251.23376 1.54919
2249.18532 1.54990
2247.13688 1.55102
2245.08844 1.55255
2243.04000 1.55430
2240.99156 1.55580
2238.94313 1.55651
2236.89469 1.55643
2234.84625 1.55656
2232.79781 1.55709
2230.74937 1.55752
2228.70093 1.55834
2226.65250 1.56001
2224.60406 1.56228
2222.55562 1.56451
2220.50718 1.56651
2218.45874 1.56838
2216.41030 1.57013
2214.36186 1.57214
2212.31343 1.57464
2210.26499 1.57793
2208.21655 1.58152
2206.16811 1.58455
2204.11967 1.58713
2202.07123 1.58932
2200.02280 1.59137
2197.97436 1.59358
2195.92592 1.59561
2193.87748 1.59754
2191.82904 1.59953
2189.78060 1.60113
2187.73217 1.60266
2185.68373 1.60512
2183.63529 1.60845
2181.58685 1.61223
2179.53841 1.61611
2177.48997 1.61972
2175.44154 1.62316
2173.39310 1.62663
2171.34466 1.62949
2169.29622 1.63140
2167.24778 1.63325
2165.19934 1.63495
2163.15091 1.63610
2161.10247 1.63667
2159.05403 1.63567
2157.00559 1.63292
2154.95715 1.62905
2152.90871 1.62482
2150.86028 1.62173
2148.81184 1.62023
2146.76340 1.61895
2144.71496 1.61679
2142.66652 1.61437
2140.61808 1.61267
2138.56965 1.61168
2136.52121 1.61114
2134.47277 1.61107
2132.42433 1.61162
2130.37589 1.61270
2128.32745 1.61343
2126.27902 1.61350
2124.23058 1.61402
2122.18214 1.61527
2120.13370 1.61619
2118.08526 1.61657
2116.03682 1.61716
2113.98839 1.61759
2111.93995 1.61755
2109.89151 1.61787
2107.84307 1.61905
2105.79463 1.62103
2103.74619 1.62347
2101.69776 1.62608
2099.64932 1.62947
2097.60088 1.63432
2095.55244 1.64002
2093.50400 1.64635
2091.45556 1.65430
2089.40713 1.66358
2087.35869 1.67359
2085.31025 1.68452
2083.26181 1.69554
2081.21337 1.70452
2079.16493 1.70998
2077.11649 1.71163
2075.06806 1.70916
2073.01962 1.70280
2070.97118 1.69341
2068.92274 1.68212
2066.87430 1.67020
2064.82586 1.65842
2062.77743 1.64795
2060.72899 1.63889
2058.68055 1.63008
2056.63211 1.62170
2054.58367 1.61391
2052.53523 1.60619
2050.48680 1.59954
2048.43836 1.59468
2046.38992 1.59005
2044.34148 1.58499
2042.29304 1.58025
2040.24460 1.57653
2038.19617 1.57378
2036.14773 1.57129
2034.09929 1.56900
2032.05085 1.56724
2030.00241 1.56614
2027.95397 1.56575
2025.90554 1.56547
2023.85710 1.56498
2021.80866 1.56484
2019.76022 1.56511
2017.71178 1.56579
2015.66334 1.56713
2013.61491 1.56905
2011.56647 1.57144
2009.51803 1.57420
2007.46959 1.57698
2005.42115 1.57926
2003.37271 1.58129
2001.32428 1.58388
1999.27584 1.58704
1997.22740 1.59011
1995.17896 1.59284
1993.13052 1.59590
1991.08208 1.59954
1989.03365 1.60308
1986.98521 1.60662
1984.93677 1.61017
1982.88833 1.61326
1980.83989 1.61555
1978.79145 1.61779
1976.74302 1.62094
1974.69458 1.62461
1972.64614 1.62823
1970.59770 1.63145
1968.54926 1.63434
1966.50082 1.63668
1964.45239 1.63874
1962.40395 1.64050
1960.35551 1.64122
1958.30707 1.64178
1956.25863 1.64287
1954.21019 1.64375
1952.16176 1.64450
1950.11332 1.64615
1948.06488 1.64834
1946.01644 1.65020
1943.96800 1.65203
1941.91956 1.65402
1939.87112 1.65560
1937.82269 1.65701
1935.77425 1.65864
1933.72581 1.66014
1931.67737 1.66174
1929.62893 1.66350
1927.58049 1.66468
1925.53206 1.66533
1923.48362 1.66642
1921.43518 1.66746
1919.38674 1.66732
1917.33830 1.66638
1915.28986 1.66542
1913.24143 1.66419
1911.19299 1.66193
1909.14455 1.65919
1907.09611 1.65743
1905.04767 1.65688
1902.99923 1.65656
1900.95080 1.65598
1898.90236 1.65553
1896.85392 1.65561
1894.80548 1.65582
1892.75704 1.65570
1890.70860 1.65567
1888.66017 1.65593
1886.61173 1.65653
1884.56329 1.65765
1882.51485 1.65940
1880.46641 1.66204
1878.41797 1.66511
1876.36954 1.66747
1874.32110 1.66955
1872.27266 1.67215
1870.22422 1.67536
1868.17578 1.67924
1866.12734 1.68339
1864.07891 1.68727
1862.03047 1.69165
1859.98203 1.69808
1857.93359 1.70647
1855.88515 1.71526
1853.83671 1.72367
1851.78828 1.73255
1849.73984 1.74243
1847.69140 1.75222
1845.64296 1.76126
1843.59452 1.77028
1841.54608 1.77742
1839.49765 1.78229
1837.44921 1.78528
1835.40077 1.78575
1833.35233 1.78496
1831.30389 1.78380
1829.25545 1.78279
1827.20702 1.78349
1825.15858 1.78679
1823.11014 1.79266
1821.06170 1.80021
1819.01326 1.81020
1816.96482 1.82350
1814.91639 1.83821
1812.86795 1.85250
1810.81951 1.86739
1808.77107 1.88090
1806.72263 1.88945
1804.67419 1.89263
1802.62575 1.89052
1800.57732 1.88287
1798.52888 1.87293
1796.48044 1.86455
1794.43200 1.85684
1792.38356 1.84792
1790.33512 1.84143
1788.28669 1.83835
1786.23825 1.83615
1784.18981 1.83515
1782.14137 1.83483
1780.09293 1.83514
1778.04449 1.83666
1775.99606 1.83835
1773.94762 1.83939
1771.89918 1.83912
1769.85074 1.83771
1767.80230 1.83459
1765.75386 1.83024
1763.70543 1.82648
1761.65699 1.82388
1759.60855 1.82325
1757.56011 1.82473
1755.51167 1.82704
1753.46323 1.82796
1751.41480 1.82862
1749.36636 1.83137
1747.31792 1.83472
1745.26948 1.83702
1743.22104 1.83888
1741.17260 1.84081
1739.12417 1.84296
1737.07573 1.84453
1735.02729 1.84634
1732.97885 1.85067
1730.93041 1.85480
1728.88197 1.85804
1726.83354 1.86104
1724.78510 1.86463
1722.73666 1.86941
1720.68822 1.87455
1718.63978 1.88063
1716.59134 1.88960
1714.54291 1.89743
1712.49447 1.90250
1710.44603 1.90816
1708.39759 1.91591
1706.34915 1.92539
1704.30071 1.93299
1702.25228 1.93884
1700.20384 1.95067
1698.15540 1.96705
1696.10696 1.98099
1694.05852 1.99258
1692.01008 2.00163
1689.96165 2.01234
1687.91321 2.02404
1685.86477 2.03585
1683.81633 2.05269
1681.76789 2.06400
1679.71945 2.06928
1677.67102 2.07481
1675.62258 2.08348
1673.57414 2.09274
1671.52570 2.09970
1669.47726 2.11029
1667.42882 2.12093
1665.38038 2.12734
1663.33195 2.13327
1661.28351 2.13710
1659.23507 2.13837
1657.18663 2.14031
1655.13819 2.14468
1653.08975 2.15605
1651.04132 2.16217
1648.99288 2.16148
1646.94444 2.16200
1644.89600 2.16497
1642.84756 2.16820
1640.79912 2.17262
1638.75069 2.17957
1636.70225 2.18999
1634.65381 2.19621
1632.60537 2.19434
1630.55693 2.19381
1628.50849 2.19737
1626.46006 2.20405
1624.41162 2.21175
1622.36318 2.21929
1620.31474 2.22572
1618.26630 2.23316
1616.21786 2.24225
1614.16943 2.25001
1612.12099 2.25806
1610.07255 2.26691
1608.02411 2.27606
1605.97567 2.28516
1603.92723 2.29462
1601.87880 2.30543
1599.83036 2.31617
1597.78192 2.32588
1595.73348 2.33744
1593.68504 2.35248
1591.63660 2.36930
1589.58817 2.38522
1587.53973 2.39815
1585.49129 2.40995
1583.44285 2.42011
1581.39441 2.42649
1579.34597 2.43187
1577.29754 2.44049
1575.24910 2.44676
1573.20066 2.44870
1571.15222 2.45368
1569.10378 2.45707
1567.05534 2.45046
1565.00691 2.43955
1562.95847 2.43319
1560.91003 2.43720
1558.86159 2.43361
1556.81315 2.38417
1554.76471 2.34045
1552.71628 2.30366
1550.66784 2.26909
1548.61940 2.23590
1546.57096 2.20705
1544.52252 2.17736
1542.47408 2.14314
1540.42565 2.09597
1538.37721 2.06250
1536.32877 2.05367
1534.28033 2.04337
1532.23189 2.02296
1530.18345 2.00576
1528.13501 1.99517
1526.08658 1.98892
1524.03814 1.98524
1521.98970 1.98076
1519.94126 1.97544
1517.89282 1.96999
1515.84438 1.96489
1513.79595 1.96305
1511.74751 1.96540
1509.69907 1.97105
1507.65063 1.98010
1505.60219 1.98750
1503.55375 1.99168
1501.50532 1.99825
1499.45688 2.00831
1497.40844 2.02169
1495.36000 2.03413
1493.31156 2.04259
1491.26312 2.05372
1489.21469 2.07337
1487.16625 2.09151
1485.11781 2.10412
1483.06937 2.11655
1481.02093 2.13152
1478.97249 2.14718
1476.92406 2.16379
1474.87562 2.18452
1472.82718 2.20558
1470.77874 2.21905
1468.73030 2.22866
1466.68186 2.24113
1464.63343 2.25788
1462.58499 2.27122
1460.53655 2.28074
1458.48811 2.29317
1456.43967 2.31165
1454.39123 2.32589
1452.34280 2.33520
1450.29436 2.34451
1448.24592 2.35829
1446.19748 2.36980
1444.14904 2.37065
1442.10060 2.36416
1440.05217 2.35155
1438.00373 2.32375
1435.95529 2.27425
1433.90685 2.23101
1431.85841 2.18921
1429.80997 2.13100
1427.76154 2.07224
1425.71310 2.01779
1423.66466 1.95912
1421.61622 1.90833
1419.56778 1.86066
1417.51934 1.81201
1415.47091 1.77872
1413.42247 1.75441
1411.37403 1.73442
1409.32559 1.71867
1407.27715 1.70683
1405.22871 1.69692
1403.18028 1.68924
1401.13184 1.68537
1399.08340 1.68497
1397.03496 1.68695
1394.98652 1.69008
1392.93808 1.69336
1390.88965 1.69814
1388.84121 1.70818
1386.79277 1.72390
1384.74433 1.73982
1382.69589 1.75689
1380.64745 1.77876
1378.59901 1.80266
1376.55058 1.82682
1374.50214 1.85450
1372.45370 1.88027
1370.40526 1.89749
1368.35682 1.91134
1366.30838 1.92349
1364.25995 1.93405
1362.21151 1.94523
1360.16307 1.95423
1358.11463 1.95957
1356.06619 1.96335
1354.01775 1.96687
1351.96932 1.97076
1349.92088 1.97597
1347.87244 1.98197
1345.82400 1.98727
1343.77556 1.99132
1341.72712 1.99528
1339.67869 1.99931
1337.63025 2.00039
1335.58181 1.99856
1333.53337 1.99643
1331.48493 1.99400
1329.43649 1.99171
1327.38806 1.99052
1325.33962 1.98918
1323.29118 1.98752
1321.24274 1.98555
1319.19430 1.98226
1317.14586 1.97729
1315.09743 1.97098
1313.04899 1.96387
1311.00055 1.95762
1308.95211 1.95242
1306.90367 1.94642
1304.85523 1.94053
1302.80680 1.93607
1300.75836 1.93141
1298.70992 1.92593
1296.66148 1.92116
1294.61304 1.91721
1292.56460 1.91331
1290.51617 1.90883
1288.46773 1.90293
1286.41929 1.89627
1284.37085 1.89004
1282.32241 1.88390
1280.27397 1.87732
1278.22554 1.87110
1276.17710 1.86560
1274.12866 1.86064
1272.08022 1.85694
1270.03178 1.85469
1267.98334 1.85307
1265.93491 1.85202
1263.88647 1.85236
1261.83803 1.85393
1259.78959 1.85491
1257.74115 1.85495
1255.69271 1.85544
1253.64428 1.85693
1251.59584 1.85906
1249.54740 1.86091
1247.49896 1.86209
1245.45052 1.86353
1243.40208 1.86601
1241.35364 1.86819
1239.30521 1.86906
1237.25677 1.87053
1235.20833 1.87411
1233.15989 1.87823
1231.11145 1.88115
1229.06301 1.88372
1227.01458 1.88696
1224.96614 1.89008
1222.91770 1.89244
1220.86926 1.89464
1218.82082 1.89727
1216.77238 1.90047
1214.72395 1.90467
1212.67551 1.90956
1210.62707 1.91360
1208.57863 1.91732
1206.53019 1.92203
1204.48175 1.92675
1202.43332 1.93086
1200.38488 1.93449
1198.33644 1.93834
1196.28800 1.94320
1194.23956 1.94913
1192.19112 1.95585
1190.14269 1.96263
1188.09425 1.96933
1186.04581 1.97556
1183.99737 1.98104
1181.94893 1.98724
1179.90049 1.99323
1177.85206 1.99644
1175.80362 1.99845
1173.75518 2.00200
1171.70674 2.00729
1169.65830 2.01310
1167.60986 2.01828
1165.56143 2.02245
1163.51299 2.02544
1161.46455 2.02758
1159.41611 2.02973
1157.36767 2.03279
1155.31923 2.03569
1153.27080 2.03778
1151.22236 2.04138
1149.17392 2.04678
1147.12548 2.05236
1145.07704 2.05850
1143.02860 2.06578
1140.98017 2.07401
1138.93173 2.08220
1136.88329 2.08876
1134.83485 2.09492
1132.78641 2.10281
1130.73797 2.11342
1128.68954 2.12685
1126.64110 2.14038
1124.59266 2.15235
1122.54422 2.16631
1120.49578 2.18378
1118.44734 2.20103
1116.39891 2.21757
1114.35047 2.23635
1112.30203 2.25667
1110.25359 2.27465
1108.20515 2.28779
1106.15671 2.29504
1104.10827 2.29505
1102.05984 2.28482
1100.01140 2.25831
1097.96296 2.21515
1095.91452 2.17421
1093.86608 2.15424
1091.81764 2.15326
1089.76921 2.16537
1087.72077 2.18751
1085.67233 2.21145
1083.62389 2.23313
1081.57545 2.25350
1079.52701 2.27138
1077.47858 2.28806
1075.43014 2.30514
1073.38170 2.31637
1071.33326 2.31302
1069.28482 2.29109
1067.23638 2.24831
1065.18795 2.18813
1063.13951 2.12322
1061.09107 2.06460
1059.04263 2.01611
1056.99419 1.97726
1054.94575 1.94698
1052.89732 1.92442
1050.84888 1.90969
1048.80044 1.90424
1046.75200 1.90874
1044.70356 1.92234
1042.65512 1.93994
1040.60669 1.95569
1038.55825 1.96853
1036.50981 1.97939
1034.46137 1.99047
1032.41293 2.00333
1030.36449 2.01742
1028.31606 2.03044
1026.26762 2.04059
1024.21918 2.04950
1022.17074 2.05855
1020.12230 2.06624
1018.07386 2.07008
1016.02543 2.07039
1013.97699 2.06988
1011.92855 2.06697
1009.88011 2.05893
1007.83167 2.04990
1005.78323 2.04598
1003.73480 2.04806
1001.68636 2.05276
999.63792 2.05802
997.58948 2.06405
995.54104 2.07062
993.49260 2.07764
991.44417 2.08633
989.39573 2.09739
987.34729 2.11052
985.29885 2.12380
983.25041 2.13142
981.20197 2.13243
979.15354 2.13400
977.10510 2.13974
975.05666 2.14865
973.00822 2.16021
970.95978 2.17268
968.91134 2.18356
966.86290 2.19327
964.81447 2.20365
962.76603 2.21374
960.71759 2.22068
958.66915 2.22681
956.62071 2.23749
954.57227 2.25325
952.52384 2.26888
950.47540 2.27822
948.42696 2.28429
946.37852 2.29441
944.33008 2.30718
942.28164 2.31655
940.23321 2.32301
938.18477 2.33071
936.13633 2.33836
934.08789 2.34528
932.03945 2.35600
929.99101 2.37333
927.94258 2.39260
925.89414 2.40466
923.84570 2.40628
921.79726 2.40364
919.74882 2.40443
917.70038 2.40827
915.65195 2.40514
913.60351 2.38819
911.55507 2.36627
909.50663 2.34491
907.45819 2.31709
905.40975 2.28438
903.36132 2.25124
901.31288 2.21197
899.26444 2.16641
897.21600 2.12287
895.16756 2.08409
893.11912 2.04976
891.07069 2.02162
889.02225 1.99975
886.97381 1.98527
884.92537 1.98064
882.87693 1.98112
880.82849 1.97963
878.78006 1.97896
876.73162 1.98519
874.68318 1.99448
872.63474 1.99842
870.58630 2.00116
868.53786 2.01167
866.48943 2.02742
864.44099 2.04076
862.39255 2.04920
860.34411 2.05433
858.29567 2.05997
856.24723 2.06911
854.19880 2.07875
852.15036 2.08410
850.10192 2.08408
848.05348 2.07882
846.00504 2.06837
843.95660 2.05539
841.90817 2.04120
839.85973 2.02129
837.81129 1.98913
835.76285 1.94208
833.71441 1.88395
831.66597 1.81966
829.61753 1.75481
827.56910 1.69521
825.52066 1.64312
823.47222 1.60226
821.42378 1.58175
819.37534 1.59648
817.32690 1.66125
815.27847 1.76772
813.23003 1.87299
811.18159 1.94200
809.13315 1.98242
807.08471 2.01027
805.03627 2.03141
802.98784 2.05233
800.93940 2.07244
798.89096 2.08171
796.84252 2.08465
794.79408 2.09204
792.74564 2.09941
790.69721 2.09641
788.64877 2.08387
786.60033 2.06697
784.55189 2.04483
782.50345 2.01940
780.45501 1.99770
778.40658 1.98503
776.35814 1.98355
774.30970 1.99129
772.26126 2.00587
770.21282 2.02435
768.16438 2.04432
766.11595 2.07295
764.06751 2.10956
762.01907 2.13957
759.97063 2.15579
757.92219 2.15315
755.87375 2.11992
753.82532 2.06153
751.77688 2.01044
749.72844 1.98620
747.68000 1.98069
745.63156 1.98267
743.58312 1.98889
741.53469 1.99668
739.48625 2.00181
737.43781 2.00456
735.38937 2.01119
733.34093 2.02048
731.29249 2.02333
729.24406 2.02111
727.19562 2.02414
725.14718 2.03191
723.09874 2.03591
721.05030 2.04216
719.00186 2.05765
716.95343 2.06955
714.90499 2.06689
712.85655 2.05131
710.80811 2.03136
708.75967 2.01937
706.71123 2.01314
704.66280 2.00554
702.61436 2.00683
700.56592 2.01560
698.51748 2.01331
696.46904 2.00580
694.42060 2.01047
692.37216 2.02117
690.32373 2.02511
688.27529 2.02281
686.22685 2.02347
684.17841 2.03496
682.12997 2.05268
680.08153 2.06330
678.03310 2.06031
675.98466 2.05028
673.93622 2.04709
671.88778 2.05241
669.83934 2.04230
667.79090 2.01954
665.74247 2.03217
663.69403 2.04775
661.64559 2.05280
659.59715 2.05815
657.54871 2.04768
655.50027 2.02459
653.45184 2.01723
651.40340 2.02751
649.35496 2.04074
647.30652 2.05268
645.25808 2.05964
643.20964 2.05190
641.16121 2.02901
639.11277 2.01494
637.06433 2.03691
635.01589 2.07398
632.96745 2.08082
630.91901 2.05314
628.87058 2.01802
626.82214 2.00957
624.77370 2.04599
622.72526 2.09905
620.67682 2.13191
618.62838 2.16648
616.57995 2.17953
614.53151 2.13657
612.48307 2.09304
610.43463 2.07986
608.38619 2.11276
606.33775 2.17004
604.28932 2.19832
602.24088 2.18477
600.19244 2.11381
598.14400 2.05278
