3997.26563 0.00956
3995.50781 0.00920
3993.75000 0.00875
3991.99219 0.00856
3990.23438 0.00884
3988.47656 0.00931
3986.71875 0.00947
3984.96094 0.00927
3983.20313 0.00902
3981.44531 0.00891
3979.68750 0.00893
3977.92969 0.00891
3976.17188 0.00869
3974.41406 0.00840
3972.65625 0.00832
3970.89844 0.00854
3969.14063 0.00893
3967.38281 0.00916
3965.62500 0.00911
3963.86719 0.00898
3962.10938 0.00892
3960.35156 0.00879
3958.59375 0.00868
3956.83594 0.00880
3955.07813 0.00892
3953.32031 0.00865
3951.56250 0.00837
3949.80469 0.00852
3948.04688 0.00894
3946.28906 0.00931
3944.53125 0.00938
3942.77344 0.00897
3941.01563 0.00863
3939.25781 0.00892
3937.50000 0.00951
3935.74219 0.00945
3933.98438 0.00873
3932.22656 0.00828
3930.46875 0.00856
3928.71094 0.00907
3926.95313 0.00915
3925.19531 0.00887
3923.43750 0.00865
3921.67969 0.00866
3919.92188 0.00879
3918.16406 0.00893
3916.40625 0.00898
3914.64844 0.00884
3912.89063 0.00851
3911.13281 0.00827
3909.37500 0.00829
3907.61719 0.00828
3905.85938 0.00820
3904.10156 0.00847
3902.34375 0.00914
3900.58594 0.00964
3898.82813 0.00963
3897.07031 0.00920
3895.31250 0.00892
3893.55469 0.00901
3891.79688 0.00910
3890.03906 0.00893
3888.28125 0.00846
3886.52344 0.00781
3884.76563 0.00740
3883.00781 0.00767
3881.25000 0.00846
3879.49219 0.00894
3877.73438 0.00889
3875.97656 0.00862
3874.21875 0.00847
3872.46094 0.00847
3870.70313 0.00845
3868.94531 0.00835
3867.18750 0.00827
3865.42969 0.00845
3863.67188 0.00886
3861.91406 0.00899
3860.15625 0.00879
3858.39844 0.00851
3856.64063 0.00835
3854.88281 0.00839
3853.12500 0.00866
3851.36719 0.00890
3849.60938 0.00877
3847.85156 0.00870
3846.09375 0.00888
3844.33594 0.00868
3842.57813 0.00811
3840.82031 0.00802
3839.06250 0.00877
3837.30469 0.00965
3835.54688 0.00978
3833.78906 0.00913
3832.03125 0.00847
3830.27344 0.00838
3828.51563 0.00867
3826.75781 0.00891
3825.00000 0.00883
3823.24219 0.00876
3821.48438 0.00893
3819.72656 0.00915
3817.96875 0.00913
3816.21094 0.00888
3814.45313 0.00872
3812.69531 0.00875
3810.93750 0.00857
3809.17969 0.00826
3807.42188 0.00819
3805.66406 0.00826
3803.90625 0.00829
3802.14844 0.00829
3800.39063 0.00826
3798.63281 0.00819
3796.87500 0.00812
3795.11719 0.00806
3793.35938 0.00803
3791.60156 0.00806
3789.84375 0.00817
3788.08594 0.00840
3786.32813 0.00875
3784.57031 0.00900
3782.81250 0.00887
3781.05469 0.00851
3779.29688 0.00841
3777.53906 0.00856
3775.78125 0.00863
3774.02344 0.00849
3772.26563 0.00821
3770.50781 0.00801
3768.75000 0.00813
3766.99219 0.00852
3765.23438 0.00888
3763.47656 0.00875
3761.71875 0.00816
3759.96094 0.00802
3758.20313 0.00841
3756.44531 0.00887
3754.68750 0.00883
3752.92969 0.00847
3751.17188 0.00814
3749.41406 0.00787
3747.65625 0.00779
3745.89844 0.00823
3744.14063 0.00880
3742.38281 0.00895
3740.62500 0.00880
3738.86719 0.00864
3737.10938 0.00861
3735.35156 0.00862
3733.59375 0.00862
3731.83594 0.00872
3730.07813 0.00880
3728.32031 0.00867
3726.56250 0.00843
3724.80469 0.00834
3723.04688 0.00841
3721.28906 0.00831
3719.53125 0.00825
3717.77344 0.00836
3716.01563 0.00840
3714.25781 0.00827
3712.50000 0.00823
3710.74219 0.00853
3708.98438 0.00906
3707.22656 0.00948
3705.46875 0.00953
3703.71094 0.00933
3701.95313 0.00936
3700.19531 0.00954
3698.43750 0.00925
3696.67969 0.00881
3694.92188 0.00868
3693.16406 0.00877
3691.40625 0.00895
3689.64844 0.00936
3687.89063 0.00992
3686.13281 0.00970
3684.37500 0.00879
3682.61719 0.00818
3680.85938 0.00822
3679.10156 0.00850
3677.34375 0.00872
3675.58594 0.00907
3673.82813 0.00949
3672.07031 0.00965
3670.31250 0.00958
3668.55469 0.00966
3666.79688 0.01002
3665.03906 0.01040
3663.28125 0.01084
3661.52344 0.01130
3659.76563 0.01106
3658.00781 0.01031
3656.25000 0.00990
3654.49219 0.00980
3652.73438 0.00975
3650.97656 0.00958
3649.21875 0.00937
3647.46094 0.00930
3645.70313 0.00939
3643.94531 0.00959
3642.18750 0.00994
3640.42969 0.01052
3638.67188 0.01095
3636.91406 0.01089
3635.15625 0.01037
3633.39844 0.00954
3631.64063 0.00892
3629.88281 0.00909
3628.12500 0.00971
3626.36719 0.01014
3624.60938 0.01022
3622.85156 0.01007
3621.09375 0.00994
3619.33594 0.00984
3617.57813 0.00977
3615.82031 0.01002
3614.06250 0.01053
3612.30469 0.01060
3610.54688 0.01001
3608.78906 0.00967
3607.03125 0.00996
3605.27344 0.01019
3603.51563 0.01001
3601.75781 0.00984
3600.00000 0.00991
3598.24219 0.01006
3596.48438 0.01004
3594.72656 0.00981
3592.96875 0.00949
3591.21094 0.00927
3589.45313 0.00929
3587.69531 0.00948
3585.93750 0.00961
3584.17969 0.00964
3582.42188 0.00980
3580.66406 0.01021
3578.90625 0.01083
3577.14844 0.01137
3575.39063 0.01140
3573.63281 0.01100
3571.87500 0.01049
3570.11719 0.01021
3568.35938 0.01028
3566.60156 0.01057
3564.84375 0.01086
3563.08594 0.01091
3561.32813 0.01072
3559.57031 0.01052
3557.81250 0.01033
3556.05469 0.01004
3554.29688 0.00992
3552.53906 0.00994
3550.78125 0.00989
3549.02344 0.01006
3547.26563 0.01060
3545.50781 0.01099
3543.75000 0.01094
3541.99219 0.01066
3540.23438 0.01027
3538.47656 0.00995
3536.71875 0.00992
3534.96094 0.01009
3533.20313 0.01015
3531.44531 0.01003
3529.68750 0.01002
3527.92969 0.01035
3526.17188 0.01075
3524.41406 0.01098
3522.65625 0.01106
3520.89844 0.01105
3519.14063 0.01100
3517.38281 0.01097
3515.62500 0.01098
3513.86719 0.01104
3512.10938 0.01107
3510.35156 0.01096
3508.59375 0.01098
3506.83594 0.01137
3505.07813 0.01181
3503.32031 0.01178
3501.56250 0.01140
3499.80469 0.01117
3498.04688 0.01128
3496.28906 0.01138
3494.53125 0.01114
3492.77344 0.01069
3491.01563 0.01052
3489.25781 0.01092
3487.50000 0.01151
3485.74219 0.01158
3483.98438 0.01116
3482.22656 0.01087
3480.46875 0.01100
3478.71094 0.01124
3476.95313 0.01129
3475.19531 0.01128
3473.43750 0.01141
3471.67969 0.01148
3469.92188 0.01132
3468.16406 0.01120
3466.40625 0.01132
3464.64844 0.01165
3462.89063 0.01192
3461.13281 0.01187
3459.37500 0.01160
3457.61719 0.01148
3455.85938 0.01153
3454.10156 0.01164
3452.34375 0.01168
3450.58594 0.01137
3448.82813 0.01084
3447.07031 0.01053
3445.31250 0.01058
3443.55469 0.01091
3441.79688 0.01145
3440.03906 0.01205
3438.28125 0.01246
3436.52344 0.01255
3434.76563 0.01248
3433.00781 0.01222
3431.25000 0.01171
3429.49219 0.01121
3427.73438 0.01083
3425.97656 0.01071
3424.21875 0.01108
3422.46094 0.01173
3420.70313 0.01217
3418.94531 0.01207
3417.18750 0.01161
3415.42969 0.01132
3413.67188 0.01120
3411.91406 0.01098
3410.15625 0.01086
3408.39844 0.01110
3406.64063 0.01149
3404.88281 0.01158
3403.12500 0.01135
3401.36719 0.01119
3399.60938 0.01119
3397.85156 0.01108
3396.09375 0.01094
3394.33594 0.01093
3392.57813 0.01091
3390.82031 0.01067
3389.06250 0.01043
3387.30469 0.01057
3385.54688 0.01096
3383.78906 0.01137
3382.03125 0.01188
3380.27344 0.01230
3378.51563 0.01222
3376.75781 0.01179
3375.00000 0.01146
3373.24219 0.01144
3371.48438 0.01159
3369.72656 0.01153
3367.96875 0.01127
3366.21094 0.01120
3364.45313 0.01153
3362.69531 0.01195
3360.93750 0.01217
3359.17969 0.01235
3357.42188 0.01258
3355.66406 0.01246
3353.90625 0.01193
3352.14844 0.01151
3350.39063 0.01147
3348.63281 0.01160
3346.87500 0.01164
3345.11719 0.01168
3343.35938 0.01187
3341.60156 0.01197
3339.84375 0.01160
3338.08594 0.01106
3336.32813 0.01086
3334.57031 0.01099
3332.81250 0.01118
3331.05469 0.01141
3329.29688 0.01172
3327.53906 0.01188
3325.78125 0.01166
3324.02344 0.01125
3322.26563 0.01098
3320.50781 0.01104
3318.75000 0.01138
3316.99219 0.01172
3315.23438 0.01189
3313.47656 0.01190
3311.71875 0.01177
3309.96094 0.01156
3308.20313 0.01129
3306.44531 0.01096
3304.68750 0.01061
3302.92969 0.01047
3301.17188 0.01065
3299.41406 0.01111
3297.65625 0.01151
3295.89844 0.01143
3294.14063 0.01103
3292.38281 0.01089
3290.62500 0.01101
3288.86719 0.01111
3287.10938 0.01130
3285.35156 0.01156
3283.59375 0.01156
3281.83594 0.01135
3280.07813 0.01123
3278.32031 0.01145
3276.56250 0.01192
3274.80469 0.01220
3273.04688 0.01199
3271.28906 0.01160
3269.53125 0.01156
3267.77344 0.01189
3266.01563 0.01209
3264.25781 0.01187
3262.50000 0.01153
3260.74219 0.01138
3258.98438 0.01126
3257.22656 0.01102
3255.46875 0.01085
3253.71094 0.01094
3251.95313 0.01126
3250.19531 0.01155
3248.43750 0.01153
3246.67969 0.01130
3244.92188 0.01117
3243.16406 0.01110
3241.40625 0.01107
3239.64844 0.01134
3237.89063 0.01181
3236.13281 0.01202
3234.37500 0.01173
3232.61719 0.01121
3230.85938 0.01094
3229.10156 0.01102
3227.34375 0.01114
3225.58594 0.01113
3223.82813 0.01118
3222.07031 0.01134
3220.31250 0.01149
3218.55469 0.01159
3216.79688 0.01154
3215.03906 0.01134
3213.28125 0.01125
3211.52344 0.01138
3209.76563 0.01143
3208.00781 0.01128
3206.25000 0.01130
3204.49219 0.01170
3202.73438 0.01211
3200.97656 0.01219
3199.21875 0.01206
3197.46094 0.01193
3195.70313 0.01180
3193.94531 0.01166
3192.18750 0.01159
3190.42969 0.01144
3188.67188 0.01112
3186.91406 0.01097
3185.15625 0.01114
3183.39844 0.01134
3181.64063 0.01144
3179.88281 0.01156
3178.12500 0.01167
3176.36719 0.01156
3174.60938 0.01127
3172.85156 0.01109
3171.09375 0.01121
3169.33594 0.01157
3167.57813 0.01180
3165.82031 0.01163
3164.06250 0.01134
3162.30469 0.01116
3160.54688 0.01099
3158.78906 0.01087
3157.03125 0.01104
3155.27344 0.01134
3153.51563 0.01145
3151.75781 0.01132
3150.00000 0.01112
3148.24219 0.01102
3146.48438 0.01110
3144.72656 0.01129
3142.96875 0.01143
3141.21094 0.01149
3139.45313 0.01154
3137.69531 0.01156
3135.93750 0.01146
3134.17969 0.01113
3132.42188 0.01074
3130.66406 0.01056
3128.90625 0.01058
3127.14844 0.01062
3125.39063 0.01070
3123.63281 0.01079
3121.87500 0.01085
3120.11719 0.01094
3118.35938 0.01111
3116.60156 0.01124
3114.84375 0.01121
3113.08594 0.01114
3111.32813 0.01121
3109.57031 0.01133
3107.81250 0.01124
3106.05469 0.01102
3104.29688 0.01096
3102.53906 0.01106
3100.78125 0.01113
3099.02344 0.01103
3097.26563 0.01090
3095.50781 0.01091
3093.75000 0.01093
3091.99219 0.01101
3090.23438 0.01130
3088.47656 0.01155
3086.71875 0.01147
3084.96094 0.01125
3083.20313 0.01117
3081.44531 0.01113
3079.68750 0.01105
3077.92969 0.01099
3076.17188 0.01101
3074.41406 0.01102
3072.65625 0.01094
3070.89844 0.01085
3069.14063 0.01091
3067.38281 0.01107
3065.62500 0.01115
3063.86719 0.01121
3062.10938 0.01132
3060.35156 0.01127
3058.59375 0.01097
3056.83594 0.01073
3055.07813 0.01086
3053.32031 0.01115
3051.56250 0.01132
3049.80469 0.01136
3048.04688 0.01136
3046.28906 0.01126
3044.53125 0.01114
3042.77344 0.01111
3041.01563 0.01107
3039.25781 0.01090
3037.50000 0.01069
3035.74219 0.01061
3033.98438 0.01068
3032.22656 0.01079
3030.46875 0.01095
3028.71094 0.01122
3026.95313 0.01153
3025.19531 0.01174
3023.43750 0.01189
3021.67969 0.01198
3019.92188 0.01190
3018.16406 0.01175
3016.40625 0.01173
3014.64844 0.01177
3012.89063 0.01172
3011.13281 0.01165
3009.37500 0.01170
3007.61719 0.01178
3005.85938 0.01180
3004.10156 0.01180
3002.34375 0.01190
3000.58594 0.01212
2998.82813 0.01230
2997.07031 0.01230
2995.31250 0.01209
2993.55469 0.01189
2991.79688 0.01189
2990.03906 0.01211
2988.28125 0.01235
2986.52344 0.01237
2984.76563 0.01217
2983.00781 0.01203
2981.25000 0.01208
2979.49219 0.01216
2977.73438 0.01215
2975.97656 0.01215
2974.21875 0.01224
2972.46094 0.01232
2970.70313 0.01242
2968.94531 0.01266
2967.18750 0.01290
2965.42969 0.01285
2963.67188 0.01260
2961.91406 0.01242
2960.15625 0.01239
2958.39844 0.01244
2956.64063 0.01247
2954.88281 0.01248
2953.12500 0.01254
2951.36719 0.01259
2949.60938 0.01260
2947.85156 0.01270
2946.09375 0.01286
2944.33594 0.01299
2942.57813 0.01316
2940.82031 0.01340
2939.06250 0.01365
2937.30469 0.01379
2935.54688 0.01377
2933.78906 0.01378
2932.03125 0.01386
2930.27344 0.01392
2928.51563 0.01391
2926.75781 0.01379
2925.00000 0.01357
2923.24219 0.01337
2921.48438 0.01314
2919.72656 0.01283
2917.96875 0.01258
2916.21094 0.01242
2914.45313 0.01226
2912.69531 0.01213
2910.93750 0.01207
2909.17969 0.01204
2907.42188 0.01209
2905.66406 0.01226
2903.90625 0.01233
2902.14844 0.01213
2900.39063 0.01179
2898.63281 0.01145
2896.87500 0.01122
2895.11719 0.01120
2893.35938 0.01130
2891.60156 0.01133
2889.84375 0.01119
2888.08594 0.01105
2886.32813 0.01108
2884.57031 0.01126
2882.81250 0.01143
2881.05469 0.01152
2879.29688 0.01159
2877.53906 0.01168
2875.78125 0.01169
2874.02344 0.01159
2872.26563 0.01156
2870.50781 0.01176
2868.75000 0.01207
2866.99219 0.01220
2865.23438 0.01203
2863.47656 0.01178
2861.71875 0.01176
2859.96094 0.01192
2858.20313 0.01200
2856.44531 0.01194
2854.68750 0.01177
2852.92969 0.01143
2851.17188 0.01109
2849.41406 0.01098
2847.65625 0.01101
2845.89844 0.01087
2844.14063 0.01054
2842.38281 0.01023
2840.62500 0.01012
2838.86719 0.01017
2837.10938 0.01023
2835.35156 0.01032
2833.59375 0.01048
2831.83594 0.01061
2830.07813 0.01059
2828.32031 0.01037
2826.56250 0.01006
2824.80469 0.00982
2823.04688 0.00972
2821.28906 0.00974
2819.53125 0.00982
2817.77344 0.00986
2816.01563 0.00986
2814.25781 0.00995
2812.50000 0.01008
2810.74219 0.01012
2808.98438 0.01004
2807.22656 0.00991
2805.46875 0.00980
2803.71094 0.00982
2801.95313 0.00990
2800.19531 0.00993
2798.43750 0.00993
2796.67969 0.00989
2794.92188 0.00973
2793.16406 0.00960
2791.40625 0.00976
2789.64844 0.01005
2787.89063 0.01017
2786.13281 0.01011
2784.37500 0.01001
2782.61719 0.00993
2780.85938 0.00990
2779.10156 0.00984
2777.34375 0.00971
2775.58594 0.00965
2773.82813 0.00964
2772.07031 0.00951
2770.31250 0.00930
2768.55469 0.00922
2766.79688 0.00932
2765.03906 0.00949
2763.28125 0.00963
2761.52344 0.00970
2759.76563 0.00973
2758.00781 0.00978
2756.25000 0.00989
2754.49219 0.00993
2752.73438 0.00982
2750.97656 0.00968
2749.21875 0.00958
2747.46094 0.00942
2745.70313 0.00928
2743.94531 0.00932
2742.18750 0.00949
2740.42969 0.00959
2738.67188 0.00955
2736.91406 0.00961
2735.15625 0.00978
2733.39844 0.00979
2731.64063 0.00963
2729.88281 0.00962
2728.12500 0.00977
2726.36719 0.00988
2724.60938 0.00991
2722.85156 0.00985
2721.09375 0.00982
2719.33594 0.00985
2717.57813 0.00989
2715.82031 0.00985
2714.06250 0.00968
2712.30469 0.00949
2710.54688 0.00943
2708.78906 0.00947
2707.03125 0.00951
2705.27344 0.00950
2703.51563 0.00946
2701.75781 0.00949
2700.00000 0.00951
2698.24219 0.00939
2696.48438 0.00925
2694.72656 0.00925
2692.96875 0.00937
2691.21094 0.00940
2689.45313 0.00932
2687.69531 0.00929
2685.93750 0.00935
2684.17969 0.00939
2682.42188 0.00932
2680.66406 0.00917
2678.90625 0.00904
2677.14844 0.00897
2675.39063 0.00903
2673.63281 0.00920
2671.87500 0.00933
2670.11719 0.00941
2668.35938 0.00954
2666.60156 0.00973
2664.84375 0.00989
2663.08594 0.01006
2661.32813 0.01023
2659.57031 0.01033
2657.81250 0.01027
2656.05469 0.01007
2654.29688 0.00992
2652.53906 0.00996
2650.78125 0.01006
2649.02344 0.01013
2647.26563 0.01021
2645.50781 0.01029
2643.75000 0.01034
2641.99219 0.01043
2640.23438 0.01051
2638.47656 0.01051
2636.71875 0.01041
2634.96094 0.01028
2633.20313 0.01020
2631.44531 0.01017
2629.68750 0.01016
2627.92969 0.01022
2626.17188 0.01032
2624.41406 0.01036
2622.65625 0.01030
2620.89844 0.01017
2619.14063 0.01004
2617.38281 0.01001
2615.62500 0.01008
2613.86719 0.01018
2612.10938 0.01027
2610.35156 0.01030
2608.59375 0.01029
2606.83594 0.01031
2605.07813 0.01039
2603.32031 0.01049
2601.56250 0.01046
2599.80469 0.01023
2598.04688 0.01008
2596.28906 0.01030
2594.53125 0.01064
2592.77344 0.01066
2591.01563 0.01037
2589.25781 0.01008
2587.50000 0.01004
2585.74219 0.01022
2583.98438 0.01043
2582.22656 0.01062
2580.46875 0.01082
2578.71094 0.01092
2576.95313 0.01085
2575.19531 0.01072
2573.43750 0.01071
2571.67969 0.01084
2569.92188 0.01095
2568.16406 0.01101
2566.40625 0.01112
2564.64844 0.01125
2562.89063 0.01131
2561.13281 0.01143
2559.37500 0.01167
2557.61719 0.01182
2555.85938 0.01176
2554.10156 0.01160
2552.34375 0.01147
2550.58594 0.01140
2548.82813 0.01142
2547.07031 0.01157
2545.31250 0.01182
2543.55469 0.01205
2541.79688 0.01219
2540.03906 0.01235
2538.28125 0.01256
2536.52344 0.01265
2534.76563 0.01254
2533.00781 0.01238
2531.25000 0.01238
2529.49219 0.01254
2527.73438 0.01266
2525.97656 0.01254
2524.21875 0.01220
2522.46094 0.01176
2520.70313 0.01147
2518.94531 0.01142
2517.18750 0.01151
2515.42969 0.01169
2513.67188 0.01196
2511.91406 0.01219
2510.15625 0.01228
2508.39844 0.01226
2506.64063 0.01216
2504.88281 0.01207
2503.12500 0.01208
2501.36719 0.01210
2499.60938 0.01198
2497.85156 0.01175
2496.09375 0.01152
2494.33594 0.01131
2492.57813 0.01118
2490.82031 0.01113
2489.06250 0.01105
2487.30469 0.01085
2485.54688 0.01055
2483.78906 0.01022
2482.03125 0.00996
2480.27344 0.00979
2478.51563 0.00963
2476.75781 0.00945
2475.00000 0.00943
2473.24219 0.00958
2471.48438 0.00959
2469.72656 0.00936
2467.96875 0.00916
2466.21094 0.00910
2464.45313 0.00911
2462.69531 0.00907
2460.93750 0.00897
2459.17969 0.00884
2457.42188 0.00876
2455.66406 0.00868
2453.90625 0.00859
2452.14844 0.00863
2450.39063 0.00881
2448.63281 0.00892
2446.87500 0.00881
2445.11719 0.00869
2443.35938 0.00867
2441.60156 0.00866
2439.84375 0.00860
2438.08594 0.00855
2436.32813 0.00852
2434.57031 0.00850
2432.81250 0.00850
2431.05469 0.00853
2429.29688 0.00856
2427.53906 0.00851
2425.78125 0.00834
2424.02344 0.00813
2422.26563 0.00802
2420.50781 0.00809
2418.75000 0.00827
2416.99219 0.00844
2415.23438 0.00848
2413.47656 0.00836
2411.71875 0.00808
2409.96094 0.00780
2408.20313 0.00766
2406.44531 0.00769
2404.68750 0.00788
2402.92969 0.00808
2401.17188 0.00808
2399.41406 0.00792
2397.65625 0.00786
2395.89844 0.00802
2394.14063 0.00823
2392.38281 0.00837
2390.62500 0.00845
2388.86719 0.00852
2387.10938 0.00870
2385.35156 0.00907
2383.59375 0.00938
2381.83594 0.00932
2380.07813 0.00888
2378.32031 0.00830
2376.56250 0.00811
2374.80469 0.00887
2373.04688 0.01005
2371.28906 0.01049
2369.53125 0.01018
2367.77344 0.00965
2366.01563 0.00858
2364.25781 0.00728
2362.50000 0.00703
2360.74219 0.00798
2358.98438 0.00888
2357.22656 0.00914
2355.46875 0.00912
2353.71094 0.00915
2351.95313 0.00935
2350.19531 0.00969
2348.43750 0.01002
2346.67969 0.00999
2344.92188 0.00956
2343.16406 0.00902
2341.40625 0.00862
2339.64844 0.00861
2337.89063 0.00900
2336.13281 0.00929
2334.37500 0.00914
2332.61719 0.00883
2330.85938 0.00857
2329.10156 0.00832
2327.34375 0.00822
2325.58594 0.00822
2323.82813 0.00808
2322.07031 0.00783
2320.31250 0.00766
2318.55469 0.00761
2316.79688 0.00770
2315.03906 0.00784
2313.28125 0.00791
2311.52344 0.00794
2309.76563 0.00794
2308.00781 0.00779
2306.25000 0.00757
2304.49219 0.00748
2302.73438 0.00746
2300.97656 0.00729
2299.21875 0.00707
2297.46094 0.00698
2295.70313 0.00705
2293.94531 0.00723
2292.18750 0.00742
2290.42969 0.00751
2288.67188 0.00753
2286.91406 0.00762
2285.15625 0.00779
2283.39844 0.00779
2281.64063 0.00752
2279.88281 0.00728
2278.12500 0.00731
2276.36719 0.00737
2274.60938 0.00727
2272.85156 0.00719
2271.09375 0.00720
2269.33594 0.00721
2267.57813 0.00723
2265.82031 0.00728
2264.06250 0.00725
2262.30469 0.00708
2260.54688 0.00687
2258.78906 0.00678
2257.03125 0.00693
2255.27344 0.00727
2253.51563 0.00751
2251.75781 0.00746
2250.00000 0.00728
2248.24219 0.00718
2246.48438 0.00714
2244.72656 0.00707
2242.96875 0.00702
2241.21094 0.00702
2239.45313 0.00704
2237.69531 0.00701
2235.93750 0.00692
2234.17969 0.00690
2232.42188 0.00705
2230.66406 0.00725
2228.90625 0.00728
2227.14844 0.00713
2225.39063 0.00697
2223.63281 0.00697
2221.87500 0.00703
2220.11719 0.00692
2218.35938 0.00676
2216.60156 0.00673
2214.84375 0.00667
2213.08594 0.00649
2211.32813 0.00642
2209.57031 0.00660
2207.81250 0.00686
2206.05469 0.00692
2204.29688 0.00679
2202.53906 0.00659
2200.78125 0.00645
2199.02344 0.00637
2197.26563 0.00639
2195.50781 0.00644
2193.75000 0.00649
2191.99219 0.00654
2190.23438 0.00656
2188.47656 0.00656
2186.71875 0.00657
2184.96094 0.00651
2183.20313 0.00636
2181.44531 0.00629
2179.68750 0.00634
2177.92969 0.00634
2176.17188 0.00628
2174.41406 0.00630
2172.65625 0.00647
2170.89844 0.00663
2169.14063 0.00674
2167.38281 0.00690
2165.62500 0.00706
2163.86719 0.00701
2162.10938 0.00682
2160.35156 0.00675
2158.59375 0.00680
2156.83594 0.00674
2155.07813 0.00653
2153.32031 0.00628
2151.56250 0.00610
2149.80469 0.00603
2148.04688 0.00605
2146.28906 0.00612
2144.53125 0.00621
2142.77344 0.00633
2141.01563 0.00646
2139.25781 0.00647
2137.50000 0.00628
2135.74219 0.00601
2133.98438 0.00585
2132.22656 0.00586
2130.46875 0.00600
2128.71094 0.00617
2126.95313 0.00619
2125.19531 0.00602
2123.43750 0.00580
2121.67969 0.00572
2119.92188 0.00574
2118.16406 0.00569
2116.40625 0.00555
2114.64844 0.00551
2112.89063 0.00561
2111.13281 0.00562
2109.37500 0.00548
2107.61719 0.00534
2105.85938 0.00528
2104.10156 0.00525
2102.34375 0.00523
2100.58594 0.00525
2098.82813 0.00538
2097.07031 0.00554
2095.31250 0.00558
2093.55469 0.00548
2091.79688 0.00534
2090.03906 0.00526
2088.28125 0.00524
2086.52344 0.00523
2084.76563 0.00514
2083.00781 0.00504
2081.25000 0.00499
2079.49219 0.00498
2077.73438 0.00500
2075.97656 0.00498
2074.21875 0.00492
2072.46094 0.00482
2070.70313 0.00472
2068.94531 0.00473
2067.18750 0.00490
2065.42969 0.00506
2063.67188 0.00503
2061.91406 0.00484
2060.15625 0.00471
2058.39844 0.00475
2056.64063 0.00489
2054.88281 0.00500
2053.12500 0.00499
2051.36719 0.00486
2049.60938 0.00470
2047.85156 0.00459
2046.09375 0.00457
2044.33594 0.00460
2042.57813 0.00460
2040.82031 0.00455
2039.06250 0.00452
2037.30469 0.00456
2035.54688 0.00466
2033.78906 0.00477
2032.03125 0.00482
2030.27344 0.00482
2028.51563 0.00476
2026.75781 0.00456
2025.00000 0.00424
2023.24219 0.00401
2021.48438 0.00400
2019.72656 0.00414
2017.96875 0.00430
2016.21094 0.00433
2014.45313 0.00418
2012.69531 0.00403
2010.93750 0.00399
2009.17969 0.00404
2007.42188 0.00407
2005.66406 0.00403
2003.90625 0.00400
2002.14844 0.00405
2000.39063 0.00414
1998.63281 0.00418
1996.87500 0.00412
1995.11719 0.00401
1993.35938 0.00394
1991.60156 0.00393
1989.84375 0.00396
1988.08594 0.00400
1986.32813 0.00398
1984.57031 0.00390
1982.81250 0.00391
1981.05469 0.00409
1979.29688 0.00425
1977.53906 0.00420
1975.78125 0.00402
1974.02344 0.00393
1972.26563 0.00395
1970.50781 0.00393
1968.75000 0.00381
1966.99219 0.00372
1965.23438 0.00367
1963.47656 0.00361
1961.71875 0.00363
1959.96094 0.00374
1958.20313 0.00375
1956.44531 0.00359
1954.68750 0.00349
1952.92969 0.00364
1951.17188 0.00389
1949.41406 0.00401
1947.65625 0.00401
1945.89844 0.00400
1944.14063 0.00402
1942.38281 0.00403
1940.62500 0.00392
1938.86719 0.00365
1937.10938 0.00327
1935.35156 0.00307
1933.59375 0.00325
1931.83594 0.00367
1930.07813 0.00395
1928.32031 0.00390
1926.56250 0.00365
1924.80469 0.00341
1923.04688 0.00331
1921.28906 0.00339
1919.53125 0.00349
1917.77344 0.00354
1916.01563 0.00353
1914.25781 0.00344
1912.50000 0.00334
1910.74219 0.00334
1908.98438 0.00341
1907.22656 0.00338
1905.46875 0.00322
1903.71094 0.00309
1901.95313 0.00307
1900.19531 0.00315
1898.43750 0.00336
1896.67969 0.00353
1894.92188 0.00343
1893.16406 0.00317
1891.40625 0.00308
1889.64844 0.00313
1887.89063 0.00311
1886.13281 0.00300
1884.37500 0.00298
1882.61719 0.00304
1880.85938 0.00300
1879.10156 0.00283
1877.34375 0.00262
1875.58594 0.00251
1873.82813 0.00274
1872.07031 0.00311
1870.31250 0.00321
1868.55469 0.00304
1866.79688 0.00288
1865.03906 0.00285
1863.28125 0.00289
1861.52344 0.00295
1859.76563 0.00301
1858.00781 0.00301
1856.25000 0.00290
1854.49219 0.00263
1852.73438 0.00236
1850.97656 0.00236
1849.21875 0.00267
1847.46094 0.00292
1845.70313 0.00297
1843.94531 0.00305
1842.18750 0.00321
1840.42969 0.00330
1838.67188 0.00322
1836.91406 0.00306
1835.15625 0.00295
1833.39844 0.00291
1831.64063 0.00298
1829.88281 0.00314
1828.12500 0.00319
1826.36719 0.00309
1824.60938 0.00299
1822.85156 0.00291
1821.09375 0.00284
1819.33594 0.00275
1817.57813 0.00265
1815.82031 0.00269
1814.06250 0.00297
1812.30469 0.00339
1810.54688 0.00383
1808.78906 0.00431
1807.03125 0.00497
1805.27344 0.00571
1803.51563 0.00633
1801.75781 0.00684
1800.00000 0.00750
1798.24219 0.00873
1796.48438 0.01044
1794.72656 0.01167
1792.96875 0.01207
1791.21094 0.01189
1789.45313 0.01143
1787.69531 0.01077
1785.93750 0.00978
1784.17969 0.00856
1782.42188 0.00732
1780.66406 0.00619
1778.90625 0.00522
1777.14844 0.00442
1775.39063 0.00395
1773.63281 0.00379
1771.87500 0.00378
1770.11719 0.00380
1768.35938 0.00373
1766.60156 0.00354
1764.84375 0.00344
1763.08594 0.00360
1761.32813 0.00387
1759.57031 0.00393
1757.81250 0.00375
1756.05469 0.00354
1754.29688 0.00346
1752.53906 0.00345
1750.78125 0.00357
1749.02344 0.00381
1747.26563 0.00395
1745.50781 0.00393
1743.75000 0.00394
1741.99219 0.00395
1740.23438 0.00389
1738.47656 0.00391
1736.71875 0.00402
1734.96094 0.00408
1733.20313 0.00407
1731.44531 0.00406
1729.68750 0.00416
1727.92969 0.00431
1726.17188 0.00429
1724.41406 0.00400
1722.65625 0.00363
1720.89844 0.00378
1719.14063 0.00422
1717.38281 0.00442
1715.62500 0.00440
1713.86719 0.00433
1712.10938 0.00432
1710.35156 0.00446
1708.59375 0.00465
1706.83594 0.00468
1705.07813 0.00458
1703.32031 0.00462
1701.56250 0.00490
1699.80469 0.00532
1698.04688 0.00565
1696.28906 0.00593
1694.53125 0.00621
1692.77344 0.00624
1691.01563 0.00587
1689.25781 0.00560
1687.50000 0.00609
1685.74219 0.00662
1683.98438 0.00695
1682.22656 0.00717
1680.46875 0.00727
1678.71094 0.00720
1676.95313 0.00708
1675.19531 0.00720
1673.43750 0.00764
1671.67969 0.00796
1669.92188 0.00807
1668.16406 0.00820
1666.40625 0.00842
1664.64844 0.00864
1662.89063 0.00877
1661.13281 0.00868
1659.37500 0.00832
1657.61719 0.00825
1655.85938 0.00854
1654.10156 0.00867
1652.34375 0.00890
1650.58594 0.00915
1648.82813 0.00918
1647.07031 0.00928
1645.31250 0.00955
1643.55469 0.00983
1641.79688 0.01004
1640.03906 0.01022
1638.28125 0.01023
1636.52344 0.01011
1634.76563 0.01007
1633.00781 0.01034
1631.25000 0.01078
1629.49219 0.01098
1627.73438 0.01086
1625.97656 0.01076
1624.21875 0.01080
1622.46094 0.01096
1620.70313 0.01131
1618.94531 0.01169
1617.18750 0.01201
1615.42969 0.01232
1613.67188 0.01254
1611.91406 0.01269
1610.15625 0.01282
1608.39844 0.01302
1606.64063 0.01338
1604.88281 0.01379
1603.12500 0.01403
1601.36719 0.01416
1599.60938 0.01445
1597.85156 0.01501
1596.09375 0.01565
1594.33594 0.01633
1592.57813 0.01723
1590.82031 0.01833
1589.06250 0.01954
1587.30469 0.02083
1585.54688 0.02216
1583.78906 0.02361
1582.03125 0.02576
1580.27344 0.02873
1578.51563 0.03092
1576.75781 0.03240
1575.00000 0.03417
1573.24219 0.03626
1571.48438 0.03820
1569.72656 0.04005
1567.96875 0.04152
1566.21094 0.04256
1564.45313 0.04466
1562.69531 0.04884
1560.93750 0.05154
1559.17969 0.05365
1557.42188 0.05586
1555.66406 0.05809
1553.90625 0.06052
1552.14844 0.06281
1550.39063 0.06480
1548.63281 0.06696
1546.87500 0.06992
1545.11719 0.07465
1543.35938 0.07828
1541.60156 0.07975
1539.84375 0.08150
1538.08594 0.08460
1536.32813 0.08781
1534.57031 0.09026
1532.81250 0.09289
1531.05469 0.09597
1529.29688 0.09868
1527.53906 0.10176
1525.78125 0.10601
1524.02344 0.10951
1522.26563 0.11261
1520.50781 0.11621
1518.75000 0.11941
1516.99219 0.12223
1515.23438 0.12515
1513.47656 0.12875
1511.71875 0.13504
1509.96094 0.14099
1508.20313 0.14396
1506.44531 0.14652
1504.68750 0.14989
1502.92969 0.15466
1501.17188 0.16041
1499.41406 0.16492
1497.65625 0.16805
1495.89844 0.17181
1494.14063 0.17783
1492.38281 0.18456
1490.62500 0.19000
1488.86719 0.19478
1487.10938 0.19990
1485.35156 0.20550
1483.59375 0.21107
1481.83594 0.21683
1480.07813 0.22341
1478.32031 0.23196
1476.56250 0.24226
1474.80469 0.24979
1473.04688 0.25435
1471.28906 0.25851
1469.53125 0.26311
1467.77344 0.26647
1466.01563 0.26780
1464.25781 0.26841
1462.50000 0.27045
1460.74219 0.27503
1458.98438 0.27853
1457.22656 0.28043
1455.46875 0.28168
1453.71094 0.28248
1451.95313 0.28255
1450.19531 0.28146
1448.43750 0.27917
1446.67969 0.27598
1444.92188 0.27243
1443.16406 0.26829
1441.40625 0.26212
1439.64844 0.25493
1437.89063 0.24944
1436.13281 0.24482
1434.37500 0.23989
1432.61719 0.23510
1430.85938 0.23074
1429.10156 0.22638
1427.34375 0.22244
1425.58594 0.21921
1423.82813 0.21565
1422.07031 0.21168
1420.31250 0.20840
1418.55469 0.20546
1416.79688 0.20232
1415.03906 0.19878
1413.28125 0.19496
1411.52344 0.19108
1409.76563 0.18700
1408.00781 0.18301
1406.25000 0.17956
1404.49219 0.17628
1402.73438 0.17292
1400.97656 0.16961
1399.21875 0.16626
1397.46094 0.16330
1395.70313 0.16100
1393.94531 0.15866
1392.18750 0.15550
1390.42969 0.15195
1388.67188 0.14889
1386.91406 0.14608
1385.15625 0.14297
1383.39844 0.13969
1381.64063 0.13666
1379.88281 0.13366
1378.12500 0.13036
1376.36719 0.12735
1374.60938 0.12481
1372.85156 0.12231
1371.09375 0.11988
1369.33594 0.11755
1367.57813 0.11505
1365.82031 0.11253
1364.06250 0.11042
1362.30469 0.10859
1360.54688 0.10679
1358.78906 0.10493
1357.03125 0.10312
1355.27344 0.10143
1353.51563 0.09973
1351.75781 0.09789
1350.00000 0.09602
1348.24219 0.09430
1346.48438 0.09268
1344.72656 0.09094
1342.96875 0.08906
1341.21094 0.08745
1339.45313 0.08618
1337.69531 0.08497
1335.93750 0.08372
1334.17969 0.08251
1332.42188 0.08141
1330.66406 0.08038
1328.90625 0.07930
1327.14844 0.07817
1325.39063 0.07703
1323.63281 0.07595
1321.87500 0.07495
1320.11719 0.07390
1318.35938 0.07275
1316.60156 0.07167
1314.84375 0.07073
1313.08594 0.06981
1311.32813 0.06880
1309.57031 0.06768
1307.81250 0.06655
1306.05469 0.06557
1304.29688 0.06476
1302.53906 0.06388
1300.78125 0.06284
1299.02344 0.06190
1297.26563 0.06117
1295.50781 0.06065
1293.75000 0.06028
1291.99219 0.05989
1290.23438 0.05940
1288.47656 0.05891
1286.71875 0.05832
1284.96094 0.05754
1283.20313 0.05674
1281.44531 0.05612
1279.68750 0.05550
1277.92969 0.05466
1276.17188 0.05379
1274.41406 0.05322
1272.65625 0.05282
1270.89844 0.05227
1269.14063 0.05150
1267.38281 0.05071
1265.62500 0.05008
1263.86719 0.04964
1262.10938 0.04932
1260.35156 0.04896
1258.59375 0.04843
1256.83594 0.04783
1255.07813 0.04744
1253.32031 0.04725
1251.56250 0.04704
1249.80469 0.04661
1248.04688 0.04598
1246.28906 0.04532
1244.53125 0.04474
1242.77344 0.04424
1241.01563 0.04381
1239.25781 0.04338
1237.50000 0.04290
1235.74219 0.04242
1233.98438 0.04197
1232.22656 0.04151
1230.46875 0.04104
1228.71094 0.04070
1226.95313 0.04044
1225.19531 0.04000
1223.43750 0.03932
1221.67969 0.03865
1219.92188 0.03817
1218.16406 0.03779
1216.40625 0.03749
1214.64844 0.03731
1212.89063 0.03719
1211.13281 0.03702
1209.37500 0.03682
1207.61719 0.03665
1205.85938 0.03650
1204.10156 0.03632
1202.34375 0.03615
1200.58594 0.03601
1198.82813 0.03592
1197.07031 0.03596
1195.31250 0.03609
1193.55469 0.03607
1191.79688 0.03582
1190.03906 0.03554
1188.28125 0.03533
1186.52344 0.03522
1184.76563 0.03511
1183.00781 0.03488
1181.25000 0.03456
1179.49219 0.03427
1177.73438 0.03400
1175.97656 0.03369
1174.21875 0.03326
1172.46094 0.03266
1170.70313 0.03203
1168.94531 0.03158
1167.18750 0.03129
1165.42969 0.03103
1163.67188 0.03067
1161.91406 0.03014
1160.15625 0.02953
1158.39844 0.02909
1156.64063 0.02895
1154.88281 0.02894
1153.12500 0.02888
1151.36719 0.02870
1149.60938 0.02847
1147.85156 0.02831
1146.09375 0.02820
1144.33594 0.02802
1142.57813 0.02777
1140.82031 0.02756
1139.06250 0.02738
1137.30469 0.02717
1135.54688 0.02688
1133.78906 0.02652
1132.03125 0.02611
1130.27344 0.02582
1128.51563 0.02572
1126.75781 0.02562
1125.00000 0.02537
1123.24219 0.02512
1121.48438 0.02502
1119.72656 0.02499
1117.96875 0.02489
1116.21094 0.02474
1114.45313 0.02458
1112.69531 0.02443
1110.93750 0.02433
1109.17969 0.02431
1107.42188 0.02431
1105.66406 0.02430
1103.90625 0.02426
1102.14844 0.02423
1100.39063 0.02419
1098.63281 0.02419
1096.87500 0.02440
1095.11719 0.02492
1093.35938 0.02608
1091.60156 0.02928
1089.84375 0.03679
1088.08594 0.04704
1086.32813 0.05195
1084.57031 0.04665
1082.81250 0.03707
1081.05469 0.03049
1079.29688 0.02763
1077.53906 0.02642
1075.78125 0.02575
1074.02344 0.02529
1072.26563 0.02485
1070.50781 0.02443
1068.75000 0.02401
1066.99219 0.02359
1065.23438 0.02319
1063.47656 0.02289
1061.71875 0.02265
1059.96094 0.02250
1058.20313 0.02247
1056.44531 0.02250
1054.68750 0.02245
1052.92969 0.02219
1051.17188 0.02185
1049.41406 0.02162
1047.65625 0.02154
1045.89844 0.02156
1044.14063 0.02159
1042.38281 0.02154
1040.62500 0.02141
1038.86719 0.02129
1037.10938 0.02115
1035.35156 0.02092
1033.59375 0.02061
1031.83594 0.02032
1030.07813 0.02009
1028.32031 0.01982
1026.56250 0.01950
1024.80469 0.01919
1023.04688 0.01892
1021.28906 0.01876
1019.53125 0.01876
1017.77344 0.01877
1016.01563 0.01864
1014.25781 0.01853
1012.50000 0.01850
1010.74219 0.01845
1008.98438 0.01828
1007.22656 0.01798
1005.46875 0.01763
1003.71094 0.01735
1001.95313 0.01719
1000.19531 0.01718
998.43750 0.01729
996.67969 0.01729
994.92188 0.01709
993.16406 0.01691
991.40625 0.01688
989.64844 0.01682
987.89063 0.01663
986.13281 0.01642
984.37500 0.01624
982.61719 0.01602
980.85938 0.01578
979.10156 0.01562
977.34375 0.01559
975.58594 0.01552
973.82813 0.01537
972.07031 0.01527
970.31250 0.01518
968.55469 0.01511
966.79688 0.01516
965.03906 0.01521
963.28125 0.01514
961.52344 0.01503
959.76563 0.01497
958.00781 0.01491
956.25000 0.01480
954.49219 0.01467
952.73438 0.01452
950.97656 0.01438
949.21875 0.01442
947.46094 0.01459
945.70313 0.01456
943.94531 0.01425
942.18750 0.01401
940.42969 0.01399
938.67188 0.01399
936.91406 0.01385
935.15625 0.01363
933.39844 0.01354
931.64063 0.01355
929.88281 0.01356
928.12500 0.01361
926.36719 0.01371
924.60938 0.01376
922.85156 0.01371
921.09375 0.01358
919.33594 0.01352
917.57813 0.01357
915.82031 0.01383
914.06250 0.01442
912.30469 0.01491
910.54688 0.01469
908.78906 0.01400
907.03125 0.01362
905.27344 0.01378
903.51563 0.01413
901.75781 0.01438
900.00000 0.01446
898.24219 0.01448
896.48438 0.01460
894.72656 0.01493
892.96875 0.01548
891.21094 0.01615
889.45313 0.01704
887.69531 0.01827
885.93750 0.01984
884.17969 0.02175
882.42188 0.02420
880.66406 0.02748
878.90625 0.03215
877.14844 0.03907
875.39063 0.04888
873.63281 0.06166
871.87500 0.07723
870.11719 0.09517
868.35938 0.11465
866.60156 0.13507
864.84375 0.15660
863.08594 0.17907
861.32813 0.20100
859.57031 0.21956
857.81250 0.23040
856.05469 0.22724
854.29688 0.20622
852.53906 0.17243
850.78125 0.13832
849.02344 0.11516
847.26563 0.10412
845.50781 0.09530
843.75000 0.08079
841.99219 0.06424
840.23438 0.05158
838.47656 0.04326
836.71875 0.03725
834.96094 0.03196
833.20313 0.02701
831.44531 0.02282
829.68750 0.01954
827.92969 0.01706
826.17188 0.01524
824.41406 0.01373
822.65625 0.01230
820.89844 0.01106
819.14063 0.00988
817.38281 0.00860
815.62500 0.00756
813.86719 0.00711
812.10938 0.00684
810.35156 0.00619
808.59375 0.00529
806.83594 0.00458
805.07813 0.00410
803.32031 0.00363
801.56250 0.00302
799.80469 0.00226
798.04688 0.00161
796.28906 0.00145
794.53125 0.00173
792.77344 0.00201
791.01563 0.00202
789.25781 0.00169
787.50000 0.00110
785.74219 0.00054
783.98438 0.00032
782.22656 0.00043
780.46875 0.00069
778.71094 0.00091
776.95313 0.00077
775.19531 0.00015
773.43750 -0.00052
771.67969 -0.00078
769.92188 -0.00061
768.16406 -0.00049
766.40625 -0.00099
764.64844 -0.00193
762.89063 -0.00265
761.13281 -0.00292
759.37500 -0.00304
757.61719 -0.00321
755.85938 -0.00325
754.10156 -0.00300
752.34375 -0.00250
750.58594 -0.00204
748.82813 -0.00180
747.07031 -0.00169
745.31250 -0.00159
743.55469 -0.00159
741.79688 -0.00148
740.03906 -0.00105
738.28125 -0.00078
736.52344 -0.00107
734.76563 -0.00170
733.00781 -0.00209
731.25000 -0.00190
729.49219 -0.00155
727.73438 -0.00156
725.97656 -0.00131
724.21875 0.00050
722.46094 0.00476
720.70313 0.01295
718.94531 0.02921
717.18750 0.05424
715.42969 0.07368
713.67188 0.06892
711.91406 0.04560
710.15625 0.02441
708.39844 0.01475
706.64063 0.01605
704.88281 0.02657
703.12500 0.03890
701.36719 0.03970
699.60938 0.02662
697.85156 0.01180
696.09375 0.00363
694.33594 0.00104
692.57813 0.00081
690.82031 0.00059
689.06250 -0.00071
687.30469 -0.00246
685.54688 -0.00391
683.78906 -0.00472
682.03125 -0.00457
680.27344 -0.00403
678.51563 -0.00474
676.75781 -0.00719
675.00000 -0.00959
673.24219 -0.01069
671.48438 -0.01096
669.72656 -0.01034
667.96875 -0.00894
666.21094 -0.00781
664.45313 -0.00687
662.69531 -0.00570
660.93750 -0.00510
659.17969 -0.00659
657.42188 -0.00936
655.66406 -0.01104
653.90625 -0.01136
652.14844 -0.01063
650.39063 -0.00850
648.63281 -0.00654
646.87500 -0.00677
645.11719 -0.00911
643.35938 -0.01291
641.60156 -0.01747
639.84375 -0.02139
638.08594 -0.02345
636.32813 -0.02252
634.57031 -0.01877
632.81250 -0.01500
631.05469 -0.01343
629.29688 -0.01274
627.53906 -0.01092
625.78125 -0.00852
624.02344 -0.00794
622.26563 -0.01052
620.50781 -0.01504
618.75000 -0.02046
616.99219 -0.02614
615.23438 -0.02813
613.47656 -0.02486
611.71875 -0.02164
609.96094 -0.01964
608.20313 -0.01584
606.44531 -0.01274
604.68750 -0.01283
602.92969 -0.01371
601.17188 -0.01560
599.41406 -0.01888
