3997.26563 0.07375
3995.50781 0.07375
3993.75000 0.07378
3991.99219 0.07393
3990.23438 0.07423
3988.47656 0.07450
3986.71875 0.07450
3984.96094 0.07428
3983.20313 0.07414
3981.44531 0.07411
3979.68750 0.07405
3977.92969 0.07399
3976.17188 0.07400
3974.41406 0.07409
3972.65625 0.07421
3970.89844 0.07425
3969.14063 0.07424
3967.38281 0.07424
3965.62500 0.07428
3963.86719 0.07445
3962.10938 0.07470
3960.35156 0.07469
3958.59375 0.07448
3956.83594 0.07453
3955.07813 0.07481
3953.32031 0.07472
3951.56250 0.07419
3949.80469 0.07379
3948.04688 0.07390
3946.28906 0.07440
3944.53125 0.07489
3942.77344 0.07500
3941.01563 0.07479
3939.25781 0.07476
3937.50000 0.07505
3935.74219 0.07510
3933.98438 0.07476
3932.22656 0.07463
3930.46875 0.07491
3928.71094 0.07507
3926.95313 0.07479
3925.19531 0.07439
3923.43750 0.07421
3921.67969 0.07428
3919.92188 0.07458
3918.16406 0.07533
3916.40625 0.07645
3914.64844 0.07710
3912.89063 0.07700
3911.13281 0.07656
3909.37500 0.07588
3907.61719 0.07525
3905.85938 0.07514
3904.10156 0.07559
3902.34375 0.07572
3900.58594 0.07535
3898.82813 0.07524
3897.07031 0.07565
3895.31250 0.07612
3893.55469 0.07656
3891.79688 0.07666
3890.03906 0.07609
3888.28125 0.07563
3886.52344 0.07588
3884.76563 0.07651
3883.00781 0.07705
3881.25000 0.07724
3879.49219 0.07699
3877.73438 0.07694
3875.97656 0.07713
3874.21875 0.07681
3872.46094 0.07623
3870.70313 0.07607
3868.94531 0.07641
3867.18750 0.07739
3865.42969 0.07867
3863.67188 0.07813
3861.91406 0.07666
3860.15625 0.07573
3858.39844 0.07557
3856.64063 0.07595
3854.88281 0.07652
3853.12500 0.07709
3851.36719 0.07768
3849.60938 0.07792
3847.85156 0.07753
3846.09375 0.07692
3844.33594 0.07640
3842.57813 0.07598
3840.82031 0.07577
3839.06250 0.07597
3837.30469 0.07628
3835.54688 0.07656
3833.78906 0.07737
3832.03125 0.07825
3830.27344 0.07816
3828.51563 0.07764
3826.75781 0.07690
3825.00000 0.07607
3823.24219 0.07558
3821.48438 0.07566
3819.72656 0.07636
3817.96875 0.07706
3816.21094 0.07726
3814.45313 0.07772
3812.69531 0.07835
3810.93750 0.07809
3809.17969 0.07742
3807.42188 0.07678
3805.66406 0.07611
3803.90625 0.07562
3802.14844 0.07541
3800.39063 0.07542
3798.63281 0.07565
3796.87500 0.07594
3795.11719 0.07593
3793.35938 0.07579
3791.60156 0.07591
3789.84375 0.07602
3788.08594 0.07579
3786.32813 0.07561
3784.57031 0.07585
3782.81250 0.07658
3781.05469 0.07729
3779.29688 0.07732
3777.53906 0.07682
3775.78125 0.07623
3774.02344 0.07590
3772.26563 0.07614
3770.50781 0.07676
3768.75000 0.07698
3766.99219 0.07694
3765.23438 0.07742
3763.47656 0.07888
3761.71875 0.07986
3759.96094 0.07901
3758.20313 0.07802
3756.44531 0.07809
3754.68750 0.07850
3752.92969 0.07830
3751.17188 0.07819
3749.41406 0.07901
3747.65625 0.08052
3745.89844 0.08091
3744.14063 0.07979
3742.38281 0.07858
3740.62500 0.07797
3738.86719 0.07803
3737.10938 0.07844
3735.35156 0.07862
3733.59375 0.07846
3731.83594 0.07816
3730.07813 0.07773
3728.32031 0.07728
3726.56250 0.07707
3724.80469 0.07752
3723.04688 0.07857
3721.28906 0.07880
3719.53125 0.07817
3717.77344 0.07769
3716.01563 0.07772
3714.25781 0.07835
3712.50000 0.07909
3710.74219 0.07931
3708.98438 0.07925
3707.22656 0.07926
3705.46875 0.07949
3703.71094 0.08017
3701.95313 0.08125
3700.19531 0.08162
3698.43750 0.08083
3696.67969 0.07987
3694.92188 0.07923
3693.16406 0.07909
3691.40625 0.07949
3689.64844 0.08038
3687.89063 0.08173
3686.13281 0.08231
3684.37500 0.08164
3682.61719 0.08126
3680.85938 0.08123
3679.10156 0.08043
3677.34375 0.07931
3675.58594 0.07859
3673.82813 0.07837
3672.07031 0.07846
3670.31250 0.07879
3668.55469 0.07939
3666.79688 0.07980
3665.03906 0.07979
3663.28125 0.08015
3661.52344 0.08167
3659.76563 0.08285
3658.00781 0.08199
3656.25000 0.08074
3654.49219 0.07984
3652.73438 0.07934
3650.97656 0.07919
3649.21875 0.07924
3647.46094 0.07936
3645.70313 0.07956
3643.94531 0.07983
3642.18750 0.08043
3640.42969 0.08163
3638.67188 0.08207
3636.91406 0.08143
3635.15625 0.08093
3633.39844 0.08102
3631.64063 0.08169
3629.88281 0.08230
3628.12500 0.08225
3626.36719 0.08203
3624.60938 0.08180
3622.85156 0.08141
3621.09375 0.08118
3619.33594 0.08120
3617.57813 0.08097
3615.82031 0.08067
3614.06250 0.08077
3612.30469 0.08103
3610.54688 0.08101
3608.78906 0.08108
3607.03125 0.08152
3605.27344 0.08172
3603.51563 0.08131
3601.75781 0.08107
3600.00000 0.08169
3598.24219 0.08252
3596.48438 0.08234
3594.72656 0.08167
3592.96875 0.08129
3591.21094 0.08124
3589.45313 0.08122
3587.69531 0.08113
3585.93750 0.08112
3584.17969 0.08128
3582.42188 0.08154
3580.66406 0.08209
3578.90625 0.08309
3577.14844 0.08363
3575.39063 0.08312
3573.63281 0.08238
3571.87500 0.08181
3570.11719 0.08151
3568.35938 0.08152
3566.60156 0.08179
3564.84375 0.08223
3563.08594 0.08246
3561.32813 0.08235
3559.57031 0.08237
3557.81250 0.08276
3556.05469 0.08299
3554.29688 0.08266
3552.53906 0.08215
3550.78125 0.08198
3549.02344 0.08226
3547.26563 0.08265
3545.50781 0.08276
3543.75000 0.08275
3541.99219 0.08299
3540.23438 0.08338
3538.47656 0.08350
3536.71875 0.08342
3534.96094 0.08331
3533.20313 0.08308
3531.44531 0.08281
3529.68750 0.08266
3527.92969 0.08266
3526.17188 0.08272
3524.41406 0.08280
3522.65625 0.08296
3520.89844 0.08322
3519.14063 0.08336
3517.38281 0.08339
3515.62500 0.08358
3513.86719 0.08375
3512.10938 0.08362
3510.35156 0.08346
3508.59375 0.08353
3506.83594 0.08368
3505.07813 0.08373
3503.32031 0.08373
3501.56250 0.08378
3499.80469 0.08393
3498.04688 0.08411
3496.28906 0.08425
3494.53125 0.08445
3492.77344 0.08472
3491.01563 0.08480
3489.25781 0.08470
3487.50000 0.08472
3485.74219 0.08480
3483.98438 0.08477
3482.22656 0.08480
3480.46875 0.08504
3478.71094 0.08532
3476.95313 0.08549
3475.19531 0.08562
3473.43750 0.08573
3471.67969 0.08572
3469.92188 0.08571
3468.16406 0.08587
3466.40625 0.08606
3464.64844 0.08615
3462.89063 0.08625
3461.13281 0.08650
3459.37500 0.08677
3457.61719 0.08674
3455.85938 0.08635
3454.10156 0.08600
3452.34375 0.08591
3450.58594 0.08592
3448.82813 0.08589
3447.07031 0.08577
3445.31250 0.08556
3443.55469 0.08543
3441.79688 0.08560
3440.03906 0.08605
3438.28125 0.08646
3436.52344 0.08649
3434.76563 0.08625
3433.00781 0.08612
3431.25000 0.08613
3429.49219 0.08598
3427.73438 0.08575
3425.97656 0.08569
3424.21875 0.08583
3422.46094 0.08608
3420.70313 0.08641
3418.94531 0.08668
3417.18750 0.08678
3415.42969 0.08676
3413.67188 0.08674
3411.91406 0.08676
3410.15625 0.08683
3408.39844 0.08691
3406.64063 0.08701
3404.88281 0.08710
3403.12500 0.08704
3401.36719 0.08675
3399.60938 0.08655
3397.85156 0.08680
3396.09375 0.08718
3394.33594 0.08719
3392.57813 0.08676
3390.82031 0.08617
3389.06250 0.08588
3387.30469 0.08618
3385.54688 0.08666
3383.78906 0.08676
3382.03125 0.08667
3380.27344 0.08667
3378.51563 0.08663
3376.75781 0.08662
3375.00000 0.08690
3373.24219 0.08728
3371.48438 0.08740
3369.72656 0.08731
3367.96875 0.08716
3366.21094 0.08697
3364.45313 0.08688
3362.69531 0.08693
3360.93750 0.08703
3359.17969 0.08710
3357.42188 0.08714
3355.66406 0.08712
3353.90625 0.08700
3352.14844 0.08687
3350.39063 0.08684
3348.63281 0.08683
3346.87500 0.08678
3345.11719 0.08668
3343.35938 0.08661
3341.60156 0.08661
3339.84375 0.08661
3338.08594 0.08662
3336.32813 0.08671
3334.57031 0.08687
3332.81250 0.08695
3331.05469 0.08695
3329.29688 0.08695
3327.53906 0.08695
3325.78125 0.08698
3324.02344 0.08712
3322.26563 0.08732
3320.50781 0.08741
3318.75000 0.08734
3316.99219 0.08723
3315.23438 0.08713
3313.47656 0.08698
3311.71875 0.08684
3309.96094 0.08681
3308.20313 0.08689
3306.44531 0.08699
3304.68750 0.08702
3302.92969 0.08693
3301.17188 0.08675
3299.41406 0.08662
3297.65625 0.08659
3295.89844 0.08661
3294.14063 0.08655
3292.38281 0.08634
3290.62500 0.08612
3288.86719 0.08619
3287.10938 0.08651
3285.35156 0.08677
3283.59375 0.08686
3281.83594 0.08681
3280.07813 0.08668
3278.32031 0.08655
3276.56250 0.08659
3274.80469 0.08679
3273.04688 0.08695
3271.28906 0.08703
3269.53125 0.08711
3267.77344 0.08716
3266.01563 0.08718
3264.25781 0.08715
3262.50000 0.08709
3260.74219 0.08704
3258.98438 0.08697
3257.22656 0.08695
3255.46875 0.08696
3253.71094 0.08686
3251.95313 0.08670
3250.19531 0.08667
3248.43750 0.08666
3246.67969 0.08653
3244.92188 0.08638
3243.16406 0.08640
3241.40625 0.08648
3239.64844 0.08647
3237.89063 0.08644
3236.13281 0.08647
3234.37500 0.08644
3232.61719 0.08640
3230.85938 0.08655
3229.10156 0.08680
3227.34375 0.08681
3225.58594 0.08656
3223.82813 0.08632
3222.07031 0.08626
3220.31250 0.08634
3218.55469 0.08644
3216.79688 0.08640
3215.03906 0.08618
3213.28125 0.08588
3211.52344 0.08561
3209.76563 0.08544
3208.00781 0.08541
3206.25000 0.08555
3204.49219 0.08570
3202.73438 0.08570
3200.97656 0.08559
3199.21875 0.08544
3197.46094 0.08534
3195.70313 0.08535
3193.94531 0.08541
3192.18750 0.08543
3190.42969 0.08546
3188.67188 0.08548
3186.91406 0.08546
3185.15625 0.08536
3183.39844 0.08515
3181.64063 0.08490
3179.88281 0.08474
3178.12500 0.08469
3176.36719 0.08470
3174.60938 0.08470
3172.85156 0.08471
3171.09375 0.08478
3169.33594 0.08478
3167.57813 0.08467
3165.82031 0.08458
3164.06250 0.08455
3162.30469 0.08454
3160.54688 0.08454
3158.78906 0.08446
3157.03125 0.08431
3155.27344 0.08421
3153.51563 0.08427
3151.75781 0.08439
3150.00000 0.08437
3148.24219 0.08423
3146.48438 0.08413
3144.72656 0.08412
3142.96875 0.08408
3141.21094 0.08388
3139.45313 0.08363
3137.69531 0.08352
3135.93750 0.08355
3134.17969 0.08357
3132.42188 0.08356
3130.66406 0.08359
3128.90625 0.08364
3127.14844 0.08355
3125.39063 0.08328
3123.63281 0.08304
3121.87500 0.08295
3120.11719 0.08295
3118.35938 0.08301
3116.60156 0.08312
3114.84375 0.08321
3113.08594 0.08325
3111.32813 0.08318
3109.57031 0.08304
3107.81250 0.08299
3106.05469 0.08308
3104.29688 0.08313
3102.53906 0.08298
3100.78125 0.08274
3099.02344 0.08253
3097.26563 0.08233
3095.50781 0.08223
3093.75000 0.08230
3091.99219 0.08247
3090.23438 0.08260
3088.47656 0.08260
3086.71875 0.08252
3084.96094 0.08241
3083.20313 0.08227
3081.44531 0.08218
3079.68750 0.08216
3077.92969 0.08210
3076.17188 0.08198
3074.41406 0.08188
3072.65625 0.08178
3070.89844 0.08165
3069.14063 0.08155
3067.38281 0.08151
3065.62500 0.08146
3063.86719 0.08142
3062.10938 0.08139
3060.35156 0.08130
3058.59375 0.08116
3056.83594 0.08107
3055.07813 0.08110
3053.32031 0.08116
3051.56250 0.08116
3049.80469 0.08114
3048.04688 0.08106
3046.28906 0.08090
3044.53125 0.08082
3042.77344 0.08089
3041.01563 0.08093
3039.25781 0.08094
3037.50000 0.08099
3035.74219 0.08097
3033.98438 0.08076
3032.22656 0.08055
3030.46875 0.08053
3028.71094 0.08067
3026.95313 0.08083
3025.19531 0.08097
3023.43750 0.08099
3021.67969 0.08082
3019.92188 0.08055
3018.16406 0.08042
3016.40625 0.08049
3014.64844 0.08063
3012.89063 0.08065
3011.13281 0.08056
3009.37500 0.08050
3007.61719 0.08050
3005.85938 0.08050
3004.10156 0.08051
3002.34375 0.08058
3000.58594 0.08068
2998.82813 0.08073
2997.07031 0.08071
2995.31250 0.08067
2993.55469 0.08063
2991.79688 0.08060
2990.03906 0.08059
2988.28125 0.08057
2986.52344 0.08054
2984.76563 0.08051
2983.00781 0.08054
2981.25000 0.08065
2979.49219 0.08082
2977.73438 0.08103
2975.97656 0.08124
2974.21875 0.08150
2972.46094 0.08177
2970.70313 0.08196
2968.94531 0.08197
2967.18750 0.08189
2965.42969 0.08186
2963.67188 0.08191
2961.91406 0.08193
2960.15625 0.08192
2958.39844 0.08204
2956.64063 0.08229
2954.88281 0.08254
2953.12500 0.08273
2951.36719 0.08290
2949.60938 0.08309
2947.85156 0.08338
2946.09375 0.08378
2944.33594 0.08422
2942.57813 0.08462
2940.82031 0.08505
2939.06250 0.08550
2937.30469 0.08583
2935.54688 0.08596
2933.78906 0.08594
2932.03125 0.08579
2930.27344 0.08547
2928.51563 0.08507
2926.75781 0.08468
2925.00000 0.08431
2923.24219 0.08399
2921.48438 0.08368
2919.72656 0.08331
2917.96875 0.08295
2916.21094 0.08271
2914.45313 0.08257
2912.69531 0.08246
2910.93750 0.08232
2909.17969 0.08212
2907.42188 0.08194
2905.66406 0.08182
2903.90625 0.08169
2902.14844 0.08153
2900.39063 0.08143
2898.63281 0.08143
2896.87500 0.08152
2895.11719 0.08161
2893.35938 0.08170
2891.60156 0.08181
2889.84375 0.08186
2888.08594 0.08182
2886.32813 0.08181
2884.57031 0.08196
2882.81250 0.08216
2881.05469 0.08227
2879.29688 0.08236
2877.53906 0.08253
2875.78125 0.08280
2874.02344 0.08313
2872.26563 0.08354
2870.50781 0.08397
2868.75000 0.08435
2866.99219 0.08471
2865.23438 0.08508
2863.47656 0.08542
2861.71875 0.08562
2859.96094 0.08565
2858.20313 0.08551
2856.44531 0.08528
2854.68750 0.08502
2852.92969 0.08476
2851.17188 0.08458
2849.41406 0.08457
2847.65625 0.08466
2845.89844 0.08471
2844.14063 0.08466
2842.38281 0.08459
2840.62500 0.08462
2838.86719 0.08477
2837.10938 0.08500
2835.35156 0.08524
2833.59375 0.08540
2831.83594 0.08546
2830.07813 0.08545
2828.32031 0.08540
2826.56250 0.08534
2824.80469 0.08533
2823.04688 0.08541
2821.28906 0.08554
2819.53125 0.08569
2817.77344 0.08580
2816.01563 0.08588
2814.25781 0.08596
2812.50000 0.08608
2810.74219 0.08618
2808.98438 0.08617
2807.22656 0.08613
2805.46875 0.08614
2803.71094 0.08619
2801.95313 0.08626
2800.19531 0.08636
2798.43750 0.08641
2796.67969 0.08638
2794.92188 0.08633
2793.16406 0.08629
2791.40625 0.08628
2789.64844 0.08632
2787.89063 0.08635
2786.13281 0.08633
2784.37500 0.08632
2782.61719 0.08634
2780.85938 0.08630
2779.10156 0.08615
2777.34375 0.08597
2775.58594 0.08588
2773.82813 0.08591
2772.07031 0.08594
2770.31250 0.08595
2768.55469 0.08601
2766.79688 0.08618
2765.03906 0.08637
2763.28125 0.08644
2761.52344 0.08646
2759.76563 0.08654
2758.00781 0.08672
2756.25000 0.08691
2754.49219 0.08703
2752.73438 0.08713
2750.97656 0.08721
2749.21875 0.08716
2747.46094 0.08693
2745.70313 0.08663
2743.94531 0.08636
2742.18750 0.08616
2740.42969 0.08597
2738.67188 0.08575
2736.91406 0.08549
2735.15625 0.08516
2733.39844 0.08471
2731.64063 0.08421
2729.88281 0.08379
2728.12500 0.08341
2726.36719 0.08299
2724.60938 0.08253
2722.85156 0.08210
2721.09375 0.08173
2719.33594 0.08141
2717.57813 0.08108
2715.82031 0.08072
2714.06250 0.08037
2712.30469 0.08009
2710.54688 0.07990
2708.78906 0.07975
2707.03125 0.07961
2705.27344 0.07938
2703.51563 0.07906
2701.75781 0.07876
2700.00000 0.07856
2698.24219 0.07840
2696.48438 0.07823
2694.72656 0.07807
2692.96875 0.07793
2691.21094 0.07781
2689.45313 0.07765
2687.69531 0.07745
2685.93750 0.07733
2684.17969 0.07729
2682.42188 0.07721
2680.66406 0.07707
2678.90625 0.07696
2677.14844 0.07690
2675.39063 0.07685
2673.63281 0.07675
2671.87500 0.07659
2670.11719 0.07638
2668.35938 0.07615
2666.60156 0.07599
2664.84375 0.07591
2663.08594 0.07583
2661.32813 0.07572
2659.57031 0.07564
2657.81250 0.07556
2656.05469 0.07544
2654.29688 0.07534
2652.53906 0.07529
2650.78125 0.07523
2649.02344 0.07516
2647.26563 0.07509
2645.50781 0.07500
2643.75000 0.07494
2641.99219 0.07489
2640.23438 0.07478
2638.47656 0.07460
2636.71875 0.07444
2634.96094 0.07434
2633.20313 0.07425
2631.44531 0.07414
2629.68750 0.07403
2627.92969 0.07391
2626.17188 0.07383
2624.41406 0.07378
2622.65625 0.07370
2620.89844 0.07360
2619.14063 0.07348
2617.38281 0.07339
2615.62500 0.07338
2613.86719 0.07339
2612.10938 0.07332
2610.35156 0.07323
2608.59375 0.07319
2606.83594 0.07319
2605.07813 0.07318
2603.32031 0.07312
2601.56250 0.07303
2599.80469 0.07293
2598.04688 0.07281
2596.28906 0.07273
2594.53125 0.07275
2592.77344 0.07280
2591.01563 0.07277
2589.25781 0.07265
2587.50000 0.07257
2585.74219 0.07258
2583.98438 0.07259
2582.22656 0.07253
2580.46875 0.07244
2578.71094 0.07240
2576.95313 0.07241
2575.19531 0.07245
2573.43750 0.07253
2571.67969 0.07266
2569.92188 0.07278
2568.16406 0.07281
2566.40625 0.07283
2564.64844 0.07291
2562.89063 0.07308
2561.13281 0.07331
2559.37500 0.07353
2557.61719 0.07368
2555.85938 0.07382
2554.10156 0.07402
2552.34375 0.07428
2550.58594 0.07453
2548.82813 0.07472
2547.07031 0.07486
2545.31250 0.07499
2543.55469 0.07513
2541.79688 0.07535
2540.03906 0.07558
2538.28125 0.07574
2536.52344 0.07581
2534.76563 0.07588
2533.00781 0.07596
2531.25000 0.07607
2529.49219 0.07618
2527.73438 0.07627
2525.97656 0.07630
2524.21875 0.07631
2522.46094 0.07633
2520.70313 0.07639
2518.94531 0.07645
2517.18750 0.07651
2515.42969 0.07653
2513.67188 0.07650
2511.91406 0.07650
2510.15625 0.07657
2508.39844 0.07666
2506.64063 0.07675
2504.88281 0.07684
2503.12500 0.07685
2501.36719 0.07681
2499.60938 0.07683
2497.85156 0.07691
2496.09375 0.07702
2494.33594 0.07715
2492.57813 0.07726
2490.82031 0.07733
2489.06250 0.07743
2487.30469 0.07758
2485.54688 0.07773
2483.78906 0.07782
2482.03125 0.07789
2480.27344 0.07796
2478.51563 0.07800
2476.75781 0.07797
2475.00000 0.07790
2473.24219 0.07784
2471.48438 0.07779
2469.72656 0.07776
2467.96875 0.07777
2466.21094 0.07781
2464.45313 0.07789
2462.69531 0.07800
2460.93750 0.07810
2459.17969 0.07820
2457.42188 0.07835
2455.66406 0.07855
2453.90625 0.07875
2452.14844 0.07894
2450.39063 0.07919
2448.63281 0.07957
2446.87500 0.08006
2445.11719 0.08061
2443.35938 0.08124
2441.60156 0.08200
2439.84375 0.08284
2438.08594 0.08369
2436.32813 0.08464
2434.57031 0.08576
2432.81250 0.08703
2431.05469 0.08840
2429.29688 0.08994
2427.53906 0.09159
2425.78125 0.09321
2424.02344 0.09472
2422.26563 0.09604
2420.50781 0.09705
2418.75000 0.09765
2416.99219 0.09783
2415.23438 0.09762
2413.47656 0.09704
2411.71875 0.09614
2409.96094 0.09498
2408.20313 0.09361
2406.44531 0.09203
2404.68750 0.09034
2402.92969 0.08867
2401.17188 0.08715
2399.41406 0.08583
2397.65625 0.08473
2395.89844 0.08383
2394.14063 0.08320
2392.38281 0.08293
2390.62500 0.08304
2388.86719 0.08338
2387.10938 0.08390
2385.35156 0.08463
2383.59375 0.08564
2381.83594 0.08695
2380.07813 0.08856
2378.32031 0.09030
2376.56250 0.09190
2374.80469 0.09337
2373.04688 0.09485
2371.28906 0.09602
2369.53125 0.09640
2367.77344 0.09587
2366.01563 0.09481
2364.25781 0.09355
2362.50000 0.09200
2360.74219 0.08991
2358.98438 0.08744
2357.22656 0.08546
2355.46875 0.08482
2353.71094 0.08578
2351.95313 0.08761
2350.19531 0.08868
2348.43750 0.08847
2346.67969 0.08761
2344.92188 0.08664
2343.16406 0.08589
2341.40625 0.08544
2339.64844 0.08509
2337.89063 0.08459
2336.13281 0.08383
2334.37500 0.08288
2332.61719 0.08184
2330.85938 0.08089
2329.10156 0.08007
2327.34375 0.07905
2325.58594 0.07768
2323.82813 0.07633
2322.07031 0.07540
2320.31250 0.07487
2318.55469 0.07443
2316.79688 0.07391
2315.03906 0.07330
2313.28125 0.07261
2311.52344 0.07191
2309.76563 0.07130
2308.00781 0.07073
2306.25000 0.07008
2304.49219 0.06942
2302.73438 0.06884
2300.97656 0.06839
2299.21875 0.06806
2297.46094 0.06781
2295.70313 0.06751
2293.94531 0.06713
2292.18750 0.06671
2290.42969 0.06639
2288.67188 0.06624
2286.91406 0.06625
2285.15625 0.06627
2283.39844 0.06615
2281.64063 0.06592
2279.88281 0.06573
2278.12500 0.06564
2276.36719 0.06558
2274.60938 0.06548
2272.85156 0.06528
2271.09375 0.06500
2269.33594 0.06474
2267.57813 0.06457
2265.82031 0.06454
2264.06250 0.06459
2262.30469 0.06457
2260.54688 0.06443
2258.78906 0.06423
2257.03125 0.06407
2255.27344 0.06397
2253.51563 0.06393
2251.75781 0.06391
2250.00000 0.06383
2248.24219 0.06365
2246.48438 0.06342
2244.72656 0.06325
2242.96875 0.06321
2241.21094 0.06323
2239.45313 0.06321
2237.69531 0.06310
2235.93750 0.06294
2234.17969 0.06277
2232.42188 0.06256
2230.66406 0.06229
2228.90625 0.06202
2227.14844 0.06182
2225.39063 0.06170
2223.63281 0.06171
2221.87500 0.06173
2220.11719 0.06160
2218.35938 0.06138
2216.60156 0.06124
2214.84375 0.06120
2213.08594 0.06117
2211.32813 0.06113
2209.57031 0.06104
2207.81250 0.06093
2206.05469 0.06085
2204.29688 0.06076
2202.53906 0.06067
2200.78125 0.06060
2199.02344 0.06052
2197.26563 0.06039
2195.50781 0.06024
2193.75000 0.06017
2191.99219 0.06020
2190.23438 0.06022
2188.47656 0.06014
2186.71875 0.06000
2184.96094 0.05986
2183.20313 0.05978
2181.44531 0.05977
2179.68750 0.05971
2177.92969 0.05961
2176.17188 0.05950
2174.41406 0.05936
2172.65625 0.05920
2170.89844 0.05912
2169.14063 0.05918
2167.38281 0.05925
2165.62500 0.05921
2163.86719 0.05910
2162.10938 0.05899
2160.35156 0.05887
2158.59375 0.05877
2156.83594 0.05875
2155.07813 0.05873
2153.32031 0.05860
2151.56250 0.05838
2149.80469 0.05818
2148.04688 0.05799
2146.28906 0.05781
2144.53125 0.05765
2142.77344 0.05753
2141.01563 0.05745
2139.25781 0.05738
2137.50000 0.05732
2135.74219 0.05722
2133.98438 0.05704
2132.22656 0.05689
2130.46875 0.05681
2128.71094 0.05672
2126.95313 0.05659
2125.19531 0.05646
2123.43750 0.05634
2121.67969 0.05620
2119.92188 0.05601
2118.16406 0.05580
2116.40625 0.05559
2114.64844 0.05543
2112.89063 0.05538
2111.13281 0.05532
2109.37500 0.05518
2107.61719 0.05504
2105.85938 0.05496
2104.10156 0.05491
2102.34375 0.05487
2100.58594 0.05483
2098.82813 0.05473
2097.07031 0.05464
2095.31250 0.05456
2093.55469 0.05444
2091.79688 0.05428
2090.03906 0.05421
2088.28125 0.05422
2086.52344 0.05418
2084.76563 0.05404
2083.00781 0.05388
2081.25000 0.05378
2079.49219 0.05375
2077.73438 0.05375
2075.97656 0.05376
2074.21875 0.05382
2072.46094 0.05393
2070.70313 0.05392
2068.94531 0.05380
2067.18750 0.05374
2065.42969 0.05376
2063.67188 0.05378
2061.91406 0.05376
2060.15625 0.05376
2058.39844 0.05380
2056.64063 0.05383
2054.88281 0.05379
2053.12500 0.05367
2051.36719 0.05349
2049.60938 0.05330
2047.85156 0.05307
2046.09375 0.05276
2044.33594 0.05242
2042.57813 0.05213
2040.82031 0.05187
2039.06250 0.05162
2037.30469 0.05140
2035.54688 0.05118
2033.78906 0.05093
2032.03125 0.05068
2030.27344 0.05046
2028.51563 0.05023
2026.75781 0.05001
2025.00000 0.04977
2023.24219 0.04948
2021.48438 0.04916
2019.72656 0.04893
2017.96875 0.04885
2016.21094 0.04880
2014.45313 0.04866
2012.69531 0.04848
2010.93750 0.04831
2009.17969 0.04811
2007.42188 0.04794
2005.66406 0.04782
2003.90625 0.04772
2002.14844 0.04763
2000.39063 0.04760
1998.63281 0.04757
1996.87500 0.04738
1995.11719 0.04708
1993.35938 0.04677
1991.60156 0.04647
1989.84375 0.04621
1988.08594 0.04598
1986.32813 0.04579
1984.57031 0.04563
1982.81250 0.04552
1981.05469 0.04546
1979.29688 0.04540
1977.53906 0.04525
1975.78125 0.04512
1974.02344 0.04506
1972.26563 0.04493
1970.50781 0.04464
1968.75000 0.04431
1966.99219 0.04406
1965.23438 0.04386
1963.47656 0.04372
1961.71875 0.04367
1959.96094 0.04360
1958.20313 0.04343
1956.44531 0.04322
1954.68750 0.04310
1952.92969 0.04312
1951.17188 0.04321
1949.41406 0.04320
1947.65625 0.04289
1945.89844 0.04239
1944.14063 0.04196
1942.38281 0.04166
1940.62500 0.04142
1938.86719 0.04116
1937.10938 0.04091
1935.35156 0.04076
1933.59375 0.04072
1931.83594 0.04078
1930.07813 0.04086
1928.32031 0.04079
1926.56250 0.04060
1924.80469 0.04040
1923.04688 0.04013
1921.28906 0.03980
1919.53125 0.03959
1917.77344 0.03952
1916.01563 0.03945
1914.25781 0.03923
1912.50000 0.03884
1910.74219 0.03843
1908.98438 0.03815
1907.22656 0.03800
1905.46875 0.03788
1903.71094 0.03779
1901.95313 0.03774
1900.19531 0.03766
1898.43750 0.03752
1896.67969 0.03735
1894.92188 0.03705
1893.16406 0.03667
1891.40625 0.03640
1889.64844 0.03618
1887.89063 0.03593
1886.13281 0.03569
1884.37500 0.03548
1882.61719 0.03525
1880.85938 0.03501
1879.10156 0.03491
1877.34375 0.03509
1875.58594 0.03546
1873.82813 0.03546
1872.07031 0.03486
1870.31250 0.03413
1868.55469 0.03359
1866.79688 0.03328
1865.03906 0.03309
1863.28125 0.03288
1861.52344 0.03259
1859.76563 0.03233
1858.00781 0.03215
1856.25000 0.03208
1854.49219 0.03212
1852.73438 0.03224
1850.97656 0.03230
1849.21875 0.03199
1847.46094 0.03134
1845.70313 0.03081
1843.94531 0.03057
1842.18750 0.03047
1840.42969 0.03032
1838.67188 0.03018
1836.91406 0.03020
1835.15625 0.03018
1833.39844 0.02992
1831.64063 0.02958
1829.88281 0.02920
1828.12500 0.02877
1826.36719 0.02837
1824.60938 0.02801
1822.85156 0.02765
1821.09375 0.02733
1819.33594 0.02719
1817.57813 0.02721
1815.82031 0.02714
1814.06250 0.02679
1812.30469 0.02632
1810.54688 0.02603
1808.78906 0.02602
1807.03125 0.02609
1805.27344 0.02596
1803.51563 0.02573
1801.75781 0.02560
1800.00000 0.02561
1798.24219 0.02554
1796.48438 0.02503
1794.72656 0.02427
1792.96875 0.02372
1791.21094 0.02344
1789.45313 0.02329
1787.69531 0.02322
1785.93750 0.02316
1784.17969 0.02301
1782.42188 0.02285
1780.66406 0.02291
1778.90625 0.02316
1777.14844 0.02300
1775.39063 0.02228
1773.63281 0.02147
1771.87500 0.02086
1770.11719 0.02052
1768.35938 0.02037
1766.60156 0.02022
1764.84375 0.02002
1763.08594 0.01989
1761.32813 0.01991
1759.57031 0.02034
1757.81250 0.02188
1756.05469 0.02535
1754.29688 0.03039
1752.53906 0.03550
1750.78125 0.04040
1749.02344 0.04506
1747.26563 0.04858
1745.50781 0.05011
1743.75000 0.05010
1741.99219 0.05035
1740.23438 0.05359
1738.47656 0.06029
1736.71875 0.06496
1734.96094 0.06611
1733.20313 0.06384
1731.44531 0.05788
1729.68750 0.04895
1727.92969 0.03991
1726.17188 0.03357
1724.41406 0.02962
1722.65625 0.02661
1720.89844 0.02411
1719.14063 0.02223
1717.38281 0.02084
1715.62500 0.01991
1713.86719 0.01948
1712.10938 0.01947
1710.35156 0.01953
1708.59375 0.01936
1706.83594 0.01929
1705.07813 0.01961
1703.32031 0.01981
1701.56250 0.01931
1699.80469 0.01829
1698.04688 0.01751
1696.28906 0.01727
1694.53125 0.01738
1692.77344 0.01753
1691.01563 0.01768
1689.25781 0.01778
1687.50000 0.01741
1685.74219 0.01681
1683.98438 0.01635
1682.22656 0.01610
1680.46875 0.01601
1678.71094 0.01601
1676.95313 0.01615
1675.19531 0.01628
1673.43750 0.01592
1671.67969 0.01537
1669.92188 0.01517
1668.16406 0.01519
1666.40625 0.01492
1664.64844 0.01453
1662.89063 0.01447
1661.13281 0.01479
1659.37500 0.01533
1657.61719 0.01546
1655.85938 0.01525
1654.10156 0.01533
1652.34375 0.01545
1650.58594 0.01488
1648.82813 0.01410
1647.07031 0.01372
1645.31250 0.01370
1643.55469 0.01404
1641.79688 0.01453
1640.03906 0.01435
1638.28125 0.01366
1636.52344 0.01320
1634.76563 0.01308
1633.00781 0.01320
1631.25000 0.01339
1629.49219 0.01362
1627.73438 0.01364
1625.97656 0.01342
1624.21875 0.01340
1622.46094 0.01375
1620.70313 0.01410
1618.94531 0.01413
1617.18750 0.01430
1615.42969 0.01483
1613.67188 0.01553
1611.91406 0.01615
1610.15625 0.01665
1608.39844 0.01715
1606.64063 0.01765
1604.88281 0.01804
1603.12500 0.01844
1601.36719 0.01891
1599.60938 0.01933
1597.85156 0.01956
1596.09375 0.01969
1594.33594 0.01986
1592.57813 0.02013
1590.82031 0.02048
1589.06250 0.02087
1587.30469 0.02126
1585.54688 0.02166
1583.78906 0.02225
1582.03125 0.02317
1580.27344 0.02387
1578.51563 0.02393
1576.75781 0.02410
1575.00000 0.02479
1573.24219 0.02540
1571.48438 0.02556
1569.72656 0.02568
1567.96875 0.02585
1566.21094 0.02623
1564.45313 0.02751
1562.69531 0.02917
1560.93750 0.02925
1559.17969 0.02894
1557.42188 0.02891
1555.66406 0.02923
1553.90625 0.02974
1552.14844 0.03030
1550.39063 0.03113
1548.63281 0.03242
1546.87500 0.03390
1545.11719 0.03515
1543.35938 0.03530
1541.60156 0.03517
1539.84375 0.03581
1538.08594 0.03707
1536.32813 0.03792
1534.57031 0.03851
1532.81250 0.03969
1531.05469 0.04156
1529.29688 0.04331
1527.53906 0.04505
1525.78125 0.04703
1524.02344 0.04853
1522.26563 0.05011
1520.50781 0.05187
1518.75000 0.05336
1516.99219 0.05512
1515.23438 0.05758
1513.47656 0.06120
1511.71875 0.06714
1509.96094 0.07152
1508.20313 0.07360
1506.44531 0.07617
1504.68750 0.08019
1502.92969 0.08610
1501.17188 0.09312
1499.41406 0.09879
1497.65625 0.10316
1495.89844 0.10879
1494.14063 0.11711
1492.38281 0.12493
1490.62500 0.13046
1488.86719 0.13537
1487.10938 0.14078
1485.35156 0.14663
1483.59375 0.15220
1481.83594 0.15775
1480.07813 0.16405
1478.32031 0.17154
1476.56250 0.17912
1474.80469 0.18406
1473.04688 0.18758
1471.28906 0.19210
1469.53125 0.19841
1467.77344 0.20440
1466.01563 0.20871
1464.25781 0.21321
1462.50000 0.22111
1460.74219 0.23054
1458.98438 0.23573
1457.22656 0.23952
1455.46875 0.24420
1453.71094 0.25036
1451.95313 0.25780
1450.19531 0.26524
1448.43750 0.27227
1446.67969 0.27965
1444.92188 0.28720
1443.16406 0.29526
1441.40625 0.30573
1439.64844 0.31615
1437.89063 0.32312
1436.13281 0.32914
1434.37500 0.33560
1432.61719 0.34097
1430.85938 0.34467
1429.10156 0.34769
1427.34375 0.35034
1425.58594 0.35262
1423.82813 0.35526
1422.07031 0.35773
1420.31250 0.35920
1418.55469 0.36099
1416.79688 0.36401
1415.03906 0.36833
1413.28125 0.37358
1411.52344 0.37985
1409.76563 0.38826
1408.00781 0.39814
1406.25000 0.40809
1404.49219 0.41993
1402.73438 0.43488
1400.97656 0.45177
1399.21875 0.47076
1397.46094 0.49000
1395.70313 0.50684
1393.94531 0.52373
1392.18750 0.54416
1390.42969 0.56521
1388.67188 0.58178
1386.91406 0.59491
1385.15625 0.60632
1383.39844 0.61572
1381.64063 0.62266
1379.88281 0.62743
1378.12500 0.63013
1376.36719 0.63023
1374.60938 0.62850
1372.85156 0.62575
1371.09375 0.62230
1369.33594 0.61844
1367.57813 0.61346
1365.82031 0.60730
1364.06250 0.60144
1362.30469 0.59615
1360.54688 0.59099
1358.78906 0.58577
1357.03125 0.58070
1355.27344 0.57597
1353.51563 0.57145
1351.75781 0.56706
1350.00000 0.56271
1348.24219 0.55861
1346.48438 0.55503
1344.72656 0.55155
1342.96875 0.54781
1341.21094 0.54410
1339.45313 0.54074
1337.69531 0.53761
1335.93750 0.53449
1334.17969 0.53147
1332.42188 0.52866
1330.66406 0.52599
1328.90625 0.52338
1327.14844 0.52085
1325.39063 0.51854
1323.63281 0.51632
1321.87500 0.51398
1320.11719 0.51174
1318.35938 0.50971
1316.60156 0.50777
1314.84375 0.50586
1313.08594 0.50396
1311.32813 0.50199
1309.57031 0.49977
1307.81250 0.49727
1306.05469 0.49453
1304.29688 0.49153
1302.53906 0.48834
1300.78125 0.48503
1299.02344 0.48166
1297.26563 0.47825
1295.50781 0.47474
1293.75000 0.47103
1291.99219 0.46704
1290.23438 0.46290
1288.47656 0.45888
1286.71875 0.45504
1284.96094 0.45123
1283.20313 0.44738
1281.44531 0.44349
1279.68750 0.43956
1277.92969 0.43565
1276.17188 0.43182
1274.41406 0.42806
1272.65625 0.42436
1270.89844 0.42078
1269.14063 0.41725
1267.38281 0.41374
1265.62500 0.41024
1263.86719 0.40666
1262.10938 0.40298
1260.35156 0.39922
1258.59375 0.39545
1256.83594 0.39182
1255.07813 0.38833
1253.32031 0.38489
1251.56250 0.38146
1249.80469 0.37811
1248.04688 0.37496
1246.28906 0.37203
1244.53125 0.36927
1242.77344 0.36663
1241.01563 0.36413
1239.25781 0.36169
1237.50000 0.35924
1235.74219 0.35684
1233.98438 0.35451
1232.22656 0.35215
1230.46875 0.34978
1228.71094 0.34754
1226.95313 0.34540
1225.19531 0.34325
1223.43750 0.34112
1221.67969 0.33905
1219.92188 0.33702
1218.16406 0.33510
1216.40625 0.33337
1214.64844 0.33175
1212.89063 0.33010
1211.13281 0.32832
1209.37500 0.32644
1207.61719 0.32451
1205.85938 0.32252
1204.10156 0.32047
1202.34375 0.31848
1200.58594 0.31669
1198.82813 0.31512
1197.07031 0.31373
1195.31250 0.31239
1193.55469 0.31090
1191.79688 0.30919
1190.03906 0.30738
1188.28125 0.30554
1186.52344 0.30372
1184.76563 0.30211
1183.00781 0.30078
1181.25000 0.29962
1179.49219 0.29843
1177.73438 0.29716
1175.97656 0.29592
1174.21875 0.29488
1172.46094 0.29408
1170.70313 0.29349
1168.94531 0.29309
1167.18750 0.29275
1165.42969 0.29223
1163.67188 0.29143
1161.91406 0.29042
1160.15625 0.28930
1158.39844 0.28804
1156.64063 0.28667
1154.88281 0.28536
1153.12500 0.28419
1151.36719 0.28311
1149.60938 0.28212
1147.85156 0.28132
1146.09375 0.28072
1144.33594 0.28017
1142.57813 0.27951
1140.82031 0.27870
1139.06250 0.27777
1137.30469 0.27680
1135.54688 0.27582
1133.78906 0.27485
1132.03125 0.27388
1130.27344 0.27301
1128.51563 0.27232
1126.75781 0.27200
1125.00000 0.27236
1123.24219 0.27364
1121.48438 0.27588
1119.72656 0.27874
1117.96875 0.28163
1116.21094 0.28413
1114.45313 0.28604
1112.69531 0.28737
1110.93750 0.28809
1109.17969 0.28796
1107.42188 0.28687
1105.66406 0.28510
1103.90625 0.28301
1102.14844 0.28083
1100.39063 0.27849
1098.63281 0.27572
1096.87500 0.27247
1095.11719 0.26899
1093.35938 0.26567
1091.60156 0.26278
1089.84375 0.26023
1088.08594 0.25785
1086.32813 0.25562
1084.57031 0.25361
1082.81250 0.25182
1081.05469 0.25019
1079.29688 0.24876
1077.53906 0.24746
1075.78125 0.24611
1074.02344 0.24456
1072.26563 0.24285
1070.50781 0.24104
1068.75000 0.23911
1066.99219 0.23717
1065.23438 0.23566
1063.47656 0.23577
1061.71875 0.24082
1059.96094 0.25869
1058.20313 0.30082
1056.44531 0.36497
1054.68750 0.41146
1052.92969 0.39789
1051.17188 0.34884
1049.41406 0.30839
1047.65625 0.28619
1045.89844 0.27454
1044.14063 0.26745
1042.38281 0.26228
1040.62500 0.25813
1038.86719 0.25512
1037.10938 0.25343
1035.35156 0.25231
1033.59375 0.25050
1031.83594 0.24783
1030.07813 0.24506
1028.32031 0.24267
1026.56250 0.24053
1024.80469 0.23855
1023.04688 0.23691
1021.28906 0.23574
1019.53125 0.23503
1017.77344 0.23469
1016.01563 0.23461
1014.25781 0.23468
1012.50000 0.23491
1010.74219 0.23528
1008.98438 0.23566
1007.22656 0.23601
1005.46875 0.23639
1003.71094 0.23682
1001.95313 0.23718
1000.19531 0.23732
998.43750 0.23695
996.67969 0.23605
994.92188 0.23481
993.16406 0.23344
991.40625 0.23186
989.64844 0.22964
987.89063 0.22666
986.13281 0.22338
984.37500 0.22036
982.61719 0.21777
980.85938 0.21549
979.10156 0.21347
977.34375 0.21169
975.58594 0.21013
973.82813 0.20879
972.07031 0.20770
970.31250 0.20674
968.55469 0.20571
966.79688 0.20453
965.03906 0.20334
963.28125 0.20221
961.52344 0.20115
959.76563 0.20028
958.00781 0.19964
956.25000 0.19902
954.49219 0.19826
952.73438 0.19745
950.97656 0.19674
949.21875 0.19606
947.46094 0.19524
945.70313 0.19426
943.94531 0.19322
942.18750 0.19216
940.42969 0.19099
938.67188 0.18975
936.91406 0.18860
935.15625 0.18772
933.39844 0.18711
931.64063 0.18657
929.88281 0.18593
928.12500 0.18521
926.36719 0.18451
924.60938 0.18387
922.85156 0.18324
921.09375 0.18263
919.33594 0.18206
917.57813 0.18148
915.82031 0.18078
914.06250 0.17989
912.30469 0.17870
910.54688 0.17716
908.78906 0.17548
907.03125 0.17388
905.27344 0.17236
903.51563 0.17073
901.75781 0.16903
900.00000 0.16751
898.24219 0.16632
896.48438 0.16531
894.72656 0.16434
892.96875 0.16348
891.21094 0.16280
889.45313 0.16214
887.69531 0.16142
885.93750 0.16071
884.17969 0.16002
882.42188 0.15918
880.66406 0.15822
878.90625 0.15756
877.14844 0.15745
875.39063 0.15736
873.63281 0.15644
871.87500 0.15474
870.11719 0.15313
868.35938 0.15209
866.60156 0.15145
864.84375 0.15100
863.08594 0.15077
861.32813 0.15093
859.57031 0.15174
857.81250 0.15339
856.05469 0.15588
854.29688 0.15944
852.53906 0.16491
850.78125 0.17420
849.02344 0.19086
847.26563 0.22009
845.50781 0.26673
843.75000 0.33141
841.99219 0.40579
840.23438 0.46982
838.47656 0.50075
836.71875 0.49232
834.96094 0.45679
833.20313 0.41013
831.44531 0.36529
829.68750 0.33216
827.92969 0.31407
826.17188 0.30332
824.41406 0.28802
822.65625 0.26659
820.89844 0.24644
819.14063 0.23161
817.38281 0.22088
815.62500 0.21260
813.86719 0.20608
812.10938 0.20073
810.35156 0.19587
808.59375 0.19126
806.83594 0.18722
805.07813 0.18403
803.32031 0.18142
801.56250 0.17906
799.80469 0.17694
798.04688 0.17489
796.28906 0.17267
794.53125 0.17051
792.77344 0.16863
791.01563 0.16682
789.25781 0.16484
787.50000 0.16274
785.74219 0.16064
783.98438 0.15853
782.22656 0.15640
780.46875 0.15430
778.71094 0.15230
776.95313 0.15042
775.19531 0.14861
773.43750 0.14682
771.67969 0.14509
769.92188 0.14348
768.16406 0.14185
766.40625 0.13991
764.64844 0.13779
762.89063 0.13597
761.13281 0.13456
759.37500 0.13342
757.61719 0.13251
755.85938 0.13159
754.10156 0.13053
752.34375 0.12954
750.58594 0.12857
748.82813 0.12732
747.07031 0.12590
745.31250 0.12474
743.55469 0.12399
741.79688 0.12357
740.03906 0.12328
738.28125 0.12277
736.52344 0.12171
734.76563 0.11997
733.00781 0.11777
731.25000 0.11542
729.49219 0.11293
727.73438 0.11024
725.97656 0.10755
724.21875 0.10494
722.46094 0.10215
720.70313 0.09919
718.94531 0.09623
717.18750 0.09324
715.42969 0.09020
713.67188 0.08719
711.91406 0.08415
710.15625 0.08095
708.39844 0.07760
706.64063 0.07481
704.88281 0.07368
703.12500 0.07367
701.36719 0.07212
699.60938 0.06751
697.85156 0.06193
696.09375 0.05789
694.33594 0.05557
692.57813 0.05464
690.82031 0.05635
689.06250 0.06491
687.30469 0.08778
685.54688 0.13415
683.78906 0.21120
682.03125 0.31732
680.27344 0.43217
678.51563 0.51196
676.75781 0.52475
675.00000 0.49464
673.24219 0.45837
671.48438 0.41463
669.72656 0.35445
667.96875 0.31107
666.21094 0.28741
664.45313 0.26788
662.69531 0.24924
660.93750 0.23323
659.17969 0.22039
657.42188 0.21034
655.66406 0.20263
653.90625 0.19631
652.14844 0.19046
650.39063 0.18606
648.63281 0.18317
646.87500 0.17947
645.11719 0.17468
643.35938 0.17065
641.60156 0.16815
639.84375 0.16640
638.08594 0.16446
636.32813 0.16245
634.57031 0.16092
632.81250 0.15965
631.05469 0.15798
629.29688 0.15575
627.53906 0.15335
625.78125 0.15160
624.02344 0.15131
622.26563 0.15118
620.50781 0.14873
618.75000 0.14378
616.99219 0.13803
615.23438 0.13347
613.47656 0.13058
611.71875 0.12830
609.96094 0.12605
608.20313 0.12199
606.44531 0.11499
604.68750 0.10961
602.92969 0.11013
601.17188 0.11356
599.41406 0.11422
