3997.26563 0.08006
3995.50781 0.08014
3993.75000 0.08023
3991.99219 0.08027
3990.23438 0.08027
3988.47656 0.08026
3986.71875 0.08019
3984.96094 0.08011
3983.20313 0.08015
3981.44531 0.08028
3979.68750 0.08038
3977.92969 0.08045
3976.17188 0.08058
3974.41406 0.08075
3972.65625 0.08078
3970.89844 0.08058
3969.14063 0.08038
3967.38281 0.08035
3965.62500 0.08045
3963.86719 0.08065
3962.10938 0.08096
3960.35156 0.08107
3958.59375 0.08083
3956.83594 0.08066
3955.07813 0.08084
3953.32031 0.08095
3951.56250 0.08071
3949.80469 0.08048
3948.04688 0.08054
3946.28906 0.08078
3944.53125 0.08112
3942.77344 0.08138
3941.01563 0.08133
3939.25781 0.08120
3937.50000 0.08125
3935.74219 0.08133
3933.98438 0.08118
3932.22656 0.08102
3930.46875 0.08106
3928.71094 0.08113
3926.95313 0.08100
3925.19531 0.08083
3923.43750 0.08074
3921.67969 0.08068
3919.92188 0.08075
3918.16406 0.08121
3916.40625 0.08194
3914.64844 0.08226
3912.89063 0.08202
3911.13281 0.08178
3909.37500 0.08160
3907.61719 0.08133
3905.85938 0.08127
3904.10156 0.08160
3902.34375 0.08171
3900.58594 0.08155
3898.82813 0.08173
3897.07031 0.08205
3895.31250 0.08200
3893.55469 0.08205
3891.79688 0.08214
3890.03906 0.08172
3888.28125 0.08133
3886.52344 0.08151
3884.76563 0.08201
3883.00781 0.08242
3881.25000 0.08262
3879.49219 0.08254
3877.73438 0.08258
3875.97656 0.08289
3874.21875 0.08285
3872.46094 0.08247
3870.70313 0.08229
3868.94531 0.08236
3867.18750 0.08270
3865.42969 0.08325
3863.67188 0.08292
3861.91406 0.08207
3860.15625 0.08160
3858.39844 0.08168
3856.64063 0.08207
3854.88281 0.08247
3853.12500 0.08283
3851.36719 0.08326
3849.60938 0.08363
3847.85156 0.08360
3846.09375 0.08325
3844.33594 0.08277
3842.57813 0.08230
3840.82031 0.08212
3839.06250 0.08233
3837.30469 0.08252
3835.54688 0.08253
3833.78906 0.08287
3832.03125 0.08338
3830.27344 0.08321
3828.51563 0.08279
3826.75781 0.08251
3825.00000 0.08232
3823.24219 0.08220
3821.48438 0.08228
3819.72656 0.08262
3817.96875 0.08278
3816.21094 0.08263
3814.45313 0.08298
3812.69531 0.08376
3810.93750 0.08377
3809.17969 0.08335
3807.42188 0.08295
3805.66406 0.08249
3803.90625 0.08211
3802.14844 0.08202
3800.39063 0.08212
3798.63281 0.08228
3796.87500 0.08243
3795.11719 0.08240
3793.35938 0.08236
3791.60156 0.08261
3789.84375 0.08283
3788.08594 0.08266
3786.32813 0.08234
3784.57031 0.08228
3782.81250 0.08266
3781.05469 0.08310
3779.29688 0.08312
3777.53906 0.08292
3775.78125 0.08275
3774.02344 0.08272
3772.26563 0.08311
3770.50781 0.08369
3768.75000 0.08380
3766.99219 0.08353
3765.23438 0.08352
3763.47656 0.08435
3761.71875 0.08530
3759.96094 0.08498
3758.20313 0.08425
3756.44531 0.08418
3754.68750 0.08457
3752.92969 0.08464
3751.17188 0.08472
3749.41406 0.08539
3747.65625 0.08652
3745.89844 0.08673
3744.14063 0.08563
3742.38281 0.08438
3740.62500 0.08366
3738.86719 0.08367
3737.10938 0.08408
3735.35156 0.08415
3733.59375 0.08385
3731.83594 0.08357
3730.07813 0.08338
3728.32031 0.08324
3726.56250 0.08323
3724.80469 0.08361
3723.04688 0.08436
3721.28906 0.08454
3719.53125 0.08398
3717.77344 0.08336
3716.01563 0.08305
3714.25781 0.08330
3712.50000 0.08383
3710.74219 0.08401
3708.98438 0.08392
3707.22656 0.08389
3705.46875 0.08407
3703.71094 0.08457
3701.95313 0.08536
3700.19531 0.08570
3698.43750 0.08511
3696.67969 0.08428
3694.92188 0.08368
3693.16406 0.08348
3691.40625 0.08375
3689.64844 0.08441
3687.89063 0.08536
3686.13281 0.08577
3684.37500 0.08543
3682.61719 0.08541
3680.85938 0.08557
3679.10156 0.08494
3677.34375 0.08410
3675.58594 0.08368
3673.82813 0.08367
3672.07031 0.08383
3670.31250 0.08419
3668.55469 0.08483
3666.79688 0.08529
3665.03906 0.08530
3663.28125 0.08559
3661.52344 0.08679
3659.76563 0.08755
3658.00781 0.08670
3656.25000 0.08568
3654.49219 0.08505
3652.73438 0.08474
3650.97656 0.08454
3649.21875 0.08436
3647.46094 0.08439
3645.70313 0.08477
3643.94531 0.08530
3642.18750 0.08586
3640.42969 0.08659
3638.67188 0.08674
3636.91406 0.08626
3635.15625 0.08597
3633.39844 0.08615
3631.64063 0.08668
3629.88281 0.08698
3628.12500 0.08676
3626.36719 0.08662
3624.60938 0.08662
3622.85156 0.08647
3621.09375 0.08636
3619.33594 0.08640
3617.57813 0.08625
3615.82031 0.08613
3614.06250 0.08640
3612.30469 0.08675
3610.54688 0.08669
3608.78906 0.08654
3607.03125 0.08668
3605.27344 0.08673
3603.51563 0.08644
3601.75781 0.08635
3600.00000 0.08694
3598.24219 0.08766
3596.48438 0.08750
3594.72656 0.08691
3592.96875 0.08649
3591.21094 0.08631
3589.45313 0.08629
3587.69531 0.08636
3585.93750 0.08655
3584.17969 0.08686
3582.42188 0.08720
3580.66406 0.08771
3578.90625 0.08860
3577.14844 0.08907
3575.39063 0.08849
3573.63281 0.08765
3571.87500 0.08704
3570.11719 0.08680
3568.35938 0.08699
3566.60156 0.08746
3564.84375 0.08795
3563.08594 0.08809
3561.32813 0.08784
3559.57031 0.08774
3557.81250 0.08810
3556.05469 0.08836
3554.29688 0.08803
3552.53906 0.08741
3550.78125 0.08710
3549.02344 0.08748
3547.26563 0.08823
3545.50781 0.08862
3543.75000 0.08857
3541.99219 0.08866
3540.23438 0.08908
3538.47656 0.08943
3536.71875 0.08945
3534.96094 0.08933
3533.20313 0.08919
3531.44531 0.08897
3529.68750 0.08883
3527.92969 0.08892
3526.17188 0.08906
3524.41406 0.08900
3522.65625 0.08883
3520.89844 0.08886
3519.14063 0.08906
3517.38281 0.08923
3515.62500 0.08933
3513.86719 0.08937
3512.10938 0.08939
3510.35156 0.08948
3508.59375 0.08963
3506.83594 0.08977
3505.07813 0.08993
3503.32031 0.09006
3501.56250 0.09020
3499.80469 0.09039
3498.04688 0.09049
3496.28906 0.09038
3494.53125 0.09040
3492.77344 0.09077
3491.01563 0.09111
3489.25781 0.09117
3487.50000 0.09113
3485.74219 0.09100
3483.98438 0.09080
3482.22656 0.09074
3480.46875 0.09081
3478.71094 0.09090
3476.95313 0.09105
3475.19531 0.09129
3473.43750 0.09149
3471.67969 0.09160
3469.92188 0.09171
3468.16406 0.09189
3466.40625 0.09189
3464.64844 0.09171
3462.89063 0.09165
3461.13281 0.09187
3459.37500 0.09222
3457.61719 0.09236
3455.85938 0.09214
3454.10156 0.09184
3452.34375 0.09178
3450.58594 0.09194
3448.82813 0.09210
3447.07031 0.09205
3445.31250 0.09179
3443.55469 0.09160
3441.79688 0.09179
3440.03906 0.09240
3438.28125 0.09299
3436.52344 0.09310
3434.76563 0.09286
3433.00781 0.09268
3431.25000 0.09268
3429.49219 0.09278
3427.73438 0.09294
3425.97656 0.09312
3424.21875 0.09328
3422.46094 0.09338
3420.70313 0.09341
3418.94531 0.09342
3417.18750 0.09346
3415.42969 0.09359
3413.67188 0.09380
3411.91406 0.09394
3410.15625 0.09389
3408.39844 0.09381
3406.64063 0.09397
3404.88281 0.09426
3403.12500 0.09428
3401.36719 0.09403
3399.60938 0.09392
3397.85156 0.09405
3396.09375 0.09411
3394.33594 0.09397
3392.57813 0.09371
3390.82031 0.09347
3389.06250 0.09356
3387.30469 0.09402
3385.54688 0.09437
3383.78906 0.09439
3382.03125 0.09439
3380.27344 0.09447
3378.51563 0.09451
3376.75781 0.09454
3375.00000 0.09457
3373.24219 0.09462
3371.48438 0.09471
3369.72656 0.09482
3367.96875 0.09487
3366.21094 0.09489
3364.45313 0.09495
3362.69531 0.09506
3360.93750 0.09510
3359.17969 0.09501
3357.42188 0.09498
3355.66406 0.09508
3353.90625 0.09512
3352.14844 0.09504
3350.39063 0.09499
3348.63281 0.09506
3346.87500 0.09519
3345.11719 0.09527
3343.35938 0.09528
3341.60156 0.09522
3339.84375 0.09509
3338.08594 0.09503
3336.32813 0.09512
3334.57031 0.09518
3332.81250 0.09515
3331.05469 0.09515
3329.29688 0.09527
3327.53906 0.09537
3325.78125 0.09541
3324.02344 0.09548
3322.26563 0.09555
3320.50781 0.09557
3318.75000 0.09566
3316.99219 0.09579
3315.23438 0.09586
3313.47656 0.09588
3311.71875 0.09591
3309.96094 0.09591
3308.20313 0.09584
3306.44531 0.09575
3304.68750 0.09561
3302.92969 0.09548
3301.17188 0.09549
3299.41406 0.09561
3297.65625 0.09568
3295.89844 0.09577
3294.14063 0.09598
3292.38281 0.09618
3290.62500 0.09626
3288.86719 0.09633
3287.10938 0.09645
3285.35156 0.09654
3283.59375 0.09662
3281.83594 0.09674
3280.07813 0.09675
3278.32031 0.09662
3276.56250 0.09664
3274.80469 0.09694
3273.04688 0.09722
3271.28906 0.09722
3269.53125 0.09714
3267.77344 0.09726
3266.01563 0.09739
3264.25781 0.09725
3262.50000 0.09697
3260.74219 0.09689
3258.98438 0.09700
3257.22656 0.09714
3255.46875 0.09723
3253.71094 0.09715
3251.95313 0.09699
3250.19531 0.09690
3248.43750 0.09682
3246.67969 0.09669
3244.92188 0.09669
3243.16406 0.09684
3241.40625 0.09696
3239.64844 0.09703
3237.89063 0.09708
3236.13281 0.09719
3234.37500 0.09729
3232.61719 0.09733
3230.85938 0.09743
3229.10156 0.09761
3227.34375 0.09766
3225.58594 0.09758
3223.82813 0.09751
3222.07031 0.09755
3220.31250 0.09763
3218.55469 0.09765
3216.79688 0.09758
3215.03906 0.09745
3213.28125 0.09735
3211.52344 0.09734
3209.76563 0.09745
3208.00781 0.09758
3206.25000 0.09762
3204.49219 0.09765
3202.73438 0.09776
3200.97656 0.09788
3199.21875 0.09788
3197.46094 0.09786
3195.70313 0.09785
3193.94531 0.09771
3192.18750 0.09751
3190.42969 0.09750
3188.67188 0.09768
3186.91406 0.09784
3185.15625 0.09782
3183.39844 0.09767
3181.64063 0.09759
3179.88281 0.09759
3178.12500 0.09761
3176.36719 0.09764
3174.60938 0.09769
3172.85156 0.09766
3171.09375 0.09762
3169.33594 0.09768
3167.57813 0.09777
3165.82031 0.09775
3164.06250 0.09762
3162.30469 0.09753
3160.54688 0.09751
3158.78906 0.09751
3157.03125 0.09758
3155.27344 0.09772
3153.51563 0.09782
3151.75781 0.09786
3150.00000 0.09783
3148.24219 0.09774
3146.48438 0.09767
3144.72656 0.09776
3142.96875 0.09795
3141.21094 0.09796
3139.45313 0.09774
3137.69531 0.09752
3135.93750 0.09742
3134.17969 0.09740
3132.42188 0.09738
3130.66406 0.09735
3128.90625 0.09730
3127.14844 0.09720
3125.39063 0.09706
3123.63281 0.09700
3121.87500 0.09705
3120.11719 0.09712
3118.35938 0.09721
3116.60156 0.09732
3114.84375 0.09734
3113.08594 0.09723
3111.32813 0.09715
3109.57031 0.09717
3107.81250 0.09722
3106.05469 0.09728
3104.29688 0.09742
3102.53906 0.09757
3100.78125 0.09758
3099.02344 0.09742
3097.26563 0.09722
3095.50781 0.09716
3093.75000 0.09733
3091.99219 0.09762
3090.23438 0.09789
3088.47656 0.09803
3086.71875 0.09803
3084.96094 0.09797
3083.20313 0.09787
3081.44531 0.09774
3079.68750 0.09764
3077.92969 0.09765
3076.17188 0.09773
3074.41406 0.09773
3072.65625 0.09761
3070.89844 0.09747
3069.14063 0.09741
3067.38281 0.09745
3065.62500 0.09755
3063.86719 0.09761
3062.10938 0.09758
3060.35156 0.09756
3058.59375 0.09754
3056.83594 0.09746
3055.07813 0.09742
3053.32031 0.09749
3051.56250 0.09760
3049.80469 0.09773
3048.04688 0.09786
3046.28906 0.09789
3044.53125 0.09781
3042.77344 0.09776
3041.01563 0.09778
3039.25781 0.09782
3037.50000 0.09784
3035.74219 0.09786
3033.98438 0.09779
3032.22656 0.09770
3030.46875 0.09774
3028.71094 0.09784
3026.95313 0.09788
3025.19531 0.09799
3023.43750 0.09820
3021.67969 0.09830
3019.92188 0.09821
3018.16406 0.09810
3016.40625 0.09807
3014.64844 0.09804
3012.89063 0.09800
3011.13281 0.09800
3009.37500 0.09808
3007.61719 0.09813
3005.85938 0.09807
3004.10156 0.09803
3002.34375 0.09815
3000.58594 0.09834
2998.82813 0.09846
2997.07031 0.09850
2995.31250 0.09851
2993.55469 0.09849
2991.79688 0.09847
2990.03906 0.09845
2988.28125 0.09848
2986.52344 0.09858
2984.76563 0.09868
2983.00781 0.09872
2981.25000 0.09871
2979.49219 0.09868
2977.73438 0.09865
2975.97656 0.09870
2974.21875 0.09886
2972.46094 0.09899
2970.70313 0.09897
2968.94531 0.09891
2967.18750 0.09896
2965.42969 0.09903
2963.67188 0.09896
2961.91406 0.09878
2960.15625 0.09866
2958.39844 0.09872
2956.64063 0.09888
2954.88281 0.09900
2953.12500 0.09898
2951.36719 0.09887
2949.60938 0.09882
2947.85156 0.09890
2946.09375 0.09896
2944.33594 0.09897
2942.57813 0.09900
2940.82031 0.09919
2939.06250 0.09950
2937.30469 0.09977
2935.54688 0.09994
2933.78906 0.10010
2932.03125 0.10034
2930.27344 0.10062
2928.51563 0.10083
2926.75781 0.10092
2925.00000 0.10088
2923.24219 0.10080
2921.48438 0.10063
2919.72656 0.10031
2917.96875 0.09994
2916.21094 0.09971
2914.45313 0.09958
2912.69531 0.09945
2910.93750 0.09930
2909.17969 0.09915
2907.42188 0.09909
2905.66406 0.09912
2903.90625 0.09911
2902.14844 0.09898
2900.39063 0.09882
2898.63281 0.09872
2896.87500 0.09875
2895.11719 0.09889
2893.35938 0.09900
2891.60156 0.09899
2889.84375 0.09890
2888.08594 0.09890
2886.32813 0.09902
2884.57031 0.09919
2882.81250 0.09926
2881.05469 0.09928
2879.29688 0.09928
2877.53906 0.09927
2875.78125 0.09921
2874.02344 0.09910
2872.26563 0.09904
2870.50781 0.09911
2868.75000 0.09927
2866.99219 0.09943
2865.23438 0.09955
2863.47656 0.09969
2861.71875 0.09991
2859.96094 0.10017
2858.20313 0.10027
2856.44531 0.10010
2854.68750 0.09977
2852.92969 0.09942
2851.17188 0.09917
2849.41406 0.09904
2847.65625 0.09894
2845.89844 0.09879
2844.14063 0.09860
2842.38281 0.09849
2840.62500 0.09848
2838.86719 0.09844
2837.10938 0.09842
2835.35156 0.09855
2833.59375 0.09878
2831.83594 0.09885
2830.07813 0.09878
2828.32031 0.09869
2826.56250 0.09862
2824.80469 0.09859
2823.04688 0.09870
2821.28906 0.09885
2819.53125 0.09888
2817.77344 0.09883
2816.01563 0.09883
2814.25781 0.09889
2812.50000 0.09894
2810.74219 0.09893
2808.98438 0.09891
2807.22656 0.09895
2805.46875 0.09904
2803.71094 0.09910
2801.95313 0.09911
2800.19531 0.09906
2798.43750 0.09898
2796.67969 0.09897
2794.92188 0.09909
2793.16406 0.09920
2791.40625 0.09922
2789.64844 0.09920
2787.89063 0.09922
2786.13281 0.09920
2784.37500 0.09913
2782.61719 0.09912
2780.85938 0.09923
2779.10156 0.09931
2777.34375 0.09928
2775.58594 0.09928
2773.82813 0.09937
2772.07031 0.09942
2770.31250 0.09939
2768.55469 0.09943
2766.79688 0.09954
2765.03906 0.09962
2763.28125 0.09964
2761.52344 0.09971
2759.76563 0.09982
2758.00781 0.09988
2756.25000 0.09985
2754.49219 0.09981
2752.73438 0.09980
2750.97656 0.09982
2749.21875 0.09984
2747.46094 0.09981
2745.70313 0.09976
2743.94531 0.09978
2742.18750 0.09992
2740.42969 0.10007
2738.67188 0.10007
2736.91406 0.09996
2735.15625 0.09990
2733.39844 0.09987
2731.64063 0.09982
2729.88281 0.09977
2728.12500 0.09977
2726.36719 0.09976
2724.60938 0.09969
2722.85156 0.09961
2721.09375 0.09957
2719.33594 0.09955
2717.57813 0.09948
2715.82031 0.09938
2714.06250 0.09930
2712.30469 0.09931
2710.54688 0.09939
2708.78906 0.09950
2707.03125 0.09956
2705.27344 0.09956
2703.51563 0.09949
2701.75781 0.09947
2700.00000 0.09956
2698.24219 0.09968
2696.48438 0.09974
2694.72656 0.09977
2692.96875 0.09983
2691.21094 0.09988
2689.45313 0.09984
2687.69531 0.09976
2685.93750 0.09971
2684.17969 0.09975
2682.42188 0.09983
2680.66406 0.09989
2678.90625 0.09996
2677.14844 0.10003
2675.39063 0.10008
2673.63281 0.10013
2671.87500 0.10019
2670.11719 0.10022
2668.35938 0.10024
2666.60156 0.10029
2664.84375 0.10037
2663.08594 0.10045
2661.32813 0.10053
2659.57031 0.10060
2657.81250 0.10064
2656.05469 0.10064
2654.29688 0.10065
2652.53906 0.10076
2650.78125 0.10091
2649.02344 0.10103
2647.26563 0.10109
2645.50781 0.10109
2643.75000 0.10106
2641.99219 0.10105
2640.23438 0.10106
2638.47656 0.10104
2636.71875 0.10101
2634.96094 0.10105
2633.20313 0.10109
2631.44531 0.10104
2629.68750 0.10094
2627.92969 0.10093
2626.17188 0.10102
2624.41406 0.10110
2622.65625 0.10110
2620.89844 0.10102
2619.14063 0.10096
2617.38281 0.10095
2615.62500 0.10100
2613.86719 0.10109
2612.10938 0.10116
2610.35156 0.10118
2608.59375 0.10128
2606.83594 0.10150
2605.07813 0.10166
2603.32031 0.10165
2601.56250 0.10157
2599.80469 0.10152
2598.04688 0.10157
2596.28906 0.10169
2594.53125 0.10183
2592.77344 0.10192
2591.01563 0.10196
2589.25781 0.10196
2587.50000 0.10203
2585.74219 0.10217
2583.98438 0.10223
2582.22656 0.10215
2580.46875 0.10201
2578.71094 0.10192
2576.95313 0.10191
2575.19531 0.10198
2573.43750 0.10214
2571.67969 0.10233
2569.92188 0.10247
2568.16406 0.10254
2566.40625 0.10254
2564.64844 0.10247
2562.89063 0.10238
2561.13281 0.10233
2559.37500 0.10233
2557.61719 0.10234
2555.85938 0.10237
2554.10156 0.10245
2552.34375 0.10251
2550.58594 0.10255
2548.82813 0.10259
2547.07031 0.10262
2545.31250 0.10267
2543.55469 0.10278
2541.79688 0.10288
2540.03906 0.10292
2538.28125 0.10293
2536.52344 0.10295
2534.76563 0.10294
2533.00781 0.10288
2531.25000 0.10287
2529.49219 0.10293
2527.73438 0.10301
2525.97656 0.10310
2524.21875 0.10321
2522.46094 0.10328
2520.70313 0.10327
2518.94531 0.10328
2517.18750 0.10336
2515.42969 0.10346
2513.67188 0.10350
2511.91406 0.10353
2510.15625 0.10362
2508.39844 0.10374
2506.64063 0.10379
2504.88281 0.10373
2503.12500 0.10362
2501.36719 0.10358
2499.60938 0.10363
2497.85156 0.10371
2496.09375 0.10378
2494.33594 0.10383
2492.57813 0.10384
2490.82031 0.10382
2489.06250 0.10380
2487.30469 0.10379
2485.54688 0.10383
2483.78906 0.10394
2482.03125 0.10402
2480.27344 0.10407
2478.51563 0.10409
2476.75781 0.10410
2475.00000 0.10409
2473.24219 0.10409
2471.48438 0.10410
2469.72656 0.10410
2467.96875 0.10406
2466.21094 0.10400
2464.45313 0.10401
2462.69531 0.10410
2460.93750 0.10415
2459.17969 0.10414
2457.42188 0.10416
2455.66406 0.10426
2453.90625 0.10437
2452.14844 0.10443
2450.39063 0.10449
2448.63281 0.10460
2446.87500 0.10468
2445.11719 0.10464
2443.35938 0.10455
2441.60156 0.10452
2439.84375 0.10452
2438.08594 0.10455
2436.32813 0.10462
2434.57031 0.10468
2432.81250 0.10465
2431.05469 0.10457
2429.29688 0.10459
2427.53906 0.10475
2425.78125 0.10493
2424.02344 0.10504
2422.26563 0.10507
2420.50781 0.10501
2418.75000 0.10493
2416.99219 0.10492
2415.23438 0.10501
2413.47656 0.10508
2411.71875 0.10507
2409.96094 0.10505
2408.20313 0.10504
2406.44531 0.10506
2404.68750 0.10508
2402.92969 0.10509
2401.17188 0.10507
2399.41406 0.10501
2397.65625 0.10492
2395.89844 0.10493
2394.14063 0.10514
2392.38281 0.10553
2390.62500 0.10595
2388.86719 0.10633
2387.10938 0.10673
2385.35156 0.10722
2383.59375 0.10781
2381.83594 0.10844
2380.07813 0.10899
2378.32031 0.10937
2376.56250 0.10985
2374.80469 0.11055
2373.04688 0.11110
2371.28906 0.11118
2369.53125 0.11083
2367.77344 0.11046
2366.01563 0.11069
2364.25781 0.11130
2362.50000 0.11161
2360.74219 0.11147
2358.98438 0.11101
2357.22656 0.11049
2355.46875 0.11020
2353.71094 0.11018
2351.95313 0.11023
2350.19531 0.11038
2348.43750 0.11082
2346.67969 0.11120
2344.92188 0.11117
2343.16406 0.11091
2341.40625 0.11073
2339.64844 0.11082
2337.89063 0.11120
2336.13281 0.11154
2334.37500 0.11155
2332.61719 0.11126
2330.85938 0.11075
2329.10156 0.11032
2327.34375 0.11015
2325.58594 0.11000
2323.82813 0.10976
2322.07031 0.10966
2320.31250 0.10987
2318.55469 0.11014
2316.79688 0.11023
2315.03906 0.11013
2313.28125 0.10989
2311.52344 0.10965
2309.76563 0.10958
2308.00781 0.10960
2306.25000 0.10949
2304.49219 0.10928
2302.73438 0.10913
2300.97656 0.10912
2299.21875 0.10915
2297.46094 0.10912
2295.70313 0.10901
2293.94531 0.10888
2292.18750 0.10876
2290.42969 0.10868
2288.67188 0.10866
2286.91406 0.10865
2285.15625 0.10857
2283.39844 0.10841
2281.64063 0.10830
2279.88281 0.10834
2278.12500 0.10841
2276.36719 0.10839
2274.60938 0.10830
2272.85156 0.10820
2271.09375 0.10811
2269.33594 0.10798
2267.57813 0.10785
2265.82031 0.10778
2264.06250 0.10779
2262.30469 0.10779
2260.54688 0.10774
2258.78906 0.10772
2257.03125 0.10778
2255.27344 0.10789
2253.51563 0.10801
2251.75781 0.10809
2250.00000 0.10814
2248.24219 0.10817
2246.48438 0.10818
2244.72656 0.10819
2242.96875 0.10826
2241.21094 0.10835
2239.45313 0.10834
2237.69531 0.10826
2235.93750 0.10824
2234.17969 0.10835
2232.42188 0.10847
2230.66406 0.10848
2228.90625 0.10840
2227.14844 0.10825
2225.39063 0.10813
2223.63281 0.10815
2221.87500 0.10828
2220.11719 0.10836
2218.35938 0.10833
2216.60156 0.10825
2214.84375 0.10823
2213.08594 0.10827
2211.32813 0.10835
2209.57031 0.10837
2207.81250 0.10834
2206.05469 0.10835
2204.29688 0.10841
2202.53906 0.10844
2200.78125 0.10845
2199.02344 0.10850
2197.26563 0.10854
2195.50781 0.10852
2193.75000 0.10851
2191.99219 0.10851
2190.23438 0.10847
2188.47656 0.10844
2186.71875 0.10853
2184.96094 0.10866
2183.20313 0.10875
2181.44531 0.10883
2179.68750 0.10889
2177.92969 0.10891
2176.17188 0.10889
2174.41406 0.10886
2172.65625 0.10888
2170.89844 0.10902
2169.14063 0.10921
2167.38281 0.10938
2165.62500 0.10950
2163.86719 0.10955
2162.10938 0.10952
2160.35156 0.10945
2158.59375 0.10935
2156.83594 0.10931
2155.07813 0.10933
2153.32031 0.10934
2151.56250 0.10933
2149.80469 0.10933
2148.04688 0.10935
2146.28906 0.10942
2144.53125 0.10961
2142.77344 0.10985
2141.01563 0.11003
2139.25781 0.11006
2137.50000 0.11002
2135.74219 0.10999
2133.98438 0.11004
2132.22656 0.11017
2130.46875 0.11031
2128.71094 0.11038
2126.95313 0.11034
2125.19531 0.11032
2123.43750 0.11041
2121.67969 0.11058
2119.92188 0.11068
2118.16406 0.11067
2116.40625 0.11061
2114.64844 0.11063
2112.89063 0.11078
2111.13281 0.11097
2109.37500 0.11109
2107.61719 0.11118
2105.85938 0.11133
2104.10156 0.11152
2102.34375 0.11168
2100.58594 0.11175
2098.82813 0.11174
2097.07031 0.11171
2095.31250 0.11171
2093.55469 0.11167
2091.79688 0.11162
2090.03906 0.11166
2088.28125 0.11174
2086.52344 0.11174
2084.76563 0.11170
2083.00781 0.11163
2081.25000 0.11158
2079.49219 0.11160
2077.73438 0.11168
2075.97656 0.11173
2074.21875 0.11176
2072.46094 0.11181
2070.70313 0.11183
2068.94531 0.11177
2067.18750 0.11168
2065.42969 0.11161
2063.67188 0.11158
2061.91406 0.11159
2060.15625 0.11165
2058.39844 0.11179
2056.64063 0.11192
2054.88281 0.11193
2053.12500 0.11184
2051.36719 0.11173
2049.60938 0.11168
2047.85156 0.11171
2046.09375 0.11172
2044.33594 0.11166
2042.57813 0.11150
2040.82031 0.11127
2039.06250 0.11107
2037.30469 0.11097
2035.54688 0.11095
2033.78906 0.11099
2032.03125 0.11109
2030.27344 0.11124
2028.51563 0.11137
2026.75781 0.11135
2025.00000 0.11122
2023.24219 0.11109
2021.48438 0.11102
2019.72656 0.11099
2017.96875 0.11102
2016.21094 0.11106
2014.45313 0.11104
2012.69531 0.11102
2010.93750 0.11105
2009.17969 0.11112
2007.42188 0.11124
2005.66406 0.11138
2003.90625 0.11147
2002.14844 0.11149
2000.39063 0.11155
1998.63281 0.11169
1996.87500 0.11182
1995.11719 0.11185
1993.35938 0.11187
1991.60156 0.11194
1989.84375 0.11203
1988.08594 0.11206
1986.32813 0.11207
1984.57031 0.11213
1982.81250 0.11226
1981.05469 0.11247
1979.29688 0.11267
1977.53906 0.11273
1975.78125 0.11276
1974.02344 0.11283
1972.26563 0.11281
1970.50781 0.11268
1968.75000 0.11260
1966.99219 0.11254
1965.23438 0.11242
1963.47656 0.11230
1961.71875 0.11230
1959.96094 0.11238
1958.20313 0.11242
1956.44531 0.11244
1954.68750 0.11253
1952.92969 0.11273
1951.17188 0.11304
1949.41406 0.11326
1947.65625 0.11320
1945.89844 0.11295
1944.14063 0.11277
1942.38281 0.11269
1940.62500 0.11264
1938.86719 0.11255
1937.10938 0.11244
1935.35156 0.11242
1933.59375 0.11251
1931.83594 0.11264
1930.07813 0.11277
1928.32031 0.11292
1926.56250 0.11308
1924.80469 0.11325
1923.04688 0.11335
1921.28906 0.11334
1919.53125 0.11338
1917.77344 0.11356
1916.01563 0.11381
1914.25781 0.11397
1912.50000 0.11397
1910.74219 0.11390
1908.98438 0.11397
1907.22656 0.11415
1905.46875 0.11431
1903.71094 0.11447
1901.95313 0.11467
1900.19531 0.11482
1898.43750 0.11487
1896.67969 0.11495
1894.92188 0.11502
1893.16406 0.11494
1891.40625 0.11481
1889.64844 0.11471
1887.89063 0.11459
1886.13281 0.11446
1884.37500 0.11439
1882.61719 0.11433
1880.85938 0.11422
1879.10156 0.11416
1877.34375 0.11433
1875.58594 0.11474
1873.82813 0.11496
1872.07031 0.11464
1870.31250 0.11416
1868.55469 0.11387
1866.79688 0.11384
1865.03906 0.11393
1863.28125 0.11399
1861.52344 0.11395
1859.76563 0.11388
1858.00781 0.11388
1856.25000 0.11400
1854.49219 0.11417
1852.73438 0.11436
1850.97656 0.11456
1849.21875 0.11460
1847.46094 0.11428
1845.70313 0.11388
1843.94531 0.11366
1842.18750 0.11361
1840.42969 0.11364
1838.67188 0.11379
1836.91406 0.11410
1835.15625 0.11437
1833.39844 0.11438
1831.64063 0.11431
1829.88281 0.11428
1828.12500 0.11415
1826.36719 0.11391
1824.60938 0.11370
1822.85156 0.11357
1821.09375 0.11354
1819.33594 0.11369
1817.57813 0.11398
1815.82031 0.11420
1814.06250 0.11417
1812.30469 0.11404
1810.54688 0.11402
1808.78906 0.11416
1807.03125 0.11438
1805.27344 0.11453
1803.51563 0.11455
1801.75781 0.11457
1800.00000 0.11476
1798.24219 0.11510
1796.48438 0.11518
1794.72656 0.11483
1792.96875 0.11450
1791.21094 0.11446
1789.45313 0.11466
1787.69531 0.11491
1785.93750 0.11517
1784.17969 0.11530
1782.42188 0.11530
1780.66406 0.11536
1778.90625 0.11564
1777.14844 0.11587
1775.39063 0.11565
1773.63281 0.11522
1771.87500 0.11486
1770.11719 0.11466
1768.35938 0.11463
1766.60156 0.11458
1764.84375 0.11437
1763.08594 0.11416
1761.32813 0.11404
1759.57031 0.11403
1757.81250 0.11428
1756.05469 0.11493
1754.29688 0.11546
1752.53906 0.11540
1750.78125 0.11511
1749.02344 0.11484
1747.26563 0.11464
1745.50781 0.11455
1743.75000 0.11454
1741.99219 0.11461
1740.23438 0.11502
1738.47656 0.11548
1736.71875 0.11520
1734.96094 0.11463
1733.20313 0.11421
1731.44531 0.11408
1729.68750 0.11421
1727.92969 0.11441
1726.17188 0.11455
1724.41406 0.11486
1722.65625 0.11545
1720.89844 0.11557
1719.14063 0.11504
1717.38281 0.11450
1715.62500 0.11420
1713.86719 0.11423
1712.10938 0.11462
1710.35156 0.11511
1708.59375 0.11536
1706.83594 0.11573
1705.07813 0.11665
1703.32031 0.11732
1701.56250 0.11708
1699.80469 0.11645
1698.04688 0.11603
1696.28906 0.11599
1694.53125 0.11618
1692.77344 0.11636
1691.01563 0.11670
1689.25781 0.11742
1687.50000 0.11758
1685.74219 0.11721
1683.98438 0.11691
1682.22656 0.11685
1680.46875 0.11697
1678.71094 0.11708
1676.95313 0.11726
1675.19531 0.11761
1673.43750 0.11761
1671.67969 0.11724
1669.92188 0.11710
1668.16406 0.11730
1666.40625 0.11737
1664.64844 0.11722
1662.89063 0.11720
1661.13281 0.11742
1659.37500 0.11794
1657.61719 0.11853
1655.85938 0.11860
1654.10156 0.11867
1652.34375 0.11884
1650.58594 0.11852
1648.82813 0.11789
1647.07031 0.11752
1645.31250 0.11750
1643.55469 0.11779
1641.79688 0.11823
1640.03906 0.11816
1638.28125 0.11755
1636.52344 0.11706
1634.76563 0.11688
1633.00781 0.11695
1631.25000 0.11707
1629.49219 0.11713
1627.73438 0.11702
1625.97656 0.11673
1624.21875 0.11665
1622.46094 0.11701
1620.70313 0.11736
1618.94531 0.11733
1617.18750 0.11743
1615.42969 0.11792
1613.67188 0.11864
1611.91406 0.11924
1610.15625 0.11967
1608.39844 0.12000
1606.64063 0.12023
1604.88281 0.12036
1603.12500 0.12046
1601.36719 0.12062
1599.60938 0.12084
1597.85156 0.12100
1596.09375 0.12107
1594.33594 0.12114
1592.57813 0.12124
1590.82031 0.12138
1589.06250 0.12158
1587.30469 0.12184
1585.54688 0.12216
1583.78906 0.12258
1582.03125 0.12306
1580.27344 0.12300
1578.51563 0.12235
1576.75781 0.12184
1575.00000 0.12171
1573.24219 0.12167
1571.48438 0.12150
1569.72656 0.12132
1567.96875 0.12115
1566.21094 0.12116
1564.45313 0.12193
1562.69531 0.12284
1560.93750 0.12250
1559.17969 0.12199
1557.42188 0.12171
1555.66406 0.12168
1553.90625 0.12185
1552.14844 0.12220
1550.39063 0.12283
1548.63281 0.12376
1546.87500 0.12471
1545.11719 0.12494
1543.35938 0.12395
1541.60156 0.12299
1539.84375 0.12248
1538.08594 0.12217
1536.32813 0.12168
1534.57031 0.12129
1532.81250 0.12135
1531.05469 0.12171
1529.29688 0.12201
1527.53906 0.12228
1525.78125 0.12253
1524.02344 0.12248
1522.26563 0.12221
1520.50781 0.12170
1518.75000 0.12110
1516.99219 0.12081
1515.23438 0.12104
1513.47656 0.12176
1511.71875 0.12218
1509.96094 0.12130
1508.20313 0.12048
1506.44531 0.12012
1504.68750 0.12012
1502.92969 0.12039
1501.17188 0.12046
1499.41406 0.12005
1497.65625 0.11973
1495.89844 0.11993
1494.14063 0.12038
1492.38281 0.12014
1490.62500 0.11946
1488.86719 0.11897
1487.10938 0.11875
1485.35156 0.11875
1483.59375 0.11896
1481.83594 0.11941
1480.07813 0.12016
1478.32031 0.12110
1476.56250 0.12162
1474.80469 0.12141
1473.04688 0.12117
1471.28906 0.12130
1469.53125 0.12170
1467.77344 0.12197
1466.01563 0.12220
1464.25781 0.12288
1462.50000 0.12433
1460.74219 0.12512
1458.98438 0.12450
1457.22656 0.12384
1455.46875 0.12360
1453.71094 0.12370
1451.95313 0.12382
1450.19531 0.12371
1448.43750 0.12350
1446.67969 0.12332
1444.92188 0.12324
1443.16406 0.12343
1441.40625 0.12399
1439.64844 0.12437
1437.89063 0.12428
1436.13281 0.12414
1434.37500 0.12412
1432.61719 0.12416
1430.85938 0.12423
1429.10156 0.12433
1427.34375 0.12444
1425.58594 0.12466
1423.82813 0.12506
1422.07031 0.12509
1420.31250 0.12462
1418.55469 0.12420
1416.79688 0.12401
1415.03906 0.12395
1413.28125 0.12389
1411.52344 0.12374
1409.76563 0.12343
1408.00781 0.12302
1406.25000 0.12275
1404.49219 0.12276
1402.73438 0.12291
1400.97656 0.12285
1399.21875 0.12255
1397.46094 0.12215
1395.70313 0.12181
1393.94531 0.12167
1392.18750 0.12170
1390.42969 0.12156
1388.67188 0.12119
1386.91406 0.12088
1385.15625 0.12080
1383.39844 0.12089
1381.64063 0.12108
1379.88281 0.12129
1378.12500 0.12130
1376.36719 0.12104
1374.60938 0.12074
1372.85156 0.12050
1371.09375 0.12033
1369.33594 0.12034
1367.57813 0.12052
1365.82031 0.12054
1364.06250 0.12036
1362.30469 0.12020
1360.54688 0.12011
1358.78906 0.12003
1357.03125 0.11997
1355.27344 0.11998
1353.51563 0.12006
1351.75781 0.12014
1350.00000 0.12017
1348.24219 0.12022
1346.48438 0.12037
1344.72656 0.12057
1342.96875 0.12060
1341.21094 0.12042
1339.45313 0.12027
1337.69531 0.12024
1335.93750 0.12022
1334.17969 0.12015
1332.42188 0.12010
1330.66406 0.12009
1328.90625 0.12001
1327.14844 0.11980
1325.39063 0.11955
1323.63281 0.11930
1321.87500 0.11897
1320.11719 0.11861
1318.35938 0.11844
1316.60156 0.11852
1314.84375 0.11875
1313.08594 0.11901
1311.32813 0.11921
1309.57031 0.11924
1307.81250 0.11917
1306.05469 0.11909
1304.29688 0.11899
1302.53906 0.11887
1300.78125 0.11876
1299.02344 0.11863
1297.26563 0.11845
1295.50781 0.11829
1293.75000 0.11820
1291.99219 0.11810
1290.23438 0.11791
1288.47656 0.11767
1286.71875 0.11750
1284.96094 0.11743
1283.20313 0.11743
1281.44531 0.11749
1279.68750 0.11754
1277.92969 0.11761
1276.17188 0.11779
1274.41406 0.11805
1272.65625 0.11827
1270.89844 0.11841
1269.14063 0.11851
1267.38281 0.11856
1265.62500 0.11856
1263.86719 0.11850
1262.10938 0.11834
1260.35156 0.11802
1258.59375 0.11761
1256.83594 0.11728
1255.07813 0.11711
1253.32031 0.11701
1251.56250 0.11690
1249.80469 0.11677
1248.04688 0.11664
1246.28906 0.11651
1244.53125 0.11638
1242.77344 0.11622
1241.01563 0.11608
1239.25781 0.11601
1237.50000 0.11598
1235.74219 0.11589
1233.98438 0.11574
1232.22656 0.11557
1230.46875 0.11542
1228.71094 0.11528
1226.95313 0.11515
1225.19531 0.11502
1223.43750 0.11488
1221.67969 0.11476
1219.92188 0.11467
1218.16406 0.11465
1216.40625 0.11474
1214.64844 0.11494
1212.89063 0.11512
1211.13281 0.11519
1209.37500 0.11514
1207.61719 0.11503
1205.85938 0.11485
1204.10156 0.11465
1202.34375 0.11450
1200.58594 0.11445
1198.82813 0.11445
1197.07031 0.11451
1195.31250 0.11461
1193.55469 0.11465
1191.79688 0.11458
1190.03906 0.11439
1188.28125 0.11416
1186.52344 0.11400
1184.76563 0.11393
1183.00781 0.11383
1181.25000 0.11364
1179.49219 0.11339
1177.73438 0.11317
1175.97656 0.11304
1174.21875 0.11298
1172.46094 0.11297
1170.70313 0.11303
1168.94531 0.11310
1167.18750 0.11310
1165.42969 0.11298
1163.67188 0.11285
1161.91406 0.11285
1160.15625 0.11294
1158.39844 0.11298
1156.64063 0.11289
1154.88281 0.11277
1153.12500 0.11270
1151.36719 0.11261
1149.60938 0.11249
1147.85156 0.11242
1146.09375 0.11246
1144.33594 0.11255
1142.57813 0.11260
1140.82031 0.11265
1139.06250 0.11277
1137.30469 0.11293
1135.54688 0.11311
1133.78906 0.11329
1132.03125 0.11342
1130.27344 0.11345
1128.51563 0.11347
1126.75781 0.11355
1125.00000 0.11365
1123.24219 0.11380
1121.48438 0.11405
1119.72656 0.11428
1117.96875 0.11437
1116.21094 0.11445
1114.45313 0.11458
1112.69531 0.11469
1110.93750 0.11478
1109.17969 0.11497
1107.42188 0.11519
1105.66406 0.11535
1103.90625 0.11542
1102.14844 0.11541
1100.39063 0.11538
1098.63281 0.11531
1096.87500 0.11519
1095.11719 0.11506
1093.35938 0.11499
1091.60156 0.11501
1089.84375 0.11501
1088.08594 0.11498
1086.32813 0.11504
1084.57031 0.11530
1082.81250 0.11562
1081.05469 0.11593
1079.29688 0.11632
1077.53906 0.11683
1075.78125 0.11740
1074.02344 0.11791
1072.26563 0.11842
1070.50781 0.11896
1068.75000 0.11944
1066.99219 0.11975
1065.23438 0.12001
1063.47656 0.12036
1061.71875 0.12073
1059.96094 0.12094
1058.20313 0.12099
1056.44531 0.12108
1054.68750 0.12122
1052.92969 0.12133
1051.17188 0.12142
1049.41406 0.12147
1047.65625 0.12143
1045.89844 0.12135
1044.14063 0.12131
1042.38281 0.12126
1040.62500 0.12105
1038.86719 0.12067
1037.10938 0.12021
1035.35156 0.11973
1033.59375 0.11924
1031.83594 0.11872
1030.07813 0.11807
1028.32031 0.11727
1026.56250 0.11640
1024.80469 0.11556
1023.04688 0.11478
1021.28906 0.11405
1019.53125 0.11334
1017.77344 0.11264
1016.01563 0.11196
1014.25781 0.11135
1012.50000 0.11079
1010.74219 0.11016
1008.98438 0.10938
1007.22656 0.10855
1005.46875 0.10777
1003.71094 0.10706
1001.95313 0.10640
1000.19531 0.10576
998.43750 0.10518
996.67969 0.10462
994.92188 0.10403
993.16406 0.10341
991.40625 0.10287
989.64844 0.10241
987.89063 0.10192
986.13281 0.10142
984.37500 0.10105
982.61719 0.10077
980.85938 0.10040
979.10156 0.09994
977.34375 0.09948
975.58594 0.09905
973.82813 0.09868
972.07031 0.09846
970.31250 0.09839
968.55469 0.09830
966.79688 0.09812
965.03906 0.09790
963.28125 0.09766
961.52344 0.09741
959.76563 0.09719
958.00781 0.09707
956.25000 0.09700
954.49219 0.09691
952.73438 0.09679
950.97656 0.09669
949.21875 0.09656
947.46094 0.09640
945.70313 0.09617
943.94531 0.09591
942.18750 0.09567
940.42969 0.09541
938.67188 0.09510
936.91406 0.09481
935.15625 0.09457
933.39844 0.09432
931.64063 0.09397
929.88281 0.09359
928.12500 0.09332
926.36719 0.09315
924.60938 0.09303
922.85156 0.09294
921.09375 0.09277
919.33594 0.09248
917.57813 0.09211
915.82031 0.09174
914.06250 0.09141
912.30469 0.09108
910.54688 0.09064
908.78906 0.09004
907.03125 0.08936
905.27344 0.08862
903.51563 0.08781
901.75781 0.08702
900.00000 0.08630
898.24219 0.08561
896.48438 0.08499
894.72656 0.08449
892.96875 0.08408
891.21094 0.08377
889.45313 0.08344
887.69531 0.08291
885.93750 0.08220
884.17969 0.08156
882.42188 0.08117
880.66406 0.08081
878.90625 0.08030
877.14844 0.07959
875.39063 0.07872
873.63281 0.07780
871.87500 0.07696
870.11719 0.07625
868.35938 0.07555
866.60156 0.07475
864.84375 0.07397
863.08594 0.07335
861.32813 0.07271
859.57031 0.07191
857.81250 0.07098
856.05469 0.06992
854.29688 0.06876
852.53906 0.06758
850.78125 0.06631
849.02344 0.06486
847.26563 0.06342
845.50781 0.06214
843.75000 0.06086
841.99219 0.05952
840.23438 0.05827
838.47656 0.05719
836.71875 0.05624
834.96094 0.05534
833.20313 0.05431
831.44531 0.05307
829.68750 0.05173
827.92969 0.05059
826.17188 0.04981
824.41406 0.04922
822.65625 0.04860
820.89844 0.04787
819.14063 0.04690
817.38281 0.04574
815.62500 0.04471
813.86719 0.04405
812.10938 0.04355
810.35156 0.04290
808.59375 0.04208
806.83594 0.04127
805.07813 0.04054
803.32031 0.03979
801.56250 0.03907
799.80469 0.03847
798.04688 0.03798
796.28906 0.03743
794.53125 0.03679
792.77344 0.03612
791.01563 0.03538
789.25781 0.03459
787.50000 0.03385
785.74219 0.03322
783.98438 0.03267
782.22656 0.03212
780.46875 0.03158
778.71094 0.03102
776.95313 0.03031
775.19531 0.02951
773.43750 0.02881
771.67969 0.02819
769.92188 0.02753
768.16406 0.02679
766.40625 0.02592
764.64844 0.02511
762.89063 0.02474
761.13281 0.02477
759.37500 0.02474
757.61719 0.02445
755.85938 0.02411
754.10156 0.02397
752.34375 0.02399
750.58594 0.02400
748.82813 0.02384
747.07031 0.02350
745.31250 0.02310
743.55469 0.02279
741.79688 0.02268
740.03906 0.02276
738.28125 0.02290
736.52344 0.02288
734.76563 0.02261
733.00781 0.02235
731.25000 0.02238
729.49219 0.02259
727.73438 0.02269
725.97656 0.02263
724.21875 0.02275
722.46094 0.02309
720.70313 0.02321
718.94531 0.02289
717.18750 0.02247
715.42969 0.02244
713.67188 0.02300
711.91406 0.02389
710.15625 0.02465
708.39844 0.02508
706.64063 0.02534
704.88281 0.02578
703.12500 0.02630
701.36719 0.02647
699.60938 0.02623
697.85156 0.02588
696.09375 0.02542
694.33594 0.02485
692.57813 0.02465
690.82031 0.02524
689.06250 0.02650
687.30469 0.02770
685.54688 0.02779
683.78906 0.02680
682.03125 0.02603
680.27344 0.02569
678.51563 0.02489
676.75781 0.02408
675.00000 0.02453
673.24219 0.02587
671.48438 0.02674
669.72656 0.02714
667.96875 0.02864
666.21094 0.03039
664.45313 0.03077
662.69531 0.02968
660.93750 0.02922
659.17969 0.03030
657.42188 0.03154
655.66406 0.03253
653.90625 0.03397
652.14844 0.03627
650.39063 0.03994
648.63281 0.04454
646.87500 0.04823
645.11719 0.05019
643.35938 0.05127
641.60156 0.05227
639.84375 0.05378
638.08594 0.05674
636.32813 0.06123
634.57031 0.06613
632.81250 0.07032
631.05469 0.07343
629.29688 0.07642
627.53906 0.08074
625.78125 0.08624
624.02344 0.09102
622.26563 0.09290
620.50781 0.09225
618.75000 0.09185
616.99219 0.09216
615.23438 0.09292
613.47656 0.09655
611.71875 0.10299
609.96094 0.10903
608.20313 0.11446
606.44531 0.12090
604.68750 0.12757
602.92969 0.13204
601.17188 0.13357
599.41406 0.13554
