3997.26563 0.02514
3995.50781 0.02515
3993.75000 0.02513
3991.99219 0.02511
3990.23438 0.02520
3988.47656 0.02538
3986.71875 0.02545
3984.96094 0.02537
3983.20313 0.02525
3981.44531 0.02511
3979.68750 0.02496
3977.92969 0.02488
3976.17188 0.02491
3974.41406 0.02500
3972.65625 0.02506
3970.89844 0.02504
3969.14063 0.02503
3967.38281 0.02508
3965.62500 0.02525
3963.86719 0.02562
3962.10938 0.02604
3960.35156 0.02605
3958.59375 0.02572
3956.83594 0.02559
3955.07813 0.02576
3953.32031 0.02568
3951.56250 0.02526
3949.80469 0.02499
3948.04688 0.02514
3946.28906 0.02559
3944.53125 0.02598
3942.77344 0.02589
3941.01563 0.02541
3939.25781 0.02527
3937.50000 0.02573
3935.74219 0.02606
3933.98438 0.02575
3932.22656 0.02543
3930.46875 0.02556
3928.71094 0.02563
3926.95313 0.02528
3925.19531 0.02491
3923.43750 0.02478
3921.67969 0.02474
3919.92188 0.02494
3918.16406 0.02588
3916.40625 0.02736
3914.64844 0.02807
3912.89063 0.02768
3911.13281 0.02692
3909.37500 0.02611
3907.61719 0.02545
3905.85938 0.02545
3904.10156 0.02615
3902.34375 0.02637
3900.58594 0.02597
3898.82813 0.02598
3897.07031 0.02632
3895.31250 0.02622
3893.55469 0.02619
3891.79688 0.02622
3890.03906 0.02565
3888.28125 0.02517
3886.52344 0.02552
3884.76563 0.02642
3883.00781 0.02736
3881.25000 0.02768
3879.49219 0.02715
3877.73438 0.02683
3875.97656 0.02692
3874.21875 0.02651
3872.46094 0.02587
3870.70313 0.02576
3868.94531 0.02624
3867.18750 0.02743
3865.42969 0.02905
3863.67188 0.02850
3861.91406 0.02666
3860.15625 0.02527
3858.39844 0.02472
3856.64063 0.02498
3854.88281 0.02575
3853.12500 0.02677
3851.36719 0.02781
3849.60938 0.02820
3847.85156 0.02759
3846.09375 0.02661
3844.33594 0.02568
3842.57813 0.02496
3840.82031 0.02470
3839.06250 0.02496
3837.30469 0.02523
3835.54688 0.02545
3833.78906 0.02653
3832.03125 0.02762
3830.27344 0.02712
3828.51563 0.02621
3826.75781 0.02558
3825.00000 0.02491
3823.24219 0.02434
3821.48438 0.02435
3819.72656 0.02525
3817.96875 0.02621
3816.21094 0.02647
3814.45313 0.02692
3812.69531 0.02732
3810.93750 0.02660
3809.17969 0.02565
3807.42188 0.02493
3805.66406 0.02419
3803.90625 0.02366
3802.14844 0.02355
3800.39063 0.02368
3798.63281 0.02392
3796.87500 0.02416
3795.11719 0.02410
3793.35938 0.02397
3791.60156 0.02410
3789.84375 0.02406
3788.08594 0.02353
3786.32813 0.02308
3784.57031 0.02315
3782.81250 0.02380
3781.05469 0.02447
3779.29688 0.02452
3777.53906 0.02428
3775.78125 0.02404
3774.02344 0.02392
3772.26563 0.02435
3770.50781 0.02510
3768.75000 0.02527
3766.99219 0.02506
3765.23438 0.02541
3763.47656 0.02697
3761.71875 0.02818
3759.96094 0.02724
3758.20313 0.02596
3756.44531 0.02586
3754.68750 0.02618
3752.92969 0.02579
3751.17188 0.02541
3749.41406 0.02593
3747.65625 0.02728
3745.89844 0.02774
3744.14063 0.02638
3742.38281 0.02462
3740.62500 0.02355
3738.86719 0.02350
3737.10938 0.02406
3735.35156 0.02434
3733.59375 0.02418
3731.83594 0.02398
3730.07813 0.02379
3728.32031 0.02353
3726.56250 0.02344
3724.80469 0.02404
3723.04688 0.02520
3721.28906 0.02528
3719.53125 0.02433
3717.77344 0.02347
3716.01563 0.02310
3714.25781 0.02338
3712.50000 0.02382
3710.74219 0.02379
3708.98438 0.02361
3707.22656 0.02361
3705.46875 0.02380
3703.71094 0.02447
3701.95313 0.02587
3700.19531 0.02665
3698.43750 0.02564
3696.67969 0.02415
3694.92188 0.02318
3693.16406 0.02308
3691.40625 0.02372
3689.64844 0.02477
3687.89063 0.02620
3686.13281 0.02680
3684.37500 0.02612
3682.61719 0.02582
3680.85938 0.02572
3679.10156 0.02458
3677.34375 0.02323
3675.58594 0.02247
3673.82813 0.02229
3672.07031 0.02247
3670.31250 0.02300
3668.55469 0.02394
3666.79688 0.02459
3665.03906 0.02457
3663.28125 0.02500
3661.52344 0.02685
3659.76563 0.02798
3658.00781 0.02649
3656.25000 0.02481
3654.49219 0.02387
3652.73438 0.02346
3650.97656 0.02321
3649.21875 0.02297
3647.46094 0.02289
3645.70313 0.02309
3643.94531 0.02341
3642.18750 0.02405
3640.42969 0.02530
3638.67188 0.02555
3636.91406 0.02451
3635.15625 0.02367
3633.39844 0.02371
3631.64063 0.02470
3629.88281 0.02576
3628.12500 0.02596
3626.36719 0.02587
3624.60938 0.02575
3622.85156 0.02530
3621.09375 0.02493
3619.33594 0.02487
3617.57813 0.02460
3615.82031 0.02431
3614.06250 0.02450
3612.30469 0.02495
3610.54688 0.02498
3608.78906 0.02479
3607.03125 0.02485
3605.27344 0.02489
3603.51563 0.02457
3601.75781 0.02440
3600.00000 0.02509
3598.24219 0.02619
3596.48438 0.02621
3594.72656 0.02552
3592.96875 0.02504
3591.21094 0.02493
3589.45313 0.02493
3587.69531 0.02496
3585.93750 0.02503
3584.17969 0.02515
3582.42188 0.02552
3580.66406 0.02654
3578.90625 0.02818
3577.14844 0.02888
3575.39063 0.02810
3573.63281 0.02733
3571.87500 0.02707
3570.11719 0.02701
3568.35938 0.02693
3566.60156 0.02701
3564.84375 0.02747
3563.08594 0.02800
3561.32813 0.02815
3559.57031 0.02827
3557.81250 0.02866
3556.05469 0.02882
3554.29688 0.02855
3552.53906 0.02835
3550.78125 0.02852
3549.02344 0.02897
3547.26563 0.02942
3545.50781 0.02968
3543.75000 0.02993
3541.99219 0.03047
3540.23438 0.03117
3538.47656 0.03174
3536.71875 0.03215
3534.96094 0.03242
3533.20313 0.03240
3531.44531 0.03217
3529.68750 0.03209
3527.92969 0.03232
3526.17188 0.03275
3524.41406 0.03323
3522.65625 0.03370
3520.89844 0.03400
3519.14063 0.03411
3517.38281 0.03436
3515.62500 0.03491
3513.86719 0.03539
3512.10938 0.03560
3510.35156 0.03579
3508.59375 0.03603
3506.83594 0.03621
3505.07813 0.03633
3503.32031 0.03648
3501.56250 0.03671
3499.80469 0.03704
3498.04688 0.03746
3496.28906 0.03788
3494.53125 0.03833
3492.77344 0.03878
3491.01563 0.03897
3489.25781 0.03896
3487.50000 0.03904
3485.74219 0.03919
3483.98438 0.03922
3482.22656 0.03919
3480.46875 0.03930
3478.71094 0.03971
3476.95313 0.04036
3475.19531 0.04100
3473.43750 0.04146
3471.67969 0.04180
3469.92188 0.04222
3468.16406 0.04282
3466.40625 0.04328
3464.64844 0.04341
3462.89063 0.04351
3461.13281 0.04402
3459.37500 0.04492
3457.61719 0.04575
3455.85938 0.04627
3454.10156 0.04680
3452.34375 0.04761
3450.58594 0.04857
3448.82813 0.04950
3447.07031 0.05032
3445.31250 0.05122
3443.55469 0.05257
3441.79688 0.05442
3440.03906 0.05645
3438.28125 0.05837
3436.52344 0.06006
3434.76563 0.06180
3433.00781 0.06392
3431.25000 0.06640
3429.49219 0.06889
3427.73438 0.07130
3425.97656 0.07377
3424.21875 0.07629
3422.46094 0.07875
3420.70313 0.08112
3418.94531 0.08346
3417.18750 0.08567
3415.42969 0.08736
3413.67188 0.08845
3411.91406 0.08918
3410.15625 0.08951
3408.39844 0.08933
3406.64063 0.08888
3404.88281 0.08840
3403.12500 0.08777
3401.36719 0.08685
3399.60938 0.08582
3397.85156 0.08500
3396.09375 0.08426
3394.33594 0.08341
3392.57813 0.08254
3390.82031 0.08190
3389.06250 0.08160
3387.30469 0.08141
3385.54688 0.08107
3383.78906 0.08065
3382.03125 0.08030
3380.27344 0.07989
3378.51563 0.07948
3376.75781 0.07940
3375.00000 0.07965
3373.24219 0.07988
3371.48438 0.07990
3369.72656 0.07984
3367.96875 0.07984
3366.21094 0.07998
3364.45313 0.08027
3362.69531 0.08064
3360.93750 0.08103
3359.17969 0.08150
3357.42188 0.08201
3355.66406 0.08244
3353.90625 0.08276
3352.14844 0.08313
3350.39063 0.08364
3348.63281 0.08422
3346.87500 0.08488
3345.11719 0.08560
3343.35938 0.08637
3341.60156 0.08721
3339.84375 0.08806
3338.08594 0.08872
3336.32813 0.08920
3334.57031 0.08972
3332.81250 0.09029
3331.05469 0.09076
3329.29688 0.09117
3327.53906 0.09154
3325.78125 0.09180
3324.02344 0.09203
3322.26563 0.09218
3320.50781 0.09208
3318.75000 0.09174
3316.99219 0.09135
3315.23438 0.09095
3313.47656 0.09050
3311.71875 0.08997
3309.96094 0.08941
3308.20313 0.08876
3306.44531 0.08793
3304.68750 0.08707
3302.92969 0.08631
3301.17188 0.08573
3299.41406 0.08529
3297.65625 0.08484
3295.89844 0.08418
3294.14063 0.08335
3292.38281 0.08260
3290.62500 0.08205
3288.86719 0.08169
3287.10938 0.08137
3285.35156 0.08094
3283.59375 0.08043
3281.83594 0.07988
3280.07813 0.07922
3278.32031 0.07850
3276.56250 0.07792
3274.80469 0.07756
3273.04688 0.07733
3271.28906 0.07701
3269.53125 0.07649
3267.77344 0.07587
3266.01563 0.07520
3264.25781 0.07458
3262.50000 0.07414
3260.74219 0.07389
3258.98438 0.07363
3257.22656 0.07330
3255.46875 0.07299
3253.71094 0.07271
3251.95313 0.07245
3250.19531 0.07218
3248.43750 0.07177
3246.67969 0.07121
3244.92188 0.07070
3243.16406 0.07033
3241.40625 0.07002
3239.64844 0.06971
3237.89063 0.06949
3236.13281 0.06935
3234.37500 0.06917
3232.61719 0.06885
3230.85938 0.06853
3229.10156 0.06824
3227.34375 0.06780
3225.58594 0.06730
3223.82813 0.06706
3222.07031 0.06701
3220.31250 0.06684
3218.55469 0.06646
3216.79688 0.06595
3215.03906 0.06550
3213.28125 0.06527
3211.52344 0.06519
3209.76563 0.06509
3208.00781 0.06485
3206.25000 0.06453
3204.49219 0.06431
3202.73438 0.06421
3200.97656 0.06400
3199.21875 0.06362
3197.46094 0.06324
3195.70313 0.06294
3193.94531 0.06259
3192.18750 0.06223
3190.42969 0.06207
3188.67188 0.06204
3186.91406 0.06186
3185.15625 0.06148
3183.39844 0.06116
3181.64063 0.06098
3179.88281 0.06080
3178.12500 0.06058
3176.36719 0.06042
3174.60938 0.06021
3172.85156 0.05992
3171.09375 0.05964
3169.33594 0.05942
3167.57813 0.05924
3165.82031 0.05905
3164.06250 0.05888
3162.30469 0.05869
3160.54688 0.05842
3158.78906 0.05813
3157.03125 0.05794
3155.27344 0.05783
3153.51563 0.05767
3151.75781 0.05746
3150.00000 0.05730
3148.24219 0.05717
3146.48438 0.05699
3144.72656 0.05673
3142.96875 0.05643
3141.21094 0.05610
3139.45313 0.05578
3137.69531 0.05558
3135.93750 0.05553
3134.17969 0.05550
3132.42188 0.05539
3130.66406 0.05521
3128.90625 0.05498
3127.14844 0.05472
3125.39063 0.05448
3123.63281 0.05429
3121.87500 0.05414
3120.11719 0.05401
3118.35938 0.05390
3116.60156 0.05377
3114.84375 0.05355
3113.08594 0.05330
3111.32813 0.05315
3109.57031 0.05303
3107.81250 0.05288
3106.05469 0.05282
3104.29688 0.05281
3102.53906 0.05268
3100.78125 0.05246
3099.02344 0.05225
3097.26563 0.05205
3095.50781 0.05182
3093.75000 0.05165
3091.99219 0.05160
3090.23438 0.05160
3088.47656 0.05151
3086.71875 0.05133
3084.96094 0.05110
3083.20313 0.05088
3081.44531 0.05066
3079.68750 0.05048
3077.92969 0.05036
3076.17188 0.05022
3074.41406 0.04996
3072.65625 0.04963
3070.89844 0.04937
3069.14063 0.04927
3067.38281 0.04927
3065.62500 0.04921
3063.86719 0.04906
3062.10938 0.04895
3060.35156 0.04888
3058.59375 0.04875
3056.83594 0.04859
3055.07813 0.04856
3053.32031 0.04861
3051.56250 0.04848
3049.80469 0.04813
3048.04688 0.04781
3046.28906 0.04760
3044.53125 0.04751
3042.77344 0.04754
3041.01563 0.04752
3039.25781 0.04732
3037.50000 0.04706
3035.74219 0.04691
3033.98438 0.04679
3032.22656 0.04663
3030.46875 0.04652
3028.71094 0.04650
3026.95313 0.04651
3025.19531 0.04659
3023.43750 0.04663
3021.67969 0.04647
3019.92188 0.04622
3018.16406 0.04611
3016.40625 0.04610
3014.64844 0.04606
3012.89063 0.04594
3011.13281 0.04579
3009.37500 0.04568
3007.61719 0.04560
3005.85938 0.04551
3004.10156 0.04542
3002.34375 0.04536
3000.58594 0.04533
2998.82813 0.04536
2997.07031 0.04544
2995.31250 0.04546
2993.55469 0.04533
2991.79688 0.04518
2990.03906 0.04514
2988.28125 0.04521
2986.52344 0.04529
2984.76563 0.04531
2983.00781 0.04532
2981.25000 0.04538
2979.49219 0.04549
2977.73438 0.04557
2975.97656 0.04566
2974.21875 0.04586
2972.46094 0.04617
2970.70313 0.04636
2968.94531 0.04639
2967.18750 0.04639
2965.42969 0.04637
2963.67188 0.04623
2961.91406 0.04602
2960.15625 0.04589
2958.39844 0.04587
2956.64063 0.04585
2954.88281 0.04583
2953.12500 0.04585
2951.36719 0.04599
2949.60938 0.04622
2947.85156 0.04649
2946.09375 0.04675
2944.33594 0.04699
2942.57813 0.04724
2940.82031 0.04759
2939.06250 0.04801
2937.30469 0.04829
2935.54688 0.04828
2933.78906 0.04817
2932.03125 0.04814
2930.27344 0.04813
2928.51563 0.04803
2926.75781 0.04779
2925.00000 0.04750
2923.24219 0.04725
2921.48438 0.04703
2919.72656 0.04671
2917.96875 0.04634
2916.21094 0.04603
2914.45313 0.04578
2912.69531 0.04553
2910.93750 0.04527
2909.17969 0.04503
2907.42188 0.04481
2905.66406 0.04455
2903.90625 0.04425
2902.14844 0.04396
2900.39063 0.04367
2898.63281 0.04343
2896.87500 0.04329
2895.11719 0.04323
2893.35938 0.04316
2891.60156 0.04307
2889.84375 0.04294
2888.08594 0.04278
2886.32813 0.04267
2884.57031 0.04269
2882.81250 0.04275
2881.05469 0.04273
2879.29688 0.04266
2877.53906 0.04260
2875.78125 0.04260
2874.02344 0.04269
2872.26563 0.04290
2870.50781 0.04315
2868.75000 0.04333
2866.99219 0.04343
2865.23438 0.04343
2863.47656 0.04332
2861.71875 0.04319
2859.96094 0.04308
2858.20313 0.04293
2856.44531 0.04267
2854.68750 0.04233
2852.92969 0.04190
2851.17188 0.04151
2849.41406 0.04123
2847.65625 0.04101
2845.89844 0.04073
2844.14063 0.04042
2842.38281 0.04013
2840.62500 0.03991
2838.86719 0.03977
2837.10938 0.03968
2835.35156 0.03966
2833.59375 0.03964
2831.83594 0.03956
2830.07813 0.03943
2828.32031 0.03928
2826.56250 0.03916
2824.80469 0.03910
2823.04688 0.03907
2821.28906 0.03899
2819.53125 0.03884
2817.77344 0.03870
2816.01563 0.03867
2814.25781 0.03873
2812.50000 0.03875
2810.74219 0.03862
2808.98438 0.03845
2807.22656 0.03839
2805.46875 0.03837
2803.71094 0.03825
2801.95313 0.03808
2800.19531 0.03799
2798.43750 0.03794
2796.67969 0.03785
2794.92188 0.03772
2793.16406 0.03761
2791.40625 0.03750
2789.64844 0.03736
2787.89063 0.03716
2786.13281 0.03700
2784.37500 0.03692
2782.61719 0.03693
2780.85938 0.03693
2779.10156 0.03683
2777.34375 0.03667
2775.58594 0.03655
2773.82813 0.03650
2772.07031 0.03643
2770.31250 0.03634
2768.55469 0.03624
2766.79688 0.03617
2765.03906 0.03610
2763.28125 0.03604
2761.52344 0.03604
2759.76563 0.03606
2758.00781 0.03601
2756.25000 0.03593
2754.49219 0.03586
2752.73438 0.03580
2750.97656 0.03572
2749.21875 0.03561
2747.46094 0.03551
2745.70313 0.03543
2743.94531 0.03539
2742.18750 0.03538
2740.42969 0.03539
2738.67188 0.03536
2736.91406 0.03530
2735.15625 0.03524
2733.39844 0.03515
2731.64063 0.03501
2729.88281 0.03492
2728.12500 0.03492
2726.36719 0.03493
2724.60938 0.03492
2722.85156 0.03489
2721.09375 0.03486
2719.33594 0.03481
2717.57813 0.03476
2715.82031 0.03473
2714.06250 0.03470
2712.30469 0.03461
2710.54688 0.03452
2708.78906 0.03445
2707.03125 0.03437
2705.27344 0.03424
2703.51563 0.03414
2701.75781 0.03415
2700.00000 0.03423
2698.24219 0.03427
2696.48438 0.03421
2694.72656 0.03412
2692.96875 0.03407
2691.21094 0.03408
2689.45313 0.03408
2687.69531 0.03405
2685.93750 0.03407
2684.17969 0.03414
2682.42188 0.03409
2680.66406 0.03388
2678.90625 0.03367
2677.14844 0.03361
2675.39063 0.03363
2673.63281 0.03360
2671.87500 0.03349
2670.11719 0.03332
2668.35938 0.03318
2666.60156 0.03314
2664.84375 0.03313
2663.08594 0.03313
2661.32813 0.03313
2659.57031 0.03313
2657.81250 0.03309
2656.05469 0.03301
2654.29688 0.03296
2652.53906 0.03295
2650.78125 0.03291
2649.02344 0.03286
2647.26563 0.03282
2645.50781 0.03275
2643.75000 0.03268
2641.99219 0.03270
2640.23438 0.03276
2638.47656 0.03278
2636.71875 0.03276
2634.96094 0.03272
2633.20313 0.03269
2631.44531 0.03267
2629.68750 0.03264
2627.92969 0.03267
2626.17188 0.03270
2624.41406 0.03264
2622.65625 0.03249
2620.89844 0.03233
2619.14063 0.03224
2617.38281 0.03226
2615.62500 0.03238
2613.86719 0.03247
2612.10938 0.03246
2610.35156 0.03238
2608.59375 0.03236
2606.83594 0.03242
2605.07813 0.03244
2603.32031 0.03237
2601.56250 0.03234
2599.80469 0.03243
2598.04688 0.03252
2596.28906 0.03255
2594.53125 0.03253
2592.77344 0.03252
2591.01563 0.03253
2589.25781 0.03253
2587.50000 0.03254
2585.74219 0.03259
2583.98438 0.03265
2582.22656 0.03269
2580.46875 0.03269
2578.71094 0.03269
2576.95313 0.03270
2575.19531 0.03275
2573.43750 0.03285
2571.67969 0.03298
2569.92188 0.03305
2568.16406 0.03305
2566.40625 0.03303
2564.64844 0.03305
2562.89063 0.03310
2561.13281 0.03317
2559.37500 0.03323
2557.61719 0.03327
2555.85938 0.03329
2554.10156 0.03330
2552.34375 0.03330
2550.58594 0.03330
2548.82813 0.03331
2547.07031 0.03333
2545.31250 0.03335
2543.55469 0.03333
2541.79688 0.03325
2540.03906 0.03311
2538.28125 0.03294
2536.52344 0.03279
2534.76563 0.03268
2533.00781 0.03259
2531.25000 0.03251
2529.49219 0.03248
2527.73438 0.03247
2525.97656 0.03242
2524.21875 0.03231
2522.46094 0.03217
2520.70313 0.03207
2518.94531 0.03204
2517.18750 0.03198
2515.42969 0.03182
2513.67188 0.03158
2511.91406 0.03140
2510.15625 0.03135
2508.39844 0.03135
2506.64063 0.03132
2504.88281 0.03126
2503.12500 0.03121
2501.36719 0.03122
2499.60938 0.03124
2497.85156 0.03122
2496.09375 0.03116
2494.33594 0.03108
2492.57813 0.03096
2490.82031 0.03091
2489.06250 0.03097
2487.30469 0.03103
2485.54688 0.03103
2483.78906 0.03100
2482.03125 0.03093
2480.27344 0.03082
2478.51563 0.03073
2476.75781 0.03071
2475.00000 0.03074
2473.24219 0.03078
2471.48438 0.03078
2469.72656 0.03072
2467.96875 0.03067
2466.21094 0.03062
2464.45313 0.03060
2462.69531 0.03066
2460.93750 0.03078
2459.17969 0.03086
2457.42188 0.03087
2455.66406 0.03085
2453.90625 0.03081
2452.14844 0.03074
2450.39063 0.03071
2448.63281 0.03076
2446.87500 0.03087
2445.11719 0.03097
2443.35938 0.03107
2441.60156 0.03120
2439.84375 0.03131
2438.08594 0.03130
2436.32813 0.03124
2434.57031 0.03124
2432.81250 0.03130
2431.05469 0.03128
2429.29688 0.03121
2427.53906 0.03118
2425.78125 0.03121
2424.02344 0.03118
2422.26563 0.03102
2420.50781 0.03085
2418.75000 0.03080
2416.99219 0.03082
2415.23438 0.03080
2413.47656 0.03066
2411.71875 0.03051
2409.96094 0.03051
2408.20313 0.03060
2406.44531 0.03059
2404.68750 0.03041
2402.92969 0.03019
2401.17188 0.03004
2399.41406 0.02995
2397.65625 0.02983
2395.89844 0.02961
2394.14063 0.02935
2392.38281 0.02908
2390.62500 0.02878
2388.86719 0.02840
2387.10938 0.02791
2385.35156 0.02724
2383.59375 0.02640
2381.83594 0.02549
2380.07813 0.02463
2378.32031 0.02377
2376.56250 0.02280
2374.80469 0.02167
2373.04688 0.02048
2371.28906 0.01957
2369.53125 0.01896
2367.77344 0.01831
2366.01563 0.01790
2364.25781 0.01840
2362.50000 0.01982
2360.74219 0.02164
2358.98438 0.02303
2357.22656 0.02342
2355.46875 0.02303
2353.71094 0.02228
2351.95313 0.02150
2350.19531 0.02100
2348.43750 0.02085
2346.67969 0.02099
2344.92188 0.02124
2343.16406 0.02144
2341.40625 0.02139
2339.64844 0.02104
2337.89063 0.02079
2336.13281 0.02099
2334.37500 0.02148
2332.61719 0.02199
2330.85938 0.02243
2329.10156 0.02284
2327.34375 0.02325
2325.58594 0.02356
2323.82813 0.02369
2322.07031 0.02379
2320.31250 0.02403
2318.55469 0.02436
2316.79688 0.02460
2315.03906 0.02474
2313.28125 0.02492
2311.52344 0.02518
2309.76563 0.02542
2308.00781 0.02556
2306.25000 0.02557
2304.49219 0.02553
2302.73438 0.02555
2300.97656 0.02567
2299.21875 0.02584
2297.46094 0.02595
2295.70313 0.02598
2293.94531 0.02598
2292.18750 0.02603
2290.42969 0.02606
2288.67188 0.02598
2286.91406 0.02583
2285.15625 0.02575
2283.39844 0.02572
2281.64063 0.02565
2279.88281 0.02562
2278.12500 0.02566
2276.36719 0.02570
2274.60938 0.02572
2272.85156 0.02575
2271.09375 0.02576
2269.33594 0.02574
2267.57813 0.02568
2265.82031 0.02564
2264.06250 0.02561
2262.30469 0.02553
2260.54688 0.02543
2258.78906 0.02542
2257.03125 0.02552
2255.27344 0.02564
2253.51563 0.02573
2251.75781 0.02579
2250.00000 0.02580
2248.24219 0.02574
2246.48438 0.02564
2244.72656 0.02564
2242.96875 0.02573
2241.21094 0.02580
2239.45313 0.02578
2237.69531 0.02573
2235.93750 0.02571
2234.17969 0.02572
2232.42188 0.02569
2230.66406 0.02559
2228.90625 0.02549
2227.14844 0.02543
2225.39063 0.02541
2223.63281 0.02548
2221.87500 0.02557
2220.11719 0.02559
2218.35938 0.02551
2216.60156 0.02543
2214.84375 0.02542
2213.08594 0.02546
2211.32813 0.02553
2209.57031 0.02558
2207.81250 0.02558
2206.05469 0.02556
2204.29688 0.02553
2202.53906 0.02543
2200.78125 0.02525
2199.02344 0.02508
2197.26563 0.02498
2195.50781 0.02495
2193.75000 0.02504
2191.99219 0.02516
2190.23438 0.02514
2188.47656 0.02504
2186.71875 0.02501
2184.96094 0.02506
2183.20313 0.02509
2181.44531 0.02511
2179.68750 0.02508
2177.92969 0.02502
2176.17188 0.02501
2174.41406 0.02507
2172.65625 0.02510
2170.89844 0.02511
2169.14063 0.02515
2167.38281 0.02519
2165.62500 0.02516
2163.86719 0.02504
2162.10938 0.02485
2160.35156 0.02465
2158.59375 0.02459
2156.83594 0.02465
2155.07813 0.02469
2153.32031 0.02467
2151.56250 0.02463
2149.80469 0.02456
2148.04688 0.02445
2146.28906 0.02438
2144.53125 0.02437
2142.77344 0.02439
2141.01563 0.02441
2139.25781 0.02435
2137.50000 0.02420
2135.74219 0.02403
2133.98438 0.02391
2132.22656 0.02388
2130.46875 0.02394
2128.71094 0.02402
2126.95313 0.02403
2125.19531 0.02394
2123.43750 0.02386
2121.67969 0.02380
2119.92188 0.02373
2118.16406 0.02366
2116.40625 0.02362
2114.64844 0.02362
2112.89063 0.02361
2111.13281 0.02357
2109.37500 0.02360
2107.61719 0.02362
2105.85938 0.02356
2104.10156 0.02346
2102.34375 0.02341
2100.58594 0.02348
2098.82813 0.02363
2097.07031 0.02377
2095.31250 0.02383
2093.55469 0.02378
2091.79688 0.02370
2090.03906 0.02368
2088.28125 0.02374
2086.52344 0.02378
2084.76563 0.02376
2083.00781 0.02373
2081.25000 0.02372
2079.49219 0.02371
2077.73438 0.02367
2075.97656 0.02362
2074.21875 0.02359
2072.46094 0.02355
2070.70313 0.02347
2068.94531 0.02331
2067.18750 0.02310
2065.42969 0.02289
2063.67188 0.02271
2061.91406 0.02255
2060.15625 0.02246
2058.39844 0.02241
2056.64063 0.02235
2054.88281 0.02225
2053.12500 0.02212
2051.36719 0.02198
2049.60938 0.02187
2047.85156 0.02179
2046.09375 0.02170
2044.33594 0.02157
2042.57813 0.02144
2040.82031 0.02131
2039.06250 0.02119
2037.30469 0.02108
2035.54688 0.02098
2033.78906 0.02092
2032.03125 0.02090
2030.27344 0.02093
2028.51563 0.02095
2026.75781 0.02092
2025.00000 0.02085
2023.24219 0.02071
2021.48438 0.02053
2019.72656 0.02039
2017.96875 0.02034
2016.21094 0.02031
2014.45313 0.02021
2012.69531 0.02006
2010.93750 0.01995
2009.17969 0.01991
2007.42188 0.01997
2005.66406 0.02007
2003.90625 0.02013
2002.14844 0.02018
2000.39063 0.02032
1998.63281 0.02051
1996.87500 0.02053
1995.11719 0.02036
1993.35938 0.02015
1991.60156 0.02000
1989.84375 0.01989
1988.08594 0.01977
1986.32813 0.01968
1984.57031 0.01966
1982.81250 0.01971
1981.05469 0.01977
1979.29688 0.01980
1977.53906 0.01976
1975.78125 0.01982
1974.02344 0.02000
1972.26563 0.02003
1970.50781 0.01979
1968.75000 0.01956
1966.99219 0.01945
1965.23438 0.01932
1963.47656 0.01919
1961.71875 0.01918
1959.96094 0.01921
1958.20313 0.01922
1956.44531 0.01923
1954.68750 0.01930
1952.92969 0.01943
1951.17188 0.01965
1949.41406 0.01988
1947.65625 0.01981
1945.89844 0.01943
1944.14063 0.01908
1942.38281 0.01886
1940.62500 0.01869
1938.86719 0.01849
1937.10938 0.01835
1935.35156 0.01836
1933.59375 0.01847
1931.83594 0.01865
1930.07813 0.01892
1928.32031 0.01908
1926.56250 0.01901
1924.80469 0.01890
1923.04688 0.01873
1921.28906 0.01841
1919.53125 0.01817
1917.77344 0.01819
1916.01563 0.01832
1914.25781 0.01827
1912.50000 0.01797
1910.74219 0.01765
1908.98438 0.01744
1907.22656 0.01731
1905.46875 0.01720
1903.71094 0.01714
1901.95313 0.01717
1900.19531 0.01718
1898.43750 0.01718
1896.67969 0.01725
1894.92188 0.01723
1893.16406 0.01697
1891.40625 0.01668
1889.64844 0.01646
1887.89063 0.01626
1886.13281 0.01614
1884.37500 0.01611
1882.61719 0.01609
1880.85938 0.01604
1879.10156 0.01611
1877.34375 0.01650
1875.58594 0.01721
1873.82813 0.01755
1872.07031 0.01704
1870.31250 0.01630
1868.55469 0.01584
1866.79688 0.01572
1865.03906 0.01576
1863.28125 0.01576
1861.52344 0.01568
1859.76563 0.01564
1858.00781 0.01571
1856.25000 0.01592
1854.49219 0.01630
1852.73438 0.01676
1850.97656 0.01722
1849.21875 0.01731
1847.46094 0.01691
1845.70313 0.01655
1843.94531 0.01647
1842.18750 0.01644
1840.42969 0.01630
1838.67188 0.01630
1836.91406 0.01670
1835.15625 0.01708
1833.39844 0.01698
1831.64063 0.01675
1829.88281 0.01659
1828.12500 0.01631
1826.36719 0.01604
1824.60938 0.01600
1822.85156 0.01612
1821.09375 0.01625
1819.33594 0.01653
1817.57813 0.01707
1815.82031 0.01755
1814.06250 0.01758
1812.30469 0.01738
1810.54688 0.01736
1808.78906 0.01768
1807.03125 0.01805
1805.27344 0.01803
1803.51563 0.01768
1801.75781 0.01744
1800.00000 0.01750
1798.24219 0.01760
1796.48438 0.01710
1794.72656 0.01622
1792.96875 0.01562
1791.21094 0.01548
1789.45313 0.01559
1787.69531 0.01572
1785.93750 0.01572
1784.17969 0.01555
1782.42188 0.01544
1780.66406 0.01572
1778.90625 0.01638
1777.14844 0.01663
1775.39063 0.01592
1773.63281 0.01498
1771.87500 0.01433
1770.11719 0.01403
1768.35938 0.01403
1766.60156 0.01410
1764.84375 0.01405
1763.08594 0.01402
1761.32813 0.01394
1759.57031 0.01385
1757.81250 0.01417
1756.05469 0.01512
1754.29688 0.01585
1752.53906 0.01569
1750.78125 0.01518
1749.02344 0.01475
1747.26563 0.01448
1745.50781 0.01432
1743.75000 0.01413
1741.99219 0.01414
1740.23438 0.01474
1738.47656 0.01510
1736.71875 0.01423
1734.96094 0.01310
1733.20313 0.01234
1731.44531 0.01205
1729.68750 0.01207
1727.92969 0.01217
1726.17188 0.01240
1724.41406 0.01320
1722.65625 0.01447
1720.89844 0.01443
1719.14063 0.01319
1717.38281 0.01210
1715.62500 0.01152
1713.86719 0.01149
1712.10938 0.01203
1710.35156 0.01261
1708.59375 0.01274
1706.83594 0.01295
1705.07813 0.01380
1703.32031 0.01434
1701.56250 0.01375
1699.80469 0.01255
1698.04688 0.01168
1696.28906 0.01151
1694.53125 0.01190
1692.77344 0.01243
1691.01563 0.01314
1689.25781 0.01398
1687.50000 0.01371
1685.74219 0.01273
1683.98438 0.01195
1682.22656 0.01169
1680.46875 0.01196
1678.71094 0.01231
1676.95313 0.01265
1675.19531 0.01298
1673.43750 0.01257
1671.67969 0.01177
1669.92188 0.01150
1668.16406 0.01172
1666.40625 0.01164
1664.64844 0.01123
1662.89063 0.01114
1661.13281 0.01162
1659.37500 0.01272
1657.61719 0.01350
1655.85938 0.01318
1654.10156 0.01301
1652.34375 0.01306
1650.58594 0.01239
1648.82813 0.01133
1647.07031 0.01066
1645.31250 0.01053
1643.55469 0.01096
1641.79688 0.01168
1640.03906 0.01153
1638.28125 0.01058
1636.52344 0.00990
1634.76563 0.00973
1633.00781 0.00994
1631.25000 0.01025
1629.49219 0.01058
1627.73438 0.01063
1625.97656 0.01026
1624.21875 0.01013
1622.46094 0.01057
1620.70313 0.01093
1618.94531 0.01081
1617.18750 0.01092
1615.42969 0.01166
1613.67188 0.01269
1611.91406 0.01353
1610.15625 0.01420
1608.39844 0.01490
1606.64063 0.01556
1604.88281 0.01604
1603.12500 0.01652
1601.36719 0.01720
1599.60938 0.01789
1597.85156 0.01843
1596.09375 0.01888
1594.33594 0.01934
1592.57813 0.01989
1590.82031 0.02054
1589.06250 0.02131
1587.30469 0.02216
1585.54688 0.02302
1583.78906 0.02415
1582.03125 0.02599
1580.27344 0.02779
1578.51563 0.02834
1576.75781 0.02888
1575.00000 0.03068
1573.24219 0.03298
1571.48438 0.03465
1569.72656 0.03626
1567.96875 0.03778
1566.21094 0.03932
1564.45313 0.04328
1562.69531 0.04956
1560.93750 0.05220
1559.17969 0.05393
1557.42188 0.05638
1555.66406 0.05965
1553.90625 0.06349
1552.14844 0.06734
1550.39063 0.07180
1548.63281 0.07770
1546.87500 0.08478
1545.11719 0.09396
1543.35938 0.10101
1541.60156 0.10434
1539.84375 0.10874
1538.08594 0.11630
1536.32813 0.12363
1534.57031 0.12902
1532.81250 0.13527
1531.05469 0.14304
1529.29688 0.15010
1527.53906 0.15700
1525.78125 0.16469
1524.02344 0.17045
1522.26563 0.17480
1520.50781 0.17872
1518.75000 0.18147
1516.99219 0.18373
1515.23438 0.18644
1513.47656 0.18991
1511.71875 0.19405
1509.96094 0.19575
1508.20313 0.19586
1506.44531 0.19648
1504.68750 0.19788
1502.92969 0.19992
1501.17188 0.20178
1499.41406 0.20251
1497.65625 0.20285
1495.89844 0.20368
1494.14063 0.20436
1492.38281 0.20304
1490.62500 0.20015
1488.86719 0.19684
1487.10938 0.19278
1485.35156 0.18768
1483.59375 0.18230
1481.83594 0.17700
1480.07813 0.17145
1478.32031 0.16446
1476.56250 0.15529
1474.80469 0.14757
1473.04688 0.14231
1471.28906 0.13762
1469.53125 0.13210
1467.77344 0.12666
1466.01563 0.12296
1464.25781 0.12066
1462.50000 0.11797
1460.74219 0.11323
1458.98438 0.10898
1457.22656 0.10617
1455.46875 0.10434
1453.71094 0.10343
1451.95313 0.10337
1450.19531 0.10401
1448.43750 0.10562
1446.67969 0.10846
1444.92188 0.11233
1443.16406 0.11772
1441.40625 0.12610
1439.64844 0.13522
1437.89063 0.14194
1436.13281 0.14841
1434.37500 0.15616
1432.61719 0.16348
1430.85938 0.16958
1429.10156 0.17569
1427.34375 0.18161
1425.58594 0.18687
1423.82813 0.19275
1422.07031 0.19844
1420.31250 0.20189
1418.55469 0.20466
1416.79688 0.20815
1415.03906 0.21238
1413.28125 0.21697
1411.52344 0.22226
1409.76563 0.22914
1408.00781 0.23680
1406.25000 0.24424
1404.49219 0.25298
1402.73438 0.26364
1400.97656 0.27473
1399.21875 0.28604
1397.46094 0.29663
1395.70313 0.30527
1393.94531 0.31360
1392.18750 0.32330
1390.42969 0.33253
1388.67188 0.33889
1386.91406 0.34315
1385.15625 0.34598
1383.39844 0.34703
1381.64063 0.34604
1379.88281 0.34289
1378.12500 0.33754
1376.36719 0.33123
1374.60938 0.32495
1372.85156 0.31831
1371.09375 0.31166
1369.33594 0.30551
1367.57813 0.29889
1365.82031 0.29140
1364.06250 0.28436
1362.30469 0.27805
1360.54688 0.27183
1358.78906 0.26557
1357.03125 0.25956
1355.27344 0.25380
1353.51563 0.24809
1351.75781 0.24245
1350.00000 0.23701
1348.24219 0.23200
1346.48438 0.22748
1344.72656 0.22298
1342.96875 0.21793
1341.21094 0.21273
1339.45313 0.20796
1337.69531 0.20358
1335.93750 0.19942
1334.17969 0.19537
1332.42188 0.19139
1330.66406 0.18759
1328.90625 0.18396
1327.14844 0.18043
1325.39063 0.17694
1323.63281 0.17336
1321.87500 0.16971
1320.11719 0.16626
1318.35938 0.16320
1316.60156 0.16042
1314.84375 0.15774
1313.08594 0.15506
1311.32813 0.15228
1309.57031 0.14938
1307.81250 0.14650
1306.05469 0.14376
1304.29688 0.14113
1302.53906 0.13851
1300.78125 0.13594
1299.02344 0.13348
1297.26563 0.13118
1295.50781 0.12898
1293.75000 0.12687
1291.99219 0.12477
1290.23438 0.12263
1288.47656 0.12052
1286.71875 0.11853
1284.96094 0.11668
1283.20313 0.11493
1281.44531 0.11324
1279.68750 0.11161
1277.92969 0.11006
1276.17188 0.10865
1274.41406 0.10730
1272.65625 0.10595
1270.89844 0.10461
1269.14063 0.10334
1267.38281 0.10218
1265.62500 0.10103
1263.86719 0.09975
1262.10938 0.09835
1260.35156 0.09688
1258.59375 0.09539
1256.83594 0.09398
1255.07813 0.09272
1253.32031 0.09156
1251.56250 0.09043
1249.80469 0.08931
1248.04688 0.08816
1246.28906 0.08699
1244.53125 0.08589
1242.77344 0.08488
1241.01563 0.08393
1239.25781 0.08301
1237.50000 0.08211
1235.74219 0.08119
1233.98438 0.08023
1232.22656 0.07927
1230.46875 0.07835
1228.71094 0.07745
1226.95313 0.07656
1225.19531 0.07568
1223.43750 0.07482
1221.67969 0.07395
1219.92188 0.07307
1218.16406 0.07220
1216.40625 0.07144
1214.64844 0.07077
1212.89063 0.07014
1211.13281 0.06949
1209.37500 0.06883
1207.61719 0.06820
1205.85938 0.06754
1204.10156 0.06681
1202.34375 0.06607
1200.58594 0.06537
1198.82813 0.06471
1197.07031 0.06408
1195.31250 0.06352
1193.55469 0.06305
1191.79688 0.06262
1190.03906 0.06218
1188.28125 0.06175
1186.52344 0.06139
1184.76563 0.06106
1183.00781 0.06070
1181.25000 0.06032
1179.49219 0.05995
1177.73438 0.05956
1175.97656 0.05913
1174.21875 0.05874
1172.46094 0.05843
1170.70313 0.05814
1168.94531 0.05786
1167.18750 0.05757
1165.42969 0.05726
1163.67188 0.05690
1161.91406 0.05657
1160.15625 0.05637
1158.39844 0.05621
1156.64063 0.05599
1154.88281 0.05581
1153.12500 0.05570
1151.36719 0.05563
1149.60938 0.05559
1147.85156 0.05560
1146.09375 0.05563
1144.33594 0.05566
1142.57813 0.05577
1140.82031 0.05598
1139.06250 0.05625
1137.30469 0.05657
1135.54688 0.05701
1133.78906 0.05760
1132.03125 0.05831
1130.27344 0.05911
1128.51563 0.06003
1126.75781 0.06107
1125.00000 0.06219
1123.24219 0.06340
1121.48438 0.06465
1119.72656 0.06594
1117.96875 0.06738
1116.21094 0.06915
1114.45313 0.07134
1112.69531 0.07407
1110.93750 0.07765
1109.17969 0.08248
1107.42188 0.08898
1105.66406 0.09741
1103.90625 0.10740
1102.14844 0.11708
1100.39063 0.12252
1098.63281 0.11960
1096.87500 0.10799
1095.11719 0.09216
1093.35938 0.07762
1091.60156 0.06717
1089.84375 0.06080
1088.08594 0.05736
1086.32813 0.05576
1084.57031 0.05535
1082.81250 0.05579
1081.05469 0.05696
1079.29688 0.05889
1077.53906 0.06169
1075.78125 0.06545
1074.02344 0.07029
1072.26563 0.07658
1070.50781 0.08470
1068.75000 0.09478
1066.99219 0.10673
1065.23438 0.12050
1063.47656 0.13611
1061.71875 0.15335
1059.96094 0.17191
1058.20313 0.19151
1056.44531 0.21163
1054.68750 0.23131
1052.92969 0.24951
1051.17188 0.26519
1049.41406 0.27720
1047.65625 0.28470
1045.89844 0.28779
1044.14063 0.28713
1042.38281 0.28339
1040.62500 0.27728
1038.86719 0.26957
1037.10938 0.26094
1035.35156 0.25180
1033.59375 0.24237
1031.83594 0.23291
1030.07813 0.22356
1028.32031 0.21448
1026.56250 0.20585
1024.80469 0.19781
1023.04688 0.19031
1021.28906 0.18334
1019.53125 0.17697
1017.77344 0.17116
1016.01563 0.16576
1014.25781 0.16066
1012.50000 0.15579
1010.74219 0.15110
1008.98438 0.14657
1007.22656 0.14222
1005.46875 0.13801
1003.71094 0.13398
1001.95313 0.13024
1000.19531 0.12677
998.43750 0.12348
996.67969 0.12038
994.92188 0.11755
993.16406 0.11506
991.40625 0.11292
989.64844 0.11098
987.89063 0.10906
986.13281 0.10720
984.37500 0.10557
982.61719 0.10415
980.85938 0.10281
979.10156 0.10151
977.34375 0.10024
975.58594 0.09901
973.82813 0.09785
972.07031 0.09684
970.31250 0.09597
968.55469 0.09519
966.79688 0.09448
965.03906 0.09382
963.28125 0.09320
961.52344 0.09261
959.76563 0.09219
958.00781 0.09204
956.25000 0.09197
954.49219 0.09171
952.73438 0.09139
950.97656 0.09128
949.21875 0.09134
947.46094 0.09134
945.70313 0.09121
943.94531 0.09114
942.18750 0.09124
940.42969 0.09149
938.67188 0.09181
936.91406 0.09224
935.15625 0.09271
933.39844 0.09322
931.64063 0.09388
929.88281 0.09468
928.12500 0.09546
926.36719 0.09619
924.60938 0.09707
922.85156 0.09816
921.09375 0.09938
919.33594 0.10072
917.57813 0.10228
915.82031 0.10407
914.06250 0.10607
912.30469 0.10838
910.54688 0.11117
908.78906 0.11455
907.03125 0.11857
905.27344 0.12328
903.51563 0.12872
901.75781 0.13485
900.00000 0.14157
898.24219 0.14889
896.48438 0.15693
894.72656 0.16568
892.96875 0.17496
891.21094 0.18462
889.45313 0.19446
887.69531 0.20431
885.93750 0.21418
884.17969 0.22410
882.42188 0.23397
880.66406 0.24338
878.90625 0.25182
877.14844 0.25913
875.39063 0.26556
873.63281 0.27104
871.87500 0.27505
870.11719 0.27722
868.35938 0.27741
866.60156 0.27551
864.84375 0.27180
863.08594 0.26685
861.32813 0.26108
859.57031 0.25472
857.81250 0.24787
856.05469 0.24065
854.29688 0.23334
852.53906 0.22620
850.78125 0.21942
849.02344 0.21320
847.26563 0.20775
845.50781 0.20310
843.75000 0.19924
841.99219 0.19666
840.23438 0.19613
838.47656 0.19807
836.71875 0.20241
834.96094 0.20914
833.20313 0.21833
831.44531 0.23011
829.68750 0.24523
827.92969 0.26506
826.17188 0.29066
824.41406 0.32197
822.65625 0.35677
820.89844 0.38684
819.14063 0.39596
817.38281 0.37375
815.62500 0.33121
813.86719 0.28799
812.10938 0.25459
810.35156 0.23217
808.59375 0.21800
806.83594 0.20815
805.07813 0.19975
803.32031 0.19214
801.56250 0.18583
799.80469 0.18117
798.04688 0.17819
796.28906 0.17673
794.53125 0.17650
792.77344 0.17722
791.01563 0.17864
789.25781 0.18063
787.50000 0.18311
785.74219 0.18586
783.98438 0.18858
782.22656 0.19099
780.46875 0.19278
778.71094 0.19384
776.95313 0.19395
775.19531 0.19298
773.43750 0.19125
771.67969 0.18906
769.92188 0.18649
768.16406 0.18395
766.40625 0.18190
764.64844 0.18079
762.89063 0.18192
761.13281 0.18737
759.37500 0.19884
757.61719 0.21691
755.85938 0.24047
754.10156 0.26624
752.34375 0.28902
750.58594 0.30299
748.82813 0.30497
747.07031 0.29746
745.31250 0.28612
743.55469 0.27500
741.79688 0.26574
740.03906 0.25868
738.28125 0.25299
736.52344 0.24762
734.76563 0.24224
733.00781 0.23698
731.25000 0.23197
729.49219 0.22698
727.73438 0.22143
725.97656 0.21527
724.21875 0.20952
722.46094 0.20595
720.70313 0.20682
718.94531 0.21425
717.18750 0.22774
715.42969 0.24190
713.67188 0.24967
711.91406 0.24857
710.15625 0.24121
708.39844 0.23160
706.64063 0.22231
704.88281 0.21396
703.12500 0.20641
701.36719 0.19943
699.60938 0.19293
697.85156 0.18684
696.09375 0.18088
694.33594 0.17516
692.57813 0.17016
690.82031 0.16575
689.06250 0.16142
687.30469 0.15719
685.54688 0.15340
683.78906 0.15040
682.03125 0.14792
680.27344 0.14452
678.51563 0.13953
676.75781 0.13459
675.00000 0.13167
673.24219 0.13034
671.48438 0.12770
669.72656 0.12163
667.96875 0.11676
666.21094 0.11440
664.45313 0.11207
662.69531 0.10918
660.93750 0.10657
659.17969 0.10373
657.42188 0.10008
655.66406 0.09732
653.90625 0.09588
652.14844 0.09428
650.39063 0.09249
648.63281 0.09047
646.87500 0.08787
645.11719 0.08627
643.35938 0.08556
641.60156 0.08319
639.84375 0.07972
638.08594 0.07833
636.32813 0.07935
634.57031 0.08020
632.81250 0.07923
631.05469 0.07645
629.29688 0.07358
627.53906 0.07345
625.78125 0.07624
624.02344 0.07805
622.26563 0.07547
620.50781 0.07007
618.75000 0.06543
616.99219 0.06264
615.23438 0.06261
613.47656 0.06510
611.71875 0.06608
609.96094 0.06518
608.20313 0.06759
606.44531 0.07445
604.68750 0.08173
602.92969 0.08760
601.17188 0.09209
599.41406 0.09413
