3997.26563 0.32019
3995.50781 0.31979
3993.75000 0.31940
3991.99219 0.31938
3990.23438 0.31971
3988.47656 0.31997
3986.71875 0.31976
3984.96094 0.31929
3983.20313 0.31916
3981.44531 0.31941
3979.68750 0.31968
3977.92969 0.31983
3976.17188 0.31991
3974.41406 0.31995
3972.65625 0.31996
3970.89844 0.31992
3969.14063 0.31986
3967.38281 0.31983
3965.62500 0.31988
3963.86719 0.32010
3962.10938 0.32033
3960.35156 0.32024
3958.59375 0.31991
3956.83594 0.31985
3955.07813 0.32012
3953.32031 0.32030
3951.56250 0.32027
3949.80469 0.32032
3948.04688 0.32051
3946.28906 0.32060
3944.53125 0.32060
3942.77344 0.32069
3941.01563 0.32083
3939.25781 0.32101
3937.50000 0.32118
3935.74219 0.32119
3933.98438 0.32113
3932.22656 0.32118
3930.46875 0.32114
3928.71094 0.32084
3926.95313 0.32058
3925.19531 0.32052
3923.43750 0.32045
3921.67969 0.32027
3919.92188 0.32039
3918.16406 0.32118
3916.40625 0.32220
3914.64844 0.32250
3912.89063 0.32208
3911.13281 0.32141
3909.37500 0.32074
3907.61719 0.32037
3905.85938 0.32056
3904.10156 0.32112
3902.34375 0.32130
3900.58594 0.32109
3898.82813 0.32097
3897.07031 0.32109
3895.31250 0.32142
3893.55469 0.32174
3891.79688 0.32145
3890.03906 0.32081
3888.28125 0.32066
3886.52344 0.32110
3884.76563 0.32154
3883.00781 0.32153
3881.25000 0.32130
3879.49219 0.32134
3877.73438 0.32185
3875.97656 0.32239
3874.21875 0.32223
3872.46094 0.32184
3870.70313 0.32187
3868.94531 0.32233
3867.18750 0.32302
3865.42969 0.32337
3863.67188 0.32251
3861.91406 0.32149
3860.15625 0.32095
3858.39844 0.32092
3856.64063 0.32137
3854.88281 0.32218
3853.12500 0.32309
3851.36719 0.32357
3849.60938 0.32308
3847.85156 0.32229
3846.09375 0.32181
3844.33594 0.32136
3842.57813 0.32094
3840.82031 0.32099
3839.06250 0.32152
3837.30469 0.32207
3835.54688 0.32240
3833.78906 0.32262
3832.03125 0.32262
3830.27344 0.32237
3828.51563 0.32198
3826.75781 0.32144
3825.00000 0.32104
3823.24219 0.32094
3821.48438 0.32116
3819.72656 0.32151
3817.96875 0.32160
3816.21094 0.32157
3814.45313 0.32191
3812.69531 0.32235
3810.93750 0.32247
3809.17969 0.32241
3807.42188 0.32197
3805.66406 0.32131
3803.90625 0.32085
3802.14844 0.32056
3800.39063 0.32041
3798.63281 0.32054
3796.87500 0.32087
3795.11719 0.32109
3793.35938 0.32109
3791.60156 0.32095
3789.84375 0.32077
3788.08594 0.32059
3786.32813 0.32059
3784.57031 0.32102
3782.81250 0.32171
3781.05469 0.32203
3779.29688 0.32182
3777.53906 0.32144
3775.78125 0.32115
3774.02344 0.32115
3772.26563 0.32148
3770.50781 0.32181
3768.75000 0.32194
3766.99219 0.32224
3765.23438 0.32307
3763.47656 0.32437
3761.71875 0.32504
3759.96094 0.32454
3758.20313 0.32379
3756.44531 0.32322
3754.68750 0.32288
3752.92969 0.32277
3751.17188 0.32311
3749.41406 0.32405
3747.65625 0.32500
3745.89844 0.32470
3744.14063 0.32340
3742.38281 0.32225
3740.62500 0.32179
3738.86719 0.32201
3737.10938 0.32235
3735.35156 0.32220
3733.59375 0.32178
3731.83594 0.32160
3730.07813 0.32166
3728.32031 0.32172
3726.56250 0.32189
3724.80469 0.32250
3723.04688 0.32315
3721.28906 0.32273
3719.53125 0.32182
3717.77344 0.32133
3716.01563 0.32138
3714.25781 0.32171
3712.50000 0.32184
3710.74219 0.32162
3708.98438 0.32137
3707.22656 0.32138
3705.46875 0.32183
3703.71094 0.32284
3701.95313 0.32407
3700.19531 0.32436
3698.43750 0.32351
3696.67969 0.32262
3694.92188 0.32212
3693.16406 0.32215
3691.40625 0.32281
3689.64844 0.32411
3687.89063 0.32544
3686.13281 0.32543
3684.37500 0.32485
3682.61719 0.32474
3680.85938 0.32427
3679.10156 0.32323
3677.34375 0.32261
3675.58594 0.32252
3673.82813 0.32268
3672.07031 0.32294
3670.31250 0.32341
3668.55469 0.32415
3666.79688 0.32480
3665.03906 0.32523
3663.28125 0.32600
3661.52344 0.32744
3659.76563 0.32804
3658.00781 0.32696
3656.25000 0.32587
3654.49219 0.32528
3652.73438 0.32496
3650.97656 0.32456
3649.21875 0.32420
3647.46094 0.32440
3645.70313 0.32519
3643.94531 0.32599
3642.18750 0.32667
3640.42969 0.32727
3638.67188 0.32703
3636.91406 0.32626
3635.15625 0.32584
3633.39844 0.32603
3631.64063 0.32673
3629.88281 0.32719
3628.12500 0.32712
3626.36719 0.32722
3624.60938 0.32751
3622.85156 0.32756
3621.09375 0.32728
3619.33594 0.32670
3617.57813 0.32616
3615.82031 0.32611
3614.06250 0.32656
3612.30469 0.32702
3610.54688 0.32701
3608.78906 0.32683
3607.03125 0.32701
3605.27344 0.32730
3603.51563 0.32729
3601.75781 0.32729
3600.00000 0.32765
3598.24219 0.32799
3596.48438 0.32767
3594.72656 0.32711
3592.96875 0.32680
3591.21094 0.32685
3589.45313 0.32712
3587.69531 0.32748
3585.93750 0.32787
3584.17969 0.32817
3582.42188 0.32844
3580.66406 0.32887
3578.90625 0.32944
3577.14844 0.32950
3575.39063 0.32897
3573.63281 0.32846
3571.87500 0.32810
3570.11719 0.32776
3568.35938 0.32763
3566.60156 0.32796
3564.84375 0.32855
3563.08594 0.32873
3561.32813 0.32848
3559.57031 0.32840
3557.81250 0.32853
3556.05469 0.32840
3554.29688 0.32820
3552.53906 0.32830
3550.78125 0.32849
3549.02344 0.32852
3547.26563 0.32859
3545.50781 0.32883
3543.75000 0.32906
3541.99219 0.32928
3540.23438 0.32968
3538.47656 0.33013
3536.71875 0.33024
3534.96094 0.32990
3533.20313 0.32944
3531.44531 0.32926
3529.68750 0.32926
3527.92969 0.32923
3526.17188 0.32921
3524.41406 0.32934
3522.65625 0.32956
3520.89844 0.32972
3519.14063 0.32983
3517.38281 0.32998
3515.62500 0.33012
3513.86719 0.33018
3512.10938 0.33026
3510.35156 0.33047
3508.59375 0.33069
3506.83594 0.33075
3505.07813 0.33058
3503.32031 0.33040
3501.56250 0.33035
3499.80469 0.33034
3498.04688 0.33033
3496.28906 0.33049
3494.53125 0.33094
3492.77344 0.33141
3491.01563 0.33148
3489.25781 0.33121
3487.50000 0.33101
3485.74219 0.33105
3483.98438 0.33123
3482.22656 0.33139
3480.46875 0.33134
3478.71094 0.33121
3476.95313 0.33135
3475.19531 0.33165
3473.43750 0.33169
3471.67969 0.33147
3469.92188 0.33139
3468.16406 0.33171
3466.40625 0.33219
3464.64844 0.33243
3462.89063 0.33237
3461.13281 0.33219
3459.37500 0.33198
3457.61719 0.33182
3455.85938 0.33171
3454.10156 0.33157
3452.34375 0.33148
3450.58594 0.33150
3448.82813 0.33150
3447.07031 0.33154
3445.31250 0.33173
3443.55469 0.33193
3441.79688 0.33199
3440.03906 0.33203
3438.28125 0.33215
3436.52344 0.33221
3434.76563 0.33226
3433.00781 0.33249
3431.25000 0.33272
3429.49219 0.33267
3427.73438 0.33243
3425.97656 0.33214
3424.21875 0.33186
3422.46094 0.33175
3420.70313 0.33178
3418.94531 0.33177
3417.18750 0.33178
3415.42969 0.33182
3413.67188 0.33177
3411.91406 0.33168
3410.15625 0.33173
3408.39844 0.33197
3406.64063 0.33217
3404.88281 0.33214
3403.12500 0.33179
3401.36719 0.33130
3399.60938 0.33108
3397.85156 0.33144
3396.09375 0.33207
3394.33594 0.33246
3392.57813 0.33235
3390.82031 0.33178
3389.06250 0.33118
3387.30469 0.33100
3385.54688 0.33117
3383.78906 0.33149
3382.03125 0.33195
3380.27344 0.33235
3378.51563 0.33242
3376.75781 0.33230
3375.00000 0.33224
3373.24219 0.33222
3371.48438 0.33221
3369.72656 0.33226
3367.96875 0.33230
3366.21094 0.33226
3364.45313 0.33224
3362.69531 0.33240
3360.93750 0.33256
3359.17969 0.33241
3357.42188 0.33222
3355.66406 0.33234
3353.90625 0.33252
3352.14844 0.33248
3350.39063 0.33237
3348.63281 0.33245
3346.87500 0.33262
3345.11719 0.33255
3343.35938 0.33225
3341.60156 0.33197
3339.84375 0.33178
3338.08594 0.33171
3336.32813 0.33185
3334.57031 0.33201
3332.81250 0.33198
3331.05469 0.33189
3329.29688 0.33193
3327.53906 0.33199
3325.78125 0.33205
3324.02344 0.33230
3322.26563 0.33266
3320.50781 0.33268
3318.75000 0.33238
3316.99219 0.33226
3315.23438 0.33242
3313.47656 0.33245
3311.71875 0.33219
3309.96094 0.33184
3308.20313 0.33149
3306.44531 0.33117
3304.68750 0.33110
3302.92969 0.33132
3301.17188 0.33159
3299.41406 0.33175
3297.65625 0.33176
3295.89844 0.33166
3294.14063 0.33151
3292.38281 0.33139
3290.62500 0.33140
3288.86719 0.33170
3287.10938 0.33210
3285.35156 0.33222
3283.59375 0.33212
3281.83594 0.33201
3280.07813 0.33192
3278.32031 0.33178
3276.56250 0.33167
3274.80469 0.33173
3273.04688 0.33193
3271.28906 0.33195
3269.53125 0.33178
3267.77344 0.33171
3266.01563 0.33171
3264.25781 0.33160
3262.50000 0.33144
3260.74219 0.33127
3258.98438 0.33111
3257.22656 0.33096
3255.46875 0.33085
3253.71094 0.33077
3251.95313 0.33076
3250.19531 0.33069
3248.43750 0.33041
3246.67969 0.33012
3244.92188 0.33013
3243.16406 0.33036
3241.40625 0.33041
3239.64844 0.33013
3237.89063 0.32975
3236.13281 0.32955
3234.37500 0.32952
3232.61719 0.32954
3230.85938 0.32972
3229.10156 0.33005
3227.34375 0.33026
3225.58594 0.33025
3223.82813 0.33006
3222.07031 0.32980
3220.31250 0.32959
3218.55469 0.32945
3216.79688 0.32927
3215.03906 0.32898
3213.28125 0.32867
3211.52344 0.32869
3209.76563 0.32910
3208.00781 0.32943
3206.25000 0.32937
3204.49219 0.32910
3202.73438 0.32886
3200.97656 0.32871
3199.21875 0.32864
3197.46094 0.32856
3195.70313 0.32841
3193.94531 0.32823
3192.18750 0.32811
3190.42969 0.32796
3188.67188 0.32768
3186.91406 0.32738
3185.15625 0.32722
3183.39844 0.32722
3181.64063 0.32734
3179.88281 0.32736
3178.12500 0.32714
3176.36719 0.32677
3174.60938 0.32653
3172.85156 0.32662
3171.09375 0.32685
3169.33594 0.32680
3167.57813 0.32642
3165.82031 0.32606
3164.06250 0.32600
3162.30469 0.32612
3160.54688 0.32613
3158.78906 0.32598
3157.03125 0.32583
3155.27344 0.32571
3153.51563 0.32554
3151.75781 0.32530
3150.00000 0.32510
3148.24219 0.32499
3146.48438 0.32489
3144.72656 0.32469
3142.96875 0.32449
3141.21094 0.32443
3139.45313 0.32445
3137.69531 0.32438
3135.93750 0.32425
3134.17969 0.32423
3132.42188 0.32424
3130.66406 0.32404
3128.90625 0.32366
3127.14844 0.32345
3125.39063 0.32341
3123.63281 0.32324
3121.87500 0.32288
3120.11719 0.32260
3118.35938 0.32260
3116.60156 0.32275
3114.84375 0.32275
3113.08594 0.32252
3111.32813 0.32221
3109.57031 0.32201
3107.81250 0.32193
3106.05469 0.32193
3104.29688 0.32193
3102.53906 0.32175
3100.78125 0.32143
3099.02344 0.32117
3097.26563 0.32110
3095.50781 0.32111
3093.75000 0.32106
3091.99219 0.32096
3090.23438 0.32099
3088.47656 0.32110
3086.71875 0.32106
3084.96094 0.32080
3083.20313 0.32051
3081.44531 0.32033
3079.68750 0.32023
3077.92969 0.32013
3076.17188 0.31992
3074.41406 0.31964
3072.65625 0.31942
3070.89844 0.31928
3069.14063 0.31917
3067.38281 0.31904
3065.62500 0.31892
3063.86719 0.31887
3062.10938 0.31890
3060.35156 0.31896
3058.59375 0.31899
3056.83594 0.31897
3055.07813 0.31896
3053.32031 0.31896
3051.56250 0.31892
3049.80469 0.31885
3048.04688 0.31882
3046.28906 0.31885
3044.53125 0.31888
3042.77344 0.31879
3041.01563 0.31854
3039.25781 0.31829
3037.50000 0.31828
3035.74219 0.31837
3033.98438 0.31824
3032.22656 0.31799
3030.46875 0.31793
3028.71094 0.31804
3026.95313 0.31811
3025.19531 0.31813
3023.43750 0.31812
3021.67969 0.31798
3019.92188 0.31780
3018.16406 0.31774
3016.40625 0.31775
3014.64844 0.31768
3012.89063 0.31754
3011.13281 0.31745
3009.37500 0.31754
3007.61719 0.31774
3005.85938 0.31787
3004.10156 0.31783
3002.34375 0.31774
3000.58594 0.31779
2998.82813 0.31801
2997.07031 0.31822
2995.31250 0.31827
2993.55469 0.31824
2991.79688 0.31827
2990.03906 0.31834
2988.28125 0.31845
2986.52344 0.31854
2984.76563 0.31861
2983.00781 0.31879
2981.25000 0.31917
2979.49219 0.31960
2977.73438 0.31992
2975.97656 0.32020
2974.21875 0.32059
2972.46094 0.32107
2970.70313 0.32149
2968.94531 0.32183
2967.18750 0.32214
2965.42969 0.32233
2963.67188 0.32239
2961.91406 0.32238
2960.15625 0.32240
2958.39844 0.32251
2956.64063 0.32268
2954.88281 0.32286
2953.12500 0.32303
2951.36719 0.32327
2949.60938 0.32368
2947.85156 0.32424
2946.09375 0.32483
2944.33594 0.32538
2942.57813 0.32601
2940.82031 0.32681
2939.06250 0.32763
2937.30469 0.32827
2935.54688 0.32875
2933.78906 0.32917
2932.03125 0.32943
2930.27344 0.32931
2928.51563 0.32881
2926.75781 0.32815
2925.00000 0.32744
2923.24219 0.32670
2921.48438 0.32588
2919.72656 0.32502
2917.96875 0.32432
2916.21094 0.32382
2914.45313 0.32330
2912.69531 0.32267
2910.93750 0.32210
2909.17969 0.32167
2907.42188 0.32134
2905.66406 0.32109
2903.90625 0.32087
2902.14844 0.32057
2900.39063 0.32026
2898.63281 0.32004
2896.87500 0.31982
2895.11719 0.31951
2893.35938 0.31916
2891.60156 0.31888
2889.84375 0.31874
2888.08594 0.31873
2886.32813 0.31877
2884.57031 0.31877
2882.81250 0.31875
2881.05469 0.31879
2879.29688 0.31884
2877.53906 0.31883
2875.78125 0.31882
2874.02344 0.31890
2872.26563 0.31904
2870.50781 0.31919
2868.75000 0.31936
2866.99219 0.31954
2865.23438 0.31970
2863.47656 0.31980
2861.71875 0.31977
2859.96094 0.31958
2858.20313 0.31929
2856.44531 0.31892
2854.68750 0.31852
2852.92969 0.31812
2851.17188 0.31774
2849.41406 0.31732
2847.65625 0.31679
2845.89844 0.31624
2844.14063 0.31577
2842.38281 0.31538
2840.62500 0.31506
2838.86719 0.31485
2837.10938 0.31475
2835.35156 0.31469
2833.59375 0.31459
2831.83594 0.31443
2830.07813 0.31422
2828.32031 0.31398
2826.56250 0.31371
2824.80469 0.31342
2823.04688 0.31322
2821.28906 0.31310
2819.53125 0.31305
2817.77344 0.31307
2816.01563 0.31317
2814.25781 0.31326
2812.50000 0.31327
2810.74219 0.31316
2808.98438 0.31305
2807.22656 0.31303
2805.46875 0.31306
2803.71094 0.31299
2801.95313 0.31288
2800.19531 0.31282
2798.43750 0.31281
2796.67969 0.31282
2794.92188 0.31286
2793.16406 0.31289
2791.40625 0.31283
2789.64844 0.31271
2787.89063 0.31260
2786.13281 0.31256
2784.37500 0.31249
2782.61719 0.31232
2780.85938 0.31211
2779.10156 0.31193
2777.34375 0.31186
2775.58594 0.31197
2773.82813 0.31216
2772.07031 0.31225
2770.31250 0.31213
2768.55469 0.31192
2766.79688 0.31177
2765.03906 0.31167
2763.28125 0.31158
2761.52344 0.31148
2759.76563 0.31137
2758.00781 0.31130
2756.25000 0.31129
2754.49219 0.31129
2752.73438 0.31129
2750.97656 0.31125
2749.21875 0.31117
2747.46094 0.31103
2745.70313 0.31089
2743.94531 0.31085
2742.18750 0.31095
2740.42969 0.31105
2738.67188 0.31097
2736.91406 0.31078
2735.15625 0.31064
2733.39844 0.31056
2731.64063 0.31051
2729.88281 0.31048
2728.12500 0.31046
2726.36719 0.31043
2724.60938 0.31045
2722.85156 0.31053
2721.09375 0.31061
2719.33594 0.31066
2717.57813 0.31066
2715.82031 0.31066
2714.06250 0.31072
2712.30469 0.31086
2710.54688 0.31096
2708.78906 0.31098
2707.03125 0.31093
2705.27344 0.31081
2703.51563 0.31067
2701.75781 0.31066
2700.00000 0.31078
2698.24219 0.31090
2696.48438 0.31098
2694.72656 0.31106
2692.96875 0.31107
2691.21094 0.31097
2689.45313 0.31089
2687.69531 0.31095
2685.93750 0.31110
2684.17969 0.31111
2682.42188 0.31088
2680.66406 0.31061
2678.90625 0.31045
2677.14844 0.31040
2675.39063 0.31041
2673.63281 0.31038
2671.87500 0.31030
2670.11719 0.31022
2668.35938 0.31019
2666.60156 0.31017
2664.84375 0.31011
2663.08594 0.31010
2661.32813 0.31019
2659.57031 0.31031
2657.81250 0.31029
2656.05469 0.31010
2654.29688 0.30992
2652.53906 0.30986
2650.78125 0.30994
2649.02344 0.31010
2647.26563 0.31025
2645.50781 0.31026
2643.75000 0.31016
2641.99219 0.31009
2640.23438 0.31018
2638.47656 0.31033
2636.71875 0.31042
2634.96094 0.31045
2633.20313 0.31046
2631.44531 0.31043
2629.68750 0.31036
2627.92969 0.31035
2626.17188 0.31042
2624.41406 0.31047
2622.65625 0.31038
2620.89844 0.31026
2619.14063 0.31023
2617.38281 0.31029
2615.62500 0.31038
2613.86719 0.31041
2612.10938 0.31032
2610.35156 0.31014
2608.59375 0.31000
2606.83594 0.30998
2605.07813 0.30998
2603.32031 0.30991
2601.56250 0.30982
2599.80469 0.30969
2598.04688 0.30952
2596.28906 0.30934
2594.53125 0.30927
2592.77344 0.30929
2591.01563 0.30931
2589.25781 0.30928
2587.50000 0.30926
2585.74219 0.30933
2583.98438 0.30940
2582.22656 0.30937
2580.46875 0.30926
2578.71094 0.30917
2576.95313 0.30910
2575.19531 0.30903
2573.43750 0.30901
2571.67969 0.30905
2569.92188 0.30909
2568.16406 0.30915
2566.40625 0.30924
2564.64844 0.30923
2562.89063 0.30904
2561.13281 0.30878
2559.37500 0.30857
2557.61719 0.30840
2555.85938 0.30829
2554.10156 0.30834
2552.34375 0.30848
2550.58594 0.30859
2548.82813 0.30855
2547.07031 0.30838
2545.31250 0.30824
2543.55469 0.30823
2541.79688 0.30825
2540.03906 0.30825
2538.28125 0.30830
2536.52344 0.30841
2534.76563 0.30849
2533.00781 0.30847
2531.25000 0.30837
2529.49219 0.30825
2527.73438 0.30814
2525.97656 0.30802
2524.21875 0.30794
2522.46094 0.30795
2520.70313 0.30807
2518.94531 0.30824
2517.18750 0.30828
2515.42969 0.30816
2513.67188 0.30806
2511.91406 0.30811
2510.15625 0.30825
2508.39844 0.30837
2506.64063 0.30843
2504.88281 0.30841
2503.12500 0.30828
2501.36719 0.30811
2499.60938 0.30798
2497.85156 0.30792
2496.09375 0.30794
2494.33594 0.30797
2492.57813 0.30797
2490.82031 0.30799
2489.06250 0.30805
2487.30469 0.30807
2485.54688 0.30797
2483.78906 0.30771
2482.03125 0.30747
2480.27344 0.30739
2478.51563 0.30740
2476.75781 0.30736
2475.00000 0.30737
2473.24219 0.30742
2471.48438 0.30739
2469.72656 0.30729
2467.96875 0.30720
2466.21094 0.30714
2464.45313 0.30704
2462.69531 0.30690
2460.93750 0.30681
2459.17969 0.30684
2457.42188 0.30694
2455.66406 0.30701
2453.90625 0.30701
2452.14844 0.30694
2450.39063 0.30688
2448.63281 0.30685
2446.87500 0.30679
2445.11719 0.30666
2443.35938 0.30658
2441.60156 0.30668
2439.84375 0.30689
2438.08594 0.30698
2436.32813 0.30697
2434.57031 0.30696
2432.81250 0.30688
2431.05469 0.30670
2429.29688 0.30651
2427.53906 0.30641
2425.78125 0.30632
2424.02344 0.30619
2422.26563 0.30604
2420.50781 0.30591
2418.75000 0.30588
2416.99219 0.30596
2415.23438 0.30605
2413.47656 0.30603
2411.71875 0.30596
2409.96094 0.30592
2408.20313 0.30590
2406.44531 0.30585
2404.68750 0.30574
2402.92969 0.30565
2401.17188 0.30558
2399.41406 0.30546
2397.65625 0.30531
2395.89844 0.30519
2394.14063 0.30501
2392.38281 0.30466
2390.62500 0.30416
2388.86719 0.30355
2387.10938 0.30284
2385.35156 0.30195
2383.59375 0.30084
2381.83594 0.29973
2380.07813 0.29871
2378.32031 0.29748
2376.56250 0.29584
2374.80469 0.29422
2373.04688 0.29288
2371.28906 0.29156
2369.53125 0.28999
2367.77344 0.28857
2366.01563 0.28830
2364.25781 0.28958
2362.50000 0.29174
2360.74219 0.29410
2358.98438 0.29613
2357.22656 0.29740
2355.46875 0.29763
2353.71094 0.29676
2351.95313 0.29529
2350.19531 0.29421
2348.43750 0.29378
2346.67969 0.29384
2344.92188 0.29417
2343.16406 0.29439
2341.40625 0.29450
2339.64844 0.29475
2337.89063 0.29515
2336.13281 0.29550
2334.37500 0.29577
2332.61719 0.29604
2330.85938 0.29636
2329.10156 0.29687
2327.34375 0.29760
2325.58594 0.29832
2323.82813 0.29883
2322.07031 0.29910
2320.31250 0.29922
2318.55469 0.29936
2316.79688 0.29960
2315.03906 0.29991
2313.28125 0.30024
2311.52344 0.30057
2309.76563 0.30085
2308.00781 0.30100
2306.25000 0.30099
2304.49219 0.30094
2302.73438 0.30102
2300.97656 0.30130
2299.21875 0.30161
2297.46094 0.30182
2295.70313 0.30194
2293.94531 0.30203
2292.18750 0.30209
2290.42969 0.30210
2288.67188 0.30204
2286.91406 0.30199
2285.15625 0.30200
2283.39844 0.30199
2281.64063 0.30187
2279.88281 0.30175
2278.12500 0.30175
2276.36719 0.30180
2274.60938 0.30180
2272.85156 0.30173
2271.09375 0.30160
2269.33594 0.30148
2267.57813 0.30140
2265.82031 0.30138
2264.06250 0.30136
2262.30469 0.30124
2260.54688 0.30108
2258.78906 0.30100
2257.03125 0.30098
2255.27344 0.30098
2253.51563 0.30097
2251.75781 0.30096
2250.00000 0.30091
2248.24219 0.30077
2246.48438 0.30062
2244.72656 0.30055
2242.96875 0.30047
2241.21094 0.30031
2239.45313 0.30022
2237.69531 0.30028
2235.93750 0.30037
2234.17969 0.30033
2232.42188 0.30021
2230.66406 0.30004
2228.90625 0.29983
2227.14844 0.29963
2225.39063 0.29955
2223.63281 0.29962
2221.87500 0.29973
2220.11719 0.29967
2218.35938 0.29943
2216.60156 0.29919
2214.84375 0.29896
2213.08594 0.29876
2211.32813 0.29867
2209.57031 0.29864
2207.81250 0.29855
2206.05469 0.29844
2204.29688 0.29834
2202.53906 0.29821
2200.78125 0.29807
2199.02344 0.29797
2197.26563 0.29800
2195.50781 0.29809
2193.75000 0.29810
2191.99219 0.29793
2190.23438 0.29771
2188.47656 0.29759
2186.71875 0.29758
2184.96094 0.29757
2183.20313 0.29756
2181.44531 0.29757
2179.68750 0.29752
2177.92969 0.29740
2176.17188 0.29728
2174.41406 0.29717
2172.65625 0.29708
2170.89844 0.29716
2169.14063 0.29743
2167.38281 0.29758
2165.62500 0.29747
2163.86719 0.29733
2162.10938 0.29726
2160.35156 0.29719
2158.59375 0.29713
2156.83594 0.29716
2155.07813 0.29720
2153.32031 0.29713
2151.56250 0.29696
2149.80469 0.29686
2148.04688 0.29683
2146.28906 0.29672
2144.53125 0.29652
2142.77344 0.29635
2141.01563 0.29621
2139.25781 0.29604
2137.50000 0.29583
2135.74219 0.29564
2133.98438 0.29550
2132.22656 0.29546
2130.46875 0.29546
2128.71094 0.29538
2126.95313 0.29519
2125.19531 0.29496
2123.43750 0.29480
2121.67969 0.29470
2119.92188 0.29463
2118.16406 0.29457
2116.40625 0.29445
2114.64844 0.29425
2112.89063 0.29399
2111.13281 0.29379
2109.37500 0.29381
2107.61719 0.29395
2105.85938 0.29397
2104.10156 0.29387
2102.34375 0.29370
2100.58594 0.29342
2098.82813 0.29315
2097.07031 0.29307
2095.31250 0.29315
2093.55469 0.29322
2091.79688 0.29323
2090.03906 0.29325
2088.28125 0.29326
2086.52344 0.29325
2084.76563 0.29326
2083.00781 0.29322
2081.25000 0.29309
2079.49219 0.29300
2077.73438 0.29303
2075.97656 0.29304
2074.21875 0.29292
2072.46094 0.29271
2070.70313 0.29256
2068.94531 0.29254
2067.18750 0.29258
2065.42969 0.29255
2063.67188 0.29245
2061.91406 0.29238
2060.15625 0.29232
2058.39844 0.29224
2056.64063 0.29220
2054.88281 0.29227
2053.12500 0.29235
2051.36719 0.29235
2049.60938 0.29235
2047.85156 0.29234
2046.09375 0.29229
2044.33594 0.29225
2042.57813 0.29220
2040.82031 0.29212
2039.06250 0.29206
2037.30469 0.29207
2035.54688 0.29213
2033.78906 0.29224
2032.03125 0.29238
2030.27344 0.29248
2028.51563 0.29253
2026.75781 0.29256
2025.00000 0.29256
2023.24219 0.29247
2021.48438 0.29232
2019.72656 0.29228
2017.96875 0.29234
2016.21094 0.29236
2014.45313 0.29225
2012.69531 0.29208
2010.93750 0.29193
2009.17969 0.29181
2007.42188 0.29172
2005.66406 0.29164
2003.90625 0.29154
2002.14844 0.29149
2000.39063 0.29160
1998.63281 0.29167
1996.87500 0.29146
1995.11719 0.29111
1993.35938 0.29080
1991.60156 0.29052
1989.84375 0.29022
1988.08594 0.28994
1986.32813 0.28976
1984.57031 0.28971
1982.81250 0.28973
1981.05469 0.28978
1979.29688 0.28978
1977.53906 0.28975
1975.78125 0.28978
1974.02344 0.28983
1972.26563 0.28973
1970.50781 0.28953
1968.75000 0.28938
1966.99219 0.28924
1965.23438 0.28901
1963.47656 0.28882
1961.71875 0.28888
1959.96094 0.28908
1958.20313 0.28916
1956.44531 0.28904
1954.68750 0.28892
1952.92969 0.28898
1951.17188 0.28918
1949.41406 0.28925
1947.65625 0.28904
1945.89844 0.28879
1944.14063 0.28874
1942.38281 0.28877
1940.62500 0.28873
1938.86719 0.28859
1937.10938 0.28842
1935.35156 0.28834
1933.59375 0.28842
1931.83594 0.28869
1930.07813 0.28900
1928.32031 0.28908
1926.56250 0.28899
1924.80469 0.28888
1923.04688 0.28872
1921.28906 0.28853
1919.53125 0.28848
1917.77344 0.28860
1916.01563 0.28871
1914.25781 0.28858
1912.50000 0.28829
1910.74219 0.28813
1908.98438 0.28811
1907.22656 0.28808
1905.46875 0.28800
1903.71094 0.28802
1901.95313 0.28812
1900.19531 0.28814
1898.43750 0.28811
1896.67969 0.28806
1894.92188 0.28787
1893.16406 0.28766
1891.40625 0.28762
1889.64844 0.28766
1887.89063 0.28762
1886.13281 0.28755
1884.37500 0.28745
1882.61719 0.28731
1880.85938 0.28721
1879.10156 0.28739
1877.34375 0.28802
1875.58594 0.28879
1873.82813 0.28890
1872.07031 0.28831
1870.31250 0.28773
1868.55469 0.28743
1866.79688 0.28739
1865.03906 0.28752
1863.28125 0.28769
1861.52344 0.28780
1859.76563 0.28788
1858.00781 0.28800
1856.25000 0.28823
1854.49219 0.28855
1852.73438 0.28894
1850.97656 0.28918
1849.21875 0.28900
1847.46094 0.28869
1845.70313 0.28860
1843.94531 0.28865
1842.18750 0.28865
1840.42969 0.28862
1838.67188 0.28885
1836.91406 0.28926
1835.15625 0.28938
1833.39844 0.28919
1831.64063 0.28908
1829.88281 0.28897
1828.12500 0.28877
1826.36719 0.28862
1824.60938 0.28852
1822.85156 0.28838
1821.09375 0.28837
1819.33594 0.28871
1817.57813 0.28926
1815.82031 0.28961
1814.06250 0.28958
1812.30469 0.28947
1810.54688 0.28951
1808.78906 0.28970
1807.03125 0.28988
1805.27344 0.29002
1803.51563 0.29028
1801.75781 0.29069
1800.00000 0.29115
1798.24219 0.29131
1796.48438 0.29080
1794.72656 0.29015
1792.96875 0.28984
1791.21094 0.28979
1789.45313 0.28985
1787.69531 0.28999
1785.93750 0.29010
1784.17969 0.29010
1782.42188 0.29027
1780.66406 0.29085
1778.90625 0.29153
1777.14844 0.29161
1775.39063 0.29111
1773.63281 0.29067
1771.87500 0.29047
1770.11719 0.29058
1768.35938 0.29087
1766.60156 0.29101
1764.84375 0.29103
1763.08594 0.29111
1761.32813 0.29118
1759.57031 0.29138
1757.81250 0.29196
1756.05469 0.29290
1754.29688 0.29361
1752.53906 0.29365
1750.78125 0.29338
1749.02344 0.29317
1747.26563 0.29312
1745.50781 0.29315
1743.75000 0.29324
1741.99219 0.29358
1740.23438 0.29418
1738.47656 0.29432
1736.71875 0.29377
1734.96094 0.29315
1733.20313 0.29278
1731.44531 0.29287
1729.68750 0.29331
1727.92969 0.29383
1726.17188 0.29454
1724.41406 0.29565
1722.65625 0.29651
1720.89844 0.29598
1719.14063 0.29506
1717.38281 0.29458
1715.62500 0.29449
1713.86719 0.29480
1712.10938 0.29548
1710.35156 0.29606
1708.59375 0.29623
1706.83594 0.29627
1705.07813 0.29649
1703.32031 0.29659
1701.56250 0.29587
1699.80469 0.29471
1698.04688 0.29422
1696.28906 0.29443
1694.53125 0.29483
1692.77344 0.29520
1691.01563 0.29568
1689.25781 0.29581
1687.50000 0.29503
1685.74219 0.29430
1683.98438 0.29395
1682.22656 0.29380
1680.46875 0.29368
1678.71094 0.29373
1676.95313 0.29424
1675.19531 0.29468
1673.43750 0.29403
1671.67969 0.29317
1669.92188 0.29291
1668.16406 0.29293
1666.40625 0.29264
1664.64844 0.29233
1662.89063 0.29252
1661.13281 0.29319
1659.37500 0.29380
1657.61719 0.29341
1655.85938 0.29319
1654.10156 0.29363
1652.34375 0.29353
1650.58594 0.29211
1648.82813 0.29091
1647.07031 0.29045
1645.31250 0.29055
1643.55469 0.29112
1641.79688 0.29141
1640.03906 0.29021
1638.28125 0.28886
1636.52344 0.28834
1634.76563 0.28826
1633.00781 0.28829
1631.25000 0.28833
1629.49219 0.28824
1627.73438 0.28770
1625.97656 0.28720
1624.21875 0.28728
1622.46094 0.28765
1620.70313 0.28765
1618.94531 0.28756
1617.18750 0.28785
1615.42969 0.28849
1613.67188 0.28914
1611.91406 0.28963
1610.15625 0.29010
1608.39844 0.29056
1606.64063 0.29085
1604.88281 0.29096
1603.12500 0.29102
1601.36719 0.29118
1599.60938 0.29135
1597.85156 0.29135
1596.09375 0.29114
1594.33594 0.29083
1592.57813 0.29056
1590.82031 0.29043
1589.06250 0.29036
1587.30469 0.29028
1585.54688 0.29037
1583.78906 0.29085
1582.03125 0.29141
1580.27344 0.29110
1578.51563 0.29044
1576.75781 0.29035
1575.00000 0.29055
1573.24219 0.29046
1571.48438 0.29020
1569.72656 0.29010
1567.96875 0.29020
1566.21094 0.29067
1564.45313 0.29158
1562.69531 0.29176
1560.93750 0.29107
1559.17969 0.29035
1557.42188 0.28983
1555.66406 0.28962
1553.90625 0.28955
1552.14844 0.28971
1550.39063 0.29042
1548.63281 0.29170
1546.87500 0.29295
1545.11719 0.29244
1543.35938 0.29056
1541.60156 0.28991
1539.84375 0.29020
1538.08594 0.29033
1536.32813 0.28983
1534.57031 0.28959
1532.81250 0.29007
1531.05469 0.29076
1529.29688 0.29115
1527.53906 0.29141
1525.78125 0.29136
1524.02344 0.29092
1522.26563 0.29046
1520.50781 0.28992
1518.75000 0.28948
1516.99219 0.28953
1515.23438 0.29025
1513.47656 0.29144
1511.71875 0.29128
1509.96094 0.28917
1508.20313 0.28811
1506.44531 0.28806
1504.68750 0.28849
1502.92969 0.28895
1501.17188 0.28874
1499.41406 0.28814
1497.65625 0.28806
1495.89844 0.28872
1494.14063 0.28936
1492.38281 0.28878
1490.62500 0.28771
1488.86719 0.28712
1487.10938 0.28703
1485.35156 0.28712
1483.59375 0.28728
1481.83594 0.28777
1480.07813 0.28881
1478.32031 0.29006
1476.56250 0.29046
1474.80469 0.29027
1473.04688 0.29052
1471.28906 0.29133
1469.53125 0.29215
1467.77344 0.29259
1466.01563 0.29318
1464.25781 0.29447
1462.50000 0.29608
1460.74219 0.29609
1458.98438 0.29509
1457.22656 0.29446
1455.46875 0.29421
1453.71094 0.29424
1451.95313 0.29436
1450.19531 0.29433
1448.43750 0.29424
1446.67969 0.29426
1444.92188 0.29456
1443.16406 0.29521
1441.40625 0.29580
1439.64844 0.29565
1437.89063 0.29525
1436.13281 0.29513
1434.37500 0.29508
1432.61719 0.29493
1430.85938 0.29493
1429.10156 0.29512
1427.34375 0.29534
1425.58594 0.29558
1423.82813 0.29564
1422.07031 0.29508
1420.31250 0.29442
1418.55469 0.29414
1416.79688 0.29408
1415.03906 0.29392
1413.28125 0.29362
1411.52344 0.29339
1409.76563 0.29321
1408.00781 0.29292
1406.25000 0.29278
1404.49219 0.29299
1402.73438 0.29326
1400.97656 0.29314
1399.21875 0.29236
1397.46094 0.29126
1395.70313 0.29046
1393.94531 0.29010
1392.18750 0.28981
1390.42969 0.28926
1388.67188 0.28864
1386.91406 0.28827
1385.15625 0.28814
1383.39844 0.28817
1381.64063 0.28830
1379.88281 0.28839
1378.12500 0.28799
1376.36719 0.28721
1374.60938 0.28660
1372.85156 0.28620
1371.09375 0.28590
1369.33594 0.28583
1367.57813 0.28583
1365.82031 0.28542
1364.06250 0.28475
1362.30469 0.28431
1360.54688 0.28412
1358.78906 0.28398
1357.03125 0.28377
1355.27344 0.28355
1353.51563 0.28336
1351.75781 0.28322
1350.00000 0.28315
1348.24219 0.28318
1346.48438 0.28340
1344.72656 0.28368
1342.96875 0.28355
1341.21094 0.28298
1339.45313 0.28247
1337.69531 0.28217
1335.93750 0.28195
1334.17969 0.28171
1332.42188 0.28146
1330.66406 0.28118
1328.90625 0.28089
1327.14844 0.28061
1325.39063 0.28035
1323.63281 0.28006
1321.87500 0.27974
1320.11719 0.27963
1318.35938 0.27989
1316.60156 0.28032
1314.84375 0.28068
1313.08594 0.28100
1311.32813 0.28126
1309.57031 0.28141
1307.81250 0.28154
1306.05469 0.28166
1304.29688 0.28166
1302.53906 0.28157
1300.78125 0.28152
1299.02344 0.28153
1297.26563 0.28150
1295.50781 0.28146
1293.75000 0.28148
1291.99219 0.28156
1290.23438 0.28162
1288.47656 0.28162
1286.71875 0.28156
1284.96094 0.28146
1283.20313 0.28137
1281.44531 0.28134
1279.68750 0.28136
1277.92969 0.28143
1276.17188 0.28160
1274.41406 0.28189
1272.65625 0.28229
1270.89844 0.28283
1269.14063 0.28349
1267.38281 0.28413
1265.62500 0.28461
1263.86719 0.28485
1262.10938 0.28486
1260.35156 0.28465
1258.59375 0.28431
1256.83594 0.28403
1255.07813 0.28394
1253.32031 0.28399
1251.56250 0.28409
1249.80469 0.28412
1248.04688 0.28409
1246.28906 0.28408
1244.53125 0.28416
1242.77344 0.28426
1241.01563 0.28431
1239.25781 0.28432
1237.50000 0.28435
1235.74219 0.28436
1233.98438 0.28434
1232.22656 0.28435
1230.46875 0.28441
1228.71094 0.28453
1226.95313 0.28469
1225.19531 0.28481
1223.43750 0.28484
1221.67969 0.28483
1219.92188 0.28482
1218.16406 0.28476
1216.40625 0.28464
1214.64844 0.28451
1212.89063 0.28445
1211.13281 0.28447
1209.37500 0.28449
1207.61719 0.28446
1205.85938 0.28437
1204.10156 0.28430
1202.34375 0.28425
1200.58594 0.28423
1198.82813 0.28423
1197.07031 0.28429
1195.31250 0.28441
1193.55469 0.28455
1191.79688 0.28473
1190.03906 0.28498
1188.28125 0.28524
1186.52344 0.28556
1184.76563 0.28597
1183.00781 0.28634
1181.25000 0.28658
1179.49219 0.28678
1177.73438 0.28703
1175.97656 0.28733
1174.21875 0.28767
1172.46094 0.28799
1170.70313 0.28824
1168.94531 0.28843
1167.18750 0.28865
1165.42969 0.28890
1163.67188 0.28908
1161.91406 0.28918
1160.15625 0.28925
1158.39844 0.28933
1156.64063 0.28944
1154.88281 0.28961
1153.12500 0.28983
1151.36719 0.29001
1149.60938 0.29017
1147.85156 0.29042
1146.09375 0.29070
1144.33594 0.29090
1142.57813 0.29114
1140.82031 0.29156
1139.06250 0.29208
1137.30469 0.29253
1135.54688 0.29288
1133.78906 0.29322
1132.03125 0.29356
1130.27344 0.29388
1128.51563 0.29422
1126.75781 0.29462
1125.00000 0.29508
1123.24219 0.29564
1121.48438 0.29620
1119.72656 0.29663
1117.96875 0.29692
1116.21094 0.29722
1114.45313 0.29758
1112.69531 0.29797
1110.93750 0.29835
1109.17969 0.29875
1107.42188 0.29919
1105.66406 0.29972
1103.90625 0.30026
1102.14844 0.30068
1100.39063 0.30090
1098.63281 0.30104
1096.87500 0.30119
1095.11719 0.30135
1093.35938 0.30151
1091.60156 0.30165
1089.84375 0.30164
1088.08594 0.30149
1086.32813 0.30133
1084.57031 0.30125
1082.81250 0.30115
1081.05469 0.30102
1079.29688 0.30095
1077.53906 0.30085
1075.78125 0.30065
1074.02344 0.30042
1072.26563 0.30030
1070.50781 0.30025
1068.75000 0.30014
1066.99219 0.29996
1065.23438 0.29982
1063.47656 0.29977
1061.71875 0.29976
1059.96094 0.29966
1058.20313 0.29945
1056.44531 0.29922
1054.68750 0.29900
1052.92969 0.29870
1051.17188 0.29841
1049.41406 0.29827
1047.65625 0.29822
1045.89844 0.29808
1044.14063 0.29788
1042.38281 0.29770
1040.62500 0.29747
1038.86719 0.29720
1037.10938 0.29698
1035.35156 0.29679
1033.59375 0.29657
1031.83594 0.29630
1030.07813 0.29591
1028.32031 0.29539
1026.56250 0.29483
1024.80469 0.29436
1023.04688 0.29404
1021.28906 0.29385
1019.53125 0.29373
1017.77344 0.29361
1016.01563 0.29346
1014.25781 0.29328
1012.50000 0.29310
1010.74219 0.29294
1008.98438 0.29283
1007.22656 0.29274
1005.46875 0.29268
1003.71094 0.29272
1001.95313 0.29282
1000.19531 0.29294
998.43750 0.29308
996.67969 0.29325
994.92188 0.29341
993.16406 0.29355
991.40625 0.29374
989.64844 0.29395
987.89063 0.29416
986.13281 0.29447
984.37500 0.29486
982.61719 0.29511
980.85938 0.29520
979.10156 0.29534
977.34375 0.29567
975.58594 0.29606
973.82813 0.29639
972.07031 0.29675
970.31250 0.29722
968.55469 0.29766
966.79688 0.29797
965.03906 0.29823
963.28125 0.29847
961.52344 0.29872
959.76563 0.29902
958.00781 0.29942
956.25000 0.29981
954.49219 0.30012
952.73438 0.30046
950.97656 0.30088
949.21875 0.30124
947.46094 0.30145
945.70313 0.30152
943.94531 0.30150
942.18750 0.30145
940.42969 0.30141
938.67188 0.30136
936.91406 0.30126
935.15625 0.30097
933.39844 0.30058
931.64063 0.30020
929.88281 0.29986
928.12500 0.29956
926.36719 0.29927
924.60938 0.29900
922.85156 0.29882
921.09375 0.29870
919.33594 0.29845
917.57813 0.29808
915.82031 0.29770
914.06250 0.29730
912.30469 0.29684
910.54688 0.29641
908.78906 0.29608
907.03125 0.29572
905.27344 0.29530
903.51563 0.29490
901.75781 0.29457
900.00000 0.29425
898.24219 0.29393
896.48438 0.29377
894.72656 0.29382
892.96875 0.29393
891.21094 0.29402
889.45313 0.29408
887.69531 0.29404
885.93750 0.29393
884.17969 0.29392
882.42188 0.29400
880.66406 0.29397
878.90625 0.29370
877.14844 0.29333
875.39063 0.29294
873.63281 0.29246
871.87500 0.29195
870.11719 0.29156
868.35938 0.29130
866.60156 0.29111
864.84375 0.29103
863.08594 0.29114
861.32813 0.29149
859.57031 0.29215
857.81250 0.29309
856.05469 0.29422
854.29688 0.29552
852.53906 0.29689
850.78125 0.29795
849.02344 0.29834
847.26563 0.29831
845.50781 0.29835
843.75000 0.29833
841.99219 0.29785
840.23438 0.29706
838.47656 0.29643
836.71875 0.29613
834.96094 0.29591
833.20313 0.29561
831.44531 0.29515
829.68750 0.29461
827.92969 0.29423
826.17188 0.29411
824.41406 0.29408
822.65625 0.29401
820.89844 0.29384
819.14063 0.29340
817.38281 0.29269
815.62500 0.29199
813.86719 0.29153
812.10938 0.29137
810.35156 0.29135
808.59375 0.29133
806.83594 0.29129
805.07813 0.29128
803.32031 0.29121
801.56250 0.29102
799.80469 0.29049
798.04688 0.28931
796.28906 0.28774
794.53125 0.28643
792.77344 0.28538
791.01563 0.28419
789.25781 0.28296
787.50000 0.28200
785.74219 0.28129
783.98438 0.28063
782.22656 0.28008
780.46875 0.27974
778.71094 0.27952
776.95313 0.27925
775.19531 0.27907
773.43750 0.27910
771.67969 0.27920
769.92188 0.27932
768.16406 0.27959
766.40625 0.27995
764.64844 0.28020
762.89063 0.28037
761.13281 0.28067
759.37500 0.28131
757.61719 0.28230
755.85938 0.28337
754.10156 0.28423
752.34375 0.28472
750.58594 0.28469
748.82813 0.28418
747.07031 0.28364
745.31250 0.28336
743.55469 0.28306
741.79688 0.28261
740.03906 0.28226
738.28125 0.28208
736.52344 0.28215
734.76563 0.28239
733.00781 0.28248
731.25000 0.28246
729.49219 0.28276
727.73438 0.28326
725.97656 0.28346
724.21875 0.28328
722.46094 0.28301
720.70313 0.28286
718.94531 0.28297
717.18750 0.28339
715.42969 0.28414
713.67188 0.28537
711.91406 0.28697
710.15625 0.28831
708.39844 0.28900
706.64063 0.28912
704.88281 0.28863
703.12500 0.28779
701.36719 0.28762
699.60938 0.28840
697.85156 0.28906
696.09375 0.28898
694.33594 0.28849
692.57813 0.28769
690.82031 0.28660
689.06250 0.28551
687.30469 0.28469
685.54688 0.28404
683.78906 0.28365
682.03125 0.28397
680.27344 0.28507
678.51563 0.28581
676.75781 0.28537
675.00000 0.28497
673.24219 0.28578
671.48438 0.28654
669.72656 0.28549
667.96875 0.28495
666.21094 0.28639
664.45313 0.28795
662.69531 0.28734
660.93750 0.28505
659.17969 0.28368
657.42188 0.28316
655.66406 0.28188
653.90625 0.28015
652.14844 0.27888
650.39063 0.27814
648.63281 0.27757
646.87500 0.27674
645.11719 0.27574
643.35938 0.27465
641.60156 0.27326
639.84375 0.27110
638.08594 0.26674
636.32813 0.26070
634.57031 0.25666
632.81250 0.25551
631.05469 0.25501
629.29688 0.25467
627.53906 0.25420
625.78125 0.25244
624.02344 0.25055
622.26563 0.25022
620.50781 0.25123
618.75000 0.25122
616.99219 0.24668
615.23438 0.23867
613.47656 0.23213
611.71875 0.22849
609.96094 0.22705
608.20313 0.22775
606.44531 0.22845
604.68750 0.22757
602.92969 0.22694
601.17188 0.22695
599.41406 0.22766
