3996.50324 0.01996
3994.45480 0.01990
3992.40636 0.01991
3990.35792 0.01993
3988.30948 0.01990
3986.26104 0.01990
3984.21261 0.01991
3982.16417 0.01987
3980.11573 0.01984
3978.06729 0.01983
3976.01885 0.01982
3973.97041 0.01980
3971.92198 0.01979
3969.87354 0.01977
3967.82510 0.01973
3965.77666 0.01977
3963.72822 0.01984
3961.67978 0.01981
3959.63135 0.01974
3957.58291 0.01971
3955.53447 0.01970
3953.48603 0.01975
3951.43759 0.01983
3949.38915 0.01980
3947.34072 0.01971
3945.29228 0.01977
3943.24384 0.01980
3941.19540 0.01966
3939.14696 0.01964
3937.09852 0.01973
3935.05009 0.01985
3933.00165 0.01987
3930.95321 0.01973
3928.90477 0.01970
3926.85633 0.01986
3924.80789 0.01989
3922.75946 0.01983
3920.71102 0.01990
3918.66258 0.01991
3916.61414 0.01974
3914.56570 0.01965
3912.51726 0.01976
3910.46883 0.01990
3908.42039 0.02011
3906.37195 0.02038
3904.32351 0.02037
3902.27507 0.02002
3900.22663 0.01971
3898.17820 0.01951
3896.12976 0.01967
3894.08132 0.02004
3892.03288 0.02004
3889.98444 0.01976
3887.93600 0.01993
3885.88756 0.02010
3883.83913 0.01997
3881.79069 0.01995
3879.74225 0.01978
3877.69381 0.01981
3875.64537 0.02014
3873.59693 0.02027
3871.54850 0.02021
3869.50006 0.01991
3867.45162 0.01977
3865.40318 0.01993
3863.35474 0.01982
3861.30630 0.01973
3859.25787 0.01998
3857.20943 0.02041
3855.16099 0.02076
3853.11255 0.02003
3851.06411 0.01927
3849.01567 0.01947
3846.96724 0.01986
3844.91880 0.02014
3842.87036 0.02023
3840.82192 0.02026
3838.77348 0.02013
3836.72504 0.01977
3834.67661 0.01968
3832.62817 0.01972
3830.57973 0.01973
3828.53129 0.01979
3826.48285 0.01984
3824.43441 0.01998
3822.38598 0.02016
3820.33754 0.01972
3818.28910 0.01946
3816.24066 0.01943
3814.19222 0.01923
3812.14378 0.01937
3810.09535 0.01970
3808.04691 0.01981
3805.99847 0.01955
3803.95003 0.01955
3801.90159 0.01954
3799.85315 0.01918
3797.80472 0.01910
3795.75628 0.01899
3793.70784 0.01895
3791.65940 0.01908
3789.61096 0.01916
3787.56252 0.01917
3785.51409 0.01910
3783.46565 0.01897
3781.41721 0.01897
3779.36877 0.01883
3777.32033 0.01855
3775.27189 0.01855
3773.22346 0.01873
3771.17502 0.01878
3769.12658 0.01852
3767.07814 0.01831
3765.02970 0.01819
3762.98126 0.01818
3760.93283 0.01829
3758.88439 0.01808
3756.83595 0.01780
3754.78751 0.01796
3752.73907 0.01826
3750.69063 0.01787
3748.64219 0.01729
3746.59376 0.01731
3744.54532 0.01696
3742.49688 0.01647
3740.44844 0.01658
3738.40000 0.01690
3736.35156 0.01684
3734.30313 0.01605
3732.25469 0.01545
3730.20625 0.01538
3728.15781 0.01541
3726.10937 0.01520
3724.06093 0.01478
3722.01250 0.01437
3719.96406 0.01395
3717.91562 0.01360
3715.86718 0.01343
3713.81874 0.01336
3711.77030 0.01298
3709.72187 0.01216
3707.67343 0.01166
3705.62499 0.01144
3703.57655 0.01121
3701.52811 0.01074
3699.47967 0.01027
3697.43124 0.00997
3695.38280 0.00976
3693.33436 0.00963
3691.28592 0.00942
3689.23748 0.00883
3687.18904 0.00826
3685.14061 0.00800
3683.09217 0.00785
3681.04373 0.00769
3678.99529 0.00749
3676.94685 0.00719
3674.89841 0.00666
3672.84998 0.00637
3670.80154 0.00619
3668.75310 0.00580
3666.70466 0.00552
3664.65622 0.00536
3662.60778 0.00517
3660.55935 0.00500
3658.51091 0.00484
3656.46247 0.00461
3654.41403 0.00438
3652.36559 0.00431
3650.31715 0.00423
3648.26872 0.00392
3646.22028 0.00370
3644.17184 0.00364
3642.12340 0.00363
3640.07496 0.00361
3638.02652 0.00356
3635.97809 0.00346
3633.92965 0.00337
3631.88121 0.00335
3629.83277 0.00336
3627.78433 0.00328
3625.73589 0.00321
3623.68746 0.00319
3621.63902 0.00320
3619.59058 0.00322
3617.54214 0.00318
3615.49370 0.00316
3613.44526 0.00316
3611.39682 0.00314
3609.34839 0.00309
3607.29995 0.00305
3605.25151 0.00300
3603.20307 0.00297
3601.15463 0.00296
3599.10619 0.00297
3597.05776 0.00298
3595.00932 0.00299
3592.96088 0.00298
3590.91244 0.00301
3588.86400 0.00310
3586.81556 0.00308
3584.76713 0.00299
3582.71869 0.00296
3580.67025 0.00295
3578.62181 0.00293
3576.57337 0.00294
3574.52493 0.00296
3572.47650 0.00293
3570.42806 0.00290
3568.37962 0.00291
3566.33118 0.00290
3564.28274 0.00286
3562.23430 0.00285
3560.18587 0.00284
3558.13743 0.00281
3556.08899 0.00284
3554.04055 0.00286
3551.99211 0.00282
3549.94367 0.00279
3547.89524 0.00278
3545.84680 0.00276
3543.79836 0.00275
3541.74992 0.00279
3539.70148 0.00283
3537.65304 0.00283
3535.60461 0.00281
3533.55617 0.00279
3531.50773 0.00280
3529.45929 0.00284
3527.41085 0.00285
3525.36241 0.00281
3523.31398 0.00277
3521.26554 0.00274
3519.21710 0.00274
3517.16866 0.00277
3515.12022 0.00281
3513.07178 0.00280
3511.02335 0.00280
3508.97491 0.00278
3506.92647 0.00276
3504.87803 0.00280
3502.82959 0.00284
3500.78115 0.00284
3498.73272 0.00282
3496.68428 0.00281
3494.63584 0.00280
3492.58740 0.00279
3490.53896 0.00280
3488.49052 0.00279
3486.44209 0.00277
3484.39365 0.00276
3482.34521 0.00278
3480.29677 0.00280
3478.24833 0.00280
3476.19989 0.00279
3474.15146 0.00276
3472.10302 0.00275
3470.05458 0.00275
3468.00614 0.00273
3465.95770 0.00272
3463.90926 0.00275
3461.86082 0.00277
3459.81239 0.00277
3457.76395 0.00275
3455.71551 0.00275
3453.66707 0.00276
3451.61863 0.00278
3449.57019 0.00276
3447.52176 0.00274
3445.47332 0.00275
3443.42488 0.00278
3441.37644 0.00278
3439.32800 0.00277
3437.27956 0.00278
3435.23113 0.00277
3433.18269 0.00274
3431.13425 0.00274
3429.08581 0.00276
3427.03737 0.00277
3424.98893 0.00276
3422.94050 0.00274
3420.89206 0.00273
3418.84362 0.00275
3416.79518 0.00278
3414.74674 0.00281
3412.69830 0.00282
3410.64987 0.00283
3408.60143 0.00284
3406.55299 0.00282
3404.50455 0.00279
3402.45611 0.00279
3400.40767 0.00277
3398.35924 0.00273
3396.31080 0.00275
3394.26236 0.00280
3392.21392 0.00282
3390.16548 0.00279
3388.11704 0.00277
3386.06861 0.00278
3384.02017 0.00277
3381.97173 0.00275
3379.92329 0.00277
3377.87485 0.00281
3375.82641 0.00284
3373.77798 0.00283
3371.72954 0.00281
3369.68110 0.00283
3367.63266 0.00288
3365.58422 0.00292
3363.53578 0.00292
3361.48735 0.00290
3359.43891 0.00287
3357.39047 0.00285
3355.34203 0.00282
3353.29359 0.00282
3351.24515 0.00286
3349.19672 0.00289
3347.14828 0.00290
3345.09984 0.00288
3343.05140 0.00286
3341.00296 0.00286
3338.95452 0.00288
3336.90609 0.00290
3334.85765 0.00291
3332.80921 0.00295
3330.76077 0.00297
3328.71233 0.00296
3326.66389 0.00297
3324.61545 0.00297
3322.56702 0.00295
3320.51858 0.00293
3318.47014 0.00294
3316.42170 0.00296
3314.37326 0.00299
3312.32482 0.00303
3310.27639 0.00305
3308.22795 0.00303
3306.17951 0.00300
3304.13107 0.00299
3302.08263 0.00300
3300.03419 0.00302
3297.98576 0.00305
3295.93732 0.00304
3293.88888 0.00302
3291.84044 0.00303
3289.79200 0.00306
3287.74356 0.00308
3285.69513 0.00307
3283.64669 0.00307
3281.59825 0.00309
3279.54981 0.00312
3277.50137 0.00315
3275.45293 0.00315
3273.40450 0.00315
3271.35606 0.00316
3269.30762 0.00317
3267.25918 0.00317
3265.21074 0.00315
3263.16230 0.00314
3261.11387 0.00314
3259.06543 0.00315
3257.01699 0.00316
3254.96855 0.00315
3252.92011 0.00314
3250.87167 0.00318
3248.82324 0.00322
3246.77480 0.00324
3244.72636 0.00322
3242.67792 0.00321
3240.62948 0.00319
3238.58104 0.00318
3236.53261 0.00319
3234.48417 0.00319
3232.43573 0.00321
3230.38729 0.00324
3228.33885 0.00325
3226.29041 0.00325
3224.24198 0.00325
3222.19354 0.00326
3220.14510 0.00328
3218.09666 0.00327
3216.04822 0.00327
3213.99978 0.00330
3211.95135 0.00335
3209.90291 0.00337
3207.85447 0.00338
3205.80603 0.00339
3203.75759 0.00338
3201.70915 0.00339
3199.66072 0.00339
3197.61228 0.00338
3195.56384 0.00339
3193.51540 0.00345
3191.46696 0.00351
3189.41852 0.00354
3187.37008 0.00352
3185.32165 0.00353
3183.27321 0.00357
3181.22477 0.00361
3179.17633 0.00365
3177.12789 0.00365
3175.07945 0.00366
3173.03102 0.00368
3170.98258 0.00368
3168.93414 0.00370
3166.88570 0.00373
3164.83726 0.00376
3162.78882 0.00378
3160.74039 0.00381
3158.69195 0.00384
3156.64351 0.00386
3154.59507 0.00389
3152.54663 0.00391
3150.49819 0.00393
3148.44976 0.00395
3146.40132 0.00398
3144.35288 0.00402
3142.30444 0.00408
3140.25600 0.00411
3138.20756 0.00411
3136.15913 0.00413
3134.11069 0.00417
3132.06225 0.00417
3130.01381 0.00419
3127.96537 0.00424
3125.91693 0.00429
3123.86850 0.00431
3121.82006 0.00433
3119.77162 0.00436
3117.72318 0.00440
3115.67474 0.00443
3113.62630 0.00442
3111.57787 0.00443
3109.52943 0.00447
3107.48099 0.00454
3105.43255 0.00459
3103.38411 0.00461
3101.33567 0.00464
3099.28724 0.00467
3097.23880 0.00469
3095.19036 0.00472
3093.14192 0.00476
3091.09348 0.00481
3089.04504 0.00485
3086.99661 0.00489
3084.94817 0.00493
3082.89973 0.00497
3080.85129 0.00499
3078.80285 0.00504
3076.75441 0.00509
3074.70598 0.00514
3072.65754 0.00519
3070.60910 0.00526
3068.56066 0.00533
3066.51222 0.00535
3064.46378 0.00537
3062.41535 0.00539
3060.36691 0.00542
3058.31847 0.00546
3056.27003 0.00551
3054.22159 0.00557
3052.17315 0.00563
3050.12471 0.00570
3048.07628 0.00576
3046.02784 0.00579
3043.97940 0.00582
3041.93096 0.00586
3039.88252 0.00592
3037.83408 0.00598
3035.78565 0.00603
3033.73721 0.00608
3031.68877 0.00612
3029.64033 0.00616
3027.59189 0.00620
3025.54345 0.00625
3023.49502 0.00630
3021.44658 0.00634
3019.39814 0.00639
3017.34970 0.00644
3015.30126 0.00650
3013.25282 0.00656
3011.20439 0.00663
3009.15595 0.00666
3007.10751 0.00669
3005.05907 0.00675
3003.01063 0.00680
3000.96219 0.00685
2998.91376 0.00690
2996.86532 0.00693
2994.81688 0.00695
2992.76844 0.00696
2990.72000 0.00697
2988.67156 0.00699
2986.62313 0.00700
2984.57469 0.00698
2982.52625 0.00695
2980.47781 0.00690
2978.42937 0.00685
2976.38093 0.00681
2974.33250 0.00672
2972.28406 0.00658
2970.23562 0.00640
2968.18718 0.00619
2966.13874 0.00597
2964.09030 0.00579
2962.04187 0.00567
2959.99343 0.00560
2957.94499 0.00556
2955.89655 0.00554
2953.84811 0.00557
2951.79967 0.00561
2949.75124 0.00566
2947.70280 0.00570
2945.65436 0.00572
2943.60592 0.00572
2941.55748 0.00567
2939.50904 0.00555
2937.46061 0.00539
2935.41217 0.00523
2933.36373 0.00506
2931.31529 0.00492
2929.26685 0.00482
2927.21841 0.00476
2925.16998 0.00472
2923.12154 0.00471
2921.07310 0.00476
2919.02466 0.00488
2916.97622 0.00507
2914.92778 0.00526
2912.87934 0.00546
2910.83091 0.00566
2908.78247 0.00584
2906.73403 0.00601
2904.68559 0.00617
2902.63715 0.00634
2900.58871 0.00649
2898.54028 0.00664
2896.49184 0.00680
2894.44340 0.00696
2892.39496 0.00713
2890.34652 0.00732
2888.29808 0.00749
2886.24965 0.00767
2884.20121 0.00783
2882.15277 0.00796
2880.10433 0.00801
2878.05589 0.00796
2876.00745 0.00783
2873.95902 0.00769
2871.91058 0.00760
2869.86214 0.00757
2867.81370 0.00759
2865.76526 0.00758
2863.71682 0.00748
2861.66839 0.00730
2859.61995 0.00707
2857.57151 0.00684
2855.52307 0.00667
2853.47463 0.00663
2851.42619 0.00674
2849.37776 0.00705
2847.32932 0.00752
2845.28088 0.00805
2843.23244 0.00859
2841.18400 0.00913
2839.13556 0.00966
2837.08713 0.01014
2835.03869 0.01055
2832.99025 0.01091
2830.94181 0.01124
2828.89337 0.01150
2826.84493 0.01169
2824.79650 0.01186
2822.74806 0.01202
2820.69962 0.01219
2818.65118 0.01235
2816.60274 0.01249
2814.55430 0.01262
2812.50587 0.01272
2810.45743 0.01280
2808.40899 0.01290
2806.36055 0.01303
2804.31211 0.01316
2802.26367 0.01329
2800.21524 0.01338
2798.16680 0.01345
2796.11836 0.01353
2794.06992 0.01363
2792.02148 0.01373
2789.97304 0.01382
2787.92461 0.01391
2785.87617 0.01400
2783.82773 0.01407
2781.77929 0.01418
2779.73085 0.01430
2777.68241 0.01439
2775.63397 0.01446
2773.58554 0.01454
2771.53710 0.01461
2769.48866 0.01465
2767.44022 0.01470
2765.39178 0.01479
2763.34334 0.01489
2761.29491 0.01495
2759.24647 0.01499
2757.19803 0.01505
2755.14959 0.01512
2753.10115 0.01518
2751.05271 0.01524
2749.00428 0.01530
2746.95584 0.01534
2744.90740 0.01540
2742.85896 0.01544
2740.81052 0.01547
2738.76208 0.01551
2736.71365 0.01559
2734.66521 0.01564
2732.61677 0.01568
2730.56833 0.01571
2728.51989 0.01574
2726.47145 0.01580
2724.42302 0.01588
2722.37458 0.01595
2720.32614 0.01601
2718.27770 0.01609
2716.22926 0.01616
2714.18082 0.01623
2712.13239 0.01629
2710.08395 0.01635
2708.03551 0.01641
2705.98707 0.01648
2703.93863 0.01654
2701.89019 0.01659
2699.84176 0.01664
2697.79332 0.01670
2695.74488 0.01675
2693.69644 0.01677
2691.64800 0.01678
2689.59956 0.01682
2687.55113 0.01688
2685.50269 0.01694
2683.45425 0.01699
2681.40581 0.01702
2679.35737 0.01703
2677.30893 0.01705
2675.26050 0.01710
2673.21206 0.01713
2671.16362 0.01715
2669.11518 0.01718
2667.06674 0.01723
2665.01830 0.01726
2662.96987 0.01727
2660.92143 0.01730
2658.87299 0.01735
2656.82455 0.01740
2654.77611 0.01744
2652.72767 0.01747
2650.67924 0.01749
2648.63080 0.01752
2646.58236 0.01755
2644.53392 0.01757
2642.48548 0.01758
2640.43704 0.01757
2638.38860 0.01757
2636.34017 0.01760
2634.29173 0.01767
2632.24329 0.01771
2630.19485 0.01772
2628.14641 0.01770
2626.09797 0.01767
2624.04954 0.01765
2622.00110 0.01765
2619.95266 0.01767
2617.90422 0.01768
2615.85578 0.01768
2613.80734 0.01766
2611.75891 0.01760
2609.71047 0.01756
2607.66203 0.01755
2605.61359 0.01753
2603.56515 0.01748
2601.51671 0.01744
2599.46828 0.01743
2597.41984 0.01741
2595.37140 0.01737
2593.32296 0.01732
2591.27452 0.01728
2589.22608 0.01722
2587.17765 0.01715
2585.12921 0.01711
2583.08077 0.01703
2581.03233 0.01689
2578.98389 0.01671
2576.93545 0.01657
2574.88702 0.01649
2572.83858 0.01641
2570.79014 0.01628
2568.74170 0.01609
2566.69326 0.01590
2564.64482 0.01574
2562.59639 0.01567
2560.54795 0.01570
2558.49951 0.01587
2556.45107 0.01615
2554.40263 0.01646
2552.35419 0.01670
2550.30576 0.01687
2548.25732 0.01701
2546.20888 0.01711
2544.16044 0.01718
2542.11200 0.01725
2540.06356 0.01730
2538.01513 0.01731
2535.96669 0.01723
2533.91825 0.01710
2531.86981 0.01693
2529.82137 0.01676
2527.77293 0.01660
2525.72450 0.01647
2523.67606 0.01638
2521.62762 0.01633
2519.57918 0.01632
2517.53074 0.01637
2515.48230 0.01647
2513.43387 0.01659
2511.38543 0.01674
2509.33699 0.01687
2507.28855 0.01698
2505.24011 0.01710
2503.19167 0.01725
2501.14324 0.01742
2499.09480 0.01759
2497.04636 0.01774
2494.99792 0.01790
2492.94948 0.01805
2490.90104 0.01821
2488.85260 0.01834
2486.80417 0.01843
2484.75573 0.01848
2482.70729 0.01851
2480.65885 0.01854
2478.61041 0.01859
2476.56197 0.01865
2474.51354 0.01870
2472.46510 0.01873
2470.41666 0.01874
2468.36822 0.01873
2466.31978 0.01875
2464.27134 0.01879
2462.22291 0.01882
2460.17447 0.01885
2458.12603 0.01886
2456.07759 0.01886
2454.02915 0.01887
2451.98071 0.01889
2449.93228 0.01893
2447.88384 0.01897
2445.83540 0.01896
2443.78696 0.01891
2441.73852 0.01886
2439.69008 0.01885
2437.64165 0.01886
2435.59321 0.01888
2433.54477 0.01890
2431.49633 0.01891
2429.44789 0.01889
2427.39945 0.01888
2425.35102 0.01888
2423.30258 0.01888
2421.25414 0.01888
2419.20570 0.01888
2417.15726 0.01889
2415.10882 0.01891
2413.06039 0.01890
2411.01195 0.01889
2408.96351 0.01888
2406.91507 0.01887
2404.86663 0.01885
2402.81819 0.01882
2400.76976 0.01876
2398.72132 0.01873
2396.67288 0.01874
2394.62444 0.01874
2392.57600 0.01872
2390.52756 0.01867
2388.47913 0.01865
2386.43069 0.01866
2384.38225 0.01870
2382.33381 0.01877
2380.28537 0.01887
2378.23693 0.01898
2376.18850 0.01908
2374.14006 0.01918
2372.09162 0.01932
2370.04318 0.01953
2367.99474 0.01984
2365.94630 0.02001
2363.89787 0.01991
2361.84943 0.01985
2359.80099 0.01976
2357.75255 0.01934
2355.70411 0.01891
2353.65567 0.01862
2351.60723 0.01834
2349.55880 0.01823
2347.51036 0.01834
2345.46192 0.01853
2343.41348 0.01857
2341.36504 0.01843
2339.31660 0.01829
2337.26817 0.01823
2335.21973 0.01821
2333.17129 0.01819
2331.12285 0.01803
2329.07441 0.01776
2327.02597 0.01754
2324.97754 0.01739
2322.92910 0.01723
2320.88066 0.01702
2318.83222 0.01681
2316.78378 0.01666
2314.73534 0.01660
2312.68691 0.01657
2310.63847 0.01651
2308.59003 0.01640
2306.54159 0.01630
2304.49315 0.01624
2302.44471 0.01621
2300.39628 0.01616
2298.34784 0.01606
2296.29940 0.01598
2294.25096 0.01593
2292.20252 0.01590
2290.15408 0.01585
2288.10565 0.01579
2286.05721 0.01571
2284.00877 0.01566
2281.96033 0.01564
2279.91189 0.01560
2277.86345 0.01554
2275.81502 0.01547
2273.76658 0.01541
2271.71814 0.01537
2269.66970 0.01531
2267.62126 0.01523
2265.57282 0.01515
2263.52439 0.01510
2261.47595 0.01507
2259.42751 0.01505
2257.37907 0.01500
2255.33063 0.01494
2253.28219 0.01487
2251.23376 0.01483
2249.18532 0.01480
2247.13688 0.01476
2245.08844 0.01472
2243.04000 0.01468
2240.99156 0.01464
2238.94313 0.01461
2236.89469 0.01458
2234.84625 0.01453
2232.79781 0.01447
2230.74937 0.01440
2228.70093 0.01434
2226.65250 0.01429
2224.60406 0.01424
2222.55562 0.01417
2220.50718 0.01408
2218.45874 0.01396
2216.41030 0.01382
2214.36186 0.01371
2212.31343 0.01359
2210.26499 0.01347
2208.21655 0.01334
2206.16811 0.01322
2204.11967 0.01312
2202.07123 0.01301
2200.02280 0.01290
2197.97436 0.01277
2195.92592 0.01266
2193.87748 0.01256
2191.82904 0.01244
2189.78060 0.01229
2187.73217 0.01213
2185.68373 0.01195
2183.63529 0.01177
2181.58685 0.01156
2179.53841 0.01133
2177.48997 0.01111
2175.44154 0.01090
2173.39310 0.01069
2171.34466 0.01048
2169.29622 0.01029
2167.24778 0.01011
2165.19934 0.00990
2163.15091 0.00970
2161.10247 0.00954
2159.05403 0.00941
2157.00559 0.00925
2154.95715 0.00910
2152.90871 0.00896
2150.86028 0.00883
2148.81184 0.00868
2146.76340 0.00854
2144.71496 0.00844
2142.66652 0.00834
2140.61808 0.00823
2138.56965 0.00811
2136.52121 0.00802
2134.47277 0.00795
2132.42433 0.00788
2130.37589 0.00779
2128.32745 0.00769
2126.27902 0.00758
2124.23058 0.00748
2122.18214 0.00739
2120.13370 0.00730
2118.08526 0.00722
2116.03682 0.00715
2113.98839 0.00707
2111.93995 0.00702
2109.89151 0.00698
2107.84307 0.00694
2105.79463 0.00690
2103.74619 0.00686
2101.69776 0.00682
2099.64932 0.00680
2097.60088 0.00680
2095.55244 0.00678
2093.50400 0.00674
2091.45556 0.00671
2089.40713 0.00669
2087.35869 0.00665
2085.31025 0.00663
2083.26181 0.00660
2081.21337 0.00656
2079.16493 0.00652
2077.11649 0.00649
2075.06806 0.00643
2073.01962 0.00637
2070.97118 0.00633
2068.92274 0.00630
2066.87430 0.00629
2064.82586 0.00628
2062.77743 0.00625
2060.72899 0.00623
2058.68055 0.00623
2056.63211 0.00625
2054.58367 0.00625
2052.53523 0.00624
2050.48680 0.00623
2048.43836 0.00624
2046.38992 0.00625
2044.34148 0.00629
2042.29304 0.00633
2040.24460 0.00636
2038.19617 0.00636
2036.14773 0.00636
2034.09929 0.00636
2032.05085 0.00639
2030.00241 0.00640
2027.95397 0.00639
2025.90554 0.00637
2023.85710 0.00638
2021.80866 0.00641
2019.76022 0.00644
2017.71178 0.00644
2015.66334 0.00644
2013.61491 0.00645
2011.56647 0.00645
2009.51803 0.00643
2007.46959 0.00639
2005.42115 0.00638
2003.37271 0.00636
2001.32428 0.00632
1999.27584 0.00627
1997.22740 0.00622
1995.17896 0.00615
1993.13052 0.00606
1991.08208 0.00594
1989.03365 0.00582
1986.98521 0.00571
1984.93677 0.00561
1982.88833 0.00553
1980.83989 0.00547
1978.79145 0.00541
1976.74302 0.00538
1974.69458 0.00536
1972.64614 0.00537
1970.59770 0.00542
1968.54926 0.00549
1966.50082 0.00556
1964.45239 0.00563
1962.40395 0.00571
1960.35551 0.00581
1958.30707 0.00591
1956.25863 0.00600
1954.21019 0.00607
1952.16176 0.00615
1950.11332 0.00623
1948.06488 0.00632
1946.01644 0.00642
1943.96800 0.00652
1941.91956 0.00661
1939.87112 0.00671
1937.82269 0.00681
1935.77425 0.00691
1933.72581 0.00702
1931.67737 0.00712
1929.62893 0.00724
1927.58049 0.00735
1925.53206 0.00745
1923.48362 0.00751
1921.43518 0.00753
1919.38674 0.00756
1917.33830 0.00761
1915.28986 0.00766
1913.24143 0.00770
1911.19299 0.00773
1909.14455 0.00774
1907.09611 0.00773
1905.04767 0.00772
1902.99923 0.00773
1900.95080 0.00775
1898.90236 0.00776
1896.85392 0.00777
1894.80548 0.00780
1892.75704 0.00783
1890.70860 0.00786
1888.66017 0.00787
1886.61173 0.00786
1884.56329 0.00787
1882.51485 0.00787
1880.46641 0.00788
1878.41797 0.00789
1876.36954 0.00788
1874.32110 0.00789
1872.27266 0.00793
1870.22422 0.00798
1868.17578 0.00799
1866.12734 0.00797
1864.07891 0.00800
1862.03047 0.00805
1859.98203 0.00809
1857.93359 0.00810
1855.88515 0.00810
1853.83671 0.00811
1851.78828 0.00813
1849.73984 0.00818
1847.69140 0.00824
1845.64296 0.00827
1843.59452 0.00822
1841.54608 0.00820
1839.49765 0.00825
1837.44921 0.00829
1835.40077 0.00830
1833.35233 0.00833
1831.30389 0.00838
1829.25545 0.00840
1827.20702 0.00842
1825.15858 0.00841
1823.11014 0.00834
1821.06170 0.00831
1819.01326 0.00832
1816.96482 0.00832
1814.91639 0.00831
1812.86795 0.00828
1810.81951 0.00820
1808.77107 0.00811
1806.72263 0.00806
1804.67419 0.00802
1802.62575 0.00798
1800.57732 0.00789
1798.52888 0.00780
1796.48044 0.00775
1794.43200 0.00774
1792.38356 0.00766
1790.33512 0.00752
1788.28669 0.00743
1786.23825 0.00737
1784.18981 0.00727
1782.14137 0.00716
1780.09293 0.00704
1778.04449 0.00697
1775.99606 0.00694
1773.94762 0.00688
1771.89918 0.00669
1769.85074 0.00650
1767.80230 0.00639
1765.75386 0.00632
1763.70543 0.00626
1761.65699 0.00612
1759.60855 0.00596
1757.56011 0.00586
1755.51167 0.00577
1753.46323 0.00572
1751.41480 0.00567
1749.36636 0.00553
1747.31792 0.00533
1745.26948 0.00514
1743.22104 0.00500
1741.17260 0.00488
1739.12417 0.00477
1737.07573 0.00470
1735.02729 0.00461
1732.97885 0.00437
1730.93041 0.00415
1728.88197 0.00401
1726.83354 0.00390
1724.78510 0.00380
1722.73666 0.00371
1720.68822 0.00366
1718.63978 0.00360
1716.59134 0.00341
1714.54291 0.00326
1712.49447 0.00319
1710.44603 0.00313
1708.39759 0.00307
1706.34915 0.00301
1704.30071 0.00294
1702.25228 0.00289
1700.20384 0.00277
1698.15540 0.00264
1696.10696 0.00257
1694.05852 0.00250
1692.01008 0.00245
1689.96165 0.00242
1687.91321 0.00238
1685.86477 0.00234
1683.81633 0.00220
1681.76789 0.00211
1679.71945 0.00214
1677.67102 0.00218
1675.62258 0.00215
1673.57414 0.00210
1671.52570 0.00210
1669.47726 0.00209
1667.42882 0.00203
1665.38038 0.00203
1663.33195 0.00204
1661.28351 0.00204
1659.23507 0.00203
1657.18663 0.00206
1655.13819 0.00212
1653.08975 0.00209
1651.04132 0.00201
1648.99288 0.00205
1646.94444 0.00210
1644.89600 0.00206
1642.84756 0.00205
1640.79912 0.00207
1638.75069 0.00209
1636.70225 0.00211
1634.65381 0.00207
1632.60537 0.00207
1630.55693 0.00209
1628.50849 0.00210
1626.46006 0.00210
1624.41162 0.00213
1622.36318 0.00216
1620.31474 0.00218
1618.26630 0.00220
1616.21786 0.00217
1614.16943 0.00214
1612.12099 0.00217
1610.07255 0.00220
1608.02411 0.00219
1605.97567 0.00218
1603.92723 0.00219
1601.87880 0.00220
1599.83036 0.00221
1597.78192 0.00223
1595.73348 0.00224
1593.68504 0.00223
1591.63660 0.00223
1589.58817 0.00224
1587.53973 0.00224
1585.49129 0.00223
1583.44285 0.00222
1581.39441 0.00221
1579.34597 0.00221
1577.29754 0.00222
1575.24910 0.00220
1573.20066 0.00221
1571.15222 0.00222
1569.10378 0.00218
1567.05534 0.00214
1565.00691 0.00215
1562.95847 0.00220
1560.91003 0.00229
1558.86159 0.00226
1556.81315 0.00210
1554.76471 0.00211
1552.71628 0.00214
1550.66784 0.00214
1548.61940 0.00215
1546.57096 0.00217
1544.52252 0.00221
1542.47408 0.00223
1540.42565 0.00216
1538.37721 0.00210
1536.32877 0.00214
1534.28033 0.00219
1532.23189 0.00218
1530.18345 0.00220
1528.13501 0.00224
1526.08658 0.00225
1524.03814 0.00226
1521.98970 0.00230
1519.94126 0.00229
1517.89282 0.00231
1515.84438 0.00235
1513.79595 0.00239
1511.74751 0.00243
1509.69907 0.00247
1507.65063 0.00241
1505.60219 0.00230
1503.55375 0.00237
1501.50532 0.00245
1499.45688 0.00249
1497.40844 0.00247
1495.36000 0.00246
1493.31156 0.00249
1491.26312 0.00252
1489.21469 0.00252
1487.16625 0.00248
1485.11781 0.00246
1483.06937 0.00247
1481.02093 0.00248
1478.97249 0.00248
1476.92406 0.00248
1474.87562 0.00246
1472.82718 0.00240
1470.77874 0.00232
1468.73030 0.00233
1466.68186 0.00235
1464.63343 0.00236
1462.58499 0.00236
1460.53655 0.00240
1458.48811 0.00240
1456.43967 0.00230
1454.39123 0.00227
1452.34280 0.00228
1450.29436 0.00228
1448.24592 0.00226
1446.19748 0.00222
1444.14904 0.00219
1442.10060 0.00219
1440.05217 0.00221
1438.00373 0.00223
1435.95529 0.00218
1433.90685 0.00213
1431.85841 0.00212
1429.80997 0.00210
1427.76154 0.00207
1425.71310 0.00207
1423.66466 0.00209
1421.61622 0.00210
1419.56778 0.00207
1417.51934 0.00199
1415.47091 0.00196
1413.42247 0.00196
1411.37403 0.00196
1409.32559 0.00194
1407.27715 0.00193
1405.22871 0.00191
1403.18028 0.00190
1401.13184 0.00191
1399.08340 0.00193
1397.03496 0.00192
1394.98652 0.00190
1392.93808 0.00189
1390.88965 0.00192
1388.84121 0.00193
1386.79277 0.00189
1384.74433 0.00184
1382.69589 0.00184
1380.64745 0.00186
1378.59901 0.00186
1376.55058 0.00185
1374.50214 0.00184
1372.45370 0.00181
1370.40526 0.00181
1368.35682 0.00181
1366.30838 0.00182
1364.25995 0.00184
1362.21151 0.00184
1360.16307 0.00182
1358.11463 0.00183
1356.06619 0.00183
1354.01775 0.00181
1351.96932 0.00180
1349.92088 0.00177
1347.87244 0.00174
1345.82400 0.00173
1343.77556 0.00173
1341.72712 0.00173
1339.67869 0.00172
1337.63025 0.00168
1335.58181 0.00163
1333.53337 0.00159
1331.48493 0.00156
1329.43649 0.00155
1327.38806 0.00156
1325.33962 0.00155
1323.29118 0.00153
1321.24274 0.00152
1319.19430 0.00151
1317.14586 0.00150
1315.09743 0.00148
1313.04899 0.00145
1311.00055 0.00143
1308.95211 0.00143
1306.90367 0.00143
1304.85523 0.00143
1302.80680 0.00142
1300.75836 0.00141
1298.70992 0.00139
1296.66148 0.00138
1294.61304 0.00136
1292.56460 0.00134
1290.51617 0.00132
1288.46773 0.00131
1286.41929 0.00130
1284.37085 0.00130
1282.32241 0.00131
1280.27397 0.00129
1278.22554 0.00127
1276.17710 0.00126
1274.12866 0.00127
1272.08022 0.00127
1270.03178 0.00126
1267.98334 0.00125
1265.93491 0.00124
1263.88647 0.00125
1261.83803 0.00124
1259.78959 0.00122
1257.74115 0.00119
1255.69271 0.00116
1253.64428 0.00116
1251.59584 0.00115
1249.54740 0.00113
1247.49896 0.00112
1245.45052 0.00112
1243.40208 0.00112
1241.35364 0.00111
1239.30521 0.00108
1237.25677 0.00106
1235.20833 0.00105
1233.15989 0.00105
1231.11145 0.00106
1229.06301 0.00107
1227.01458 0.00105
1224.96614 0.00103
1222.91770 0.00103
1220.86926 0.00105
1218.82082 0.00107
1216.77238 0.00107
1214.72395 0.00109
1212.67551 0.00112
1210.62707 0.00113
1208.57863 0.00114
1206.53019 0.00116
1204.48175 0.00122
1202.43332 0.00129
1200.38488 0.00135
1198.33644 0.00140
1196.28800 0.00148
1194.23956 0.00160
1192.19112 0.00174
1190.14269 0.00188
1188.09425 0.00199
1186.04581 0.00210
1183.99737 0.00223
1181.94893 0.00235
1179.90049 0.00245
1177.85206 0.00255
1175.80362 0.00265
1173.75518 0.00274
1171.70674 0.00282
1169.65830 0.00291
1167.60986 0.00300
1165.56143 0.00310
1163.51299 0.00319
1161.46455 0.00329
1159.41611 0.00338
1157.36767 0.00345
1155.31923 0.00352
1153.27080 0.00359
1151.22236 0.00366
1149.17392 0.00371
1147.12548 0.00374
1145.07704 0.00379
1143.02860 0.00385
1140.98017 0.00389
1138.93173 0.00389
1136.88329 0.00386
1134.83485 0.00385
1132.78641 0.00386
1130.73797 0.00387
1128.68954 0.00387
1126.64110 0.00387
1124.59266 0.00389
1122.54422 0.00393
1120.49578 0.00397
1118.44734 0.00401
1116.39891 0.00403
1114.35047 0.00405
1112.30203 0.00408
1110.25359 0.00411
1108.20515 0.00412
1106.15671 0.00413
1104.10827 0.00415
1102.05984 0.00416
1100.01140 0.00417
1097.96296 0.00419
1095.91452 0.00422
1093.86608 0.00426
1091.81764 0.00430
1089.76921 0.00434
1087.72077 0.00443
1085.67233 0.00458
1083.62389 0.00473
1081.57545 0.00490
1079.52701 0.00511
1077.47858 0.00534
1075.43014 0.00562
1073.38170 0.00595
1071.33326 0.00633
1069.28482 0.00676
1067.23638 0.00725
1065.18795 0.00776
1063.13951 0.00830
1061.09107 0.00890
1059.04263 0.00955
1056.99419 0.01023
1054.94575 0.01093
1052.89732 0.01161
1050.84888 0.01227
1048.80044 0.01288
1046.75200 0.01346
1044.70356 0.01398
1042.65512 0.01444
1040.60669 0.01483
1038.55825 0.01514
1036.50981 0.01540
1034.46137 0.01560
1032.41293 0.01575
1030.36449 0.01585
1028.31606 0.01590
1026.26762 0.01594
1024.21918 0.01596
1022.17074 0.01597
1020.12230 0.01596
1018.07386 0.01595
1016.02543 0.01594
1013.97699 0.01592
1011.92855 0.01589
1009.88011 0.01583
1007.83167 0.01572
1005.78323 0.01559
1003.73480 0.01545
1001.68636 0.01530
999.63792 0.01515
997.58948 0.01501
995.54104 0.01487
993.49260 0.01474
991.44417 0.01466
989.39573 0.01458
987.34729 0.01450
985.29885 0.01443
983.25041 0.01437
981.20197 0.01432
979.15354 0.01427
977.10510 0.01419
975.05666 0.01407
973.00822 0.01391
970.95978 0.01372
968.91134 0.01350
966.86290 0.01327
964.81447 0.01302
962.76603 0.01275
960.71759 0.01244
958.66915 0.01211
956.62071 0.01179
954.57227 0.01152
952.52384 0.01129
950.47540 0.01106
948.42696 0.01083
946.37852 0.01057
944.33008 0.01030
942.28164 0.01004
940.23321 0.00981
938.18477 0.00963
936.13633 0.00948
934.08789 0.00943
932.03945 0.00946
929.99101 0.00948
927.94258 0.00942
925.89414 0.00932
923.84570 0.00916
921.79726 0.00898
919.74882 0.00881
917.70038 0.00866
915.65195 0.00854
913.60351 0.00844
911.55507 0.00836
909.50663 0.00829
907.45819 0.00823
905.40975 0.00819
903.36132 0.00815
901.31288 0.00813
899.26444 0.00811
897.21600 0.00803
895.16756 0.00793
893.11912 0.00787
891.07069 0.00787
889.02225 0.00788
886.97381 0.00786
884.92537 0.00784
882.87693 0.00784
880.82849 0.00782
878.78006 0.00777
876.73162 0.00774
874.68318 0.00776
872.63474 0.00779
870.58630 0.00785
868.53786 0.00789
866.48943 0.00787
864.44099 0.00780
862.39255 0.00773
860.34411 0.00761
858.29567 0.00739
856.24723 0.00710
854.19880 0.00683
852.15036 0.00658
850.10192 0.00634
848.05348 0.00613
846.00504 0.00594
843.95660 0.00578
841.90817 0.00562
839.85973 0.00545
837.81129 0.00530
835.76285 0.00516
833.71441 0.00507
831.66597 0.00497
829.61753 0.00484
827.56910 0.00471
825.52066 0.00461
823.47222 0.00456
821.42378 0.00451
819.37534 0.00442
817.32690 0.00432
815.27847 0.00424
813.23003 0.00416
811.18159 0.00406
809.13315 0.00396
807.08471 0.00387
805.03627 0.00384
802.98784 0.00384
800.93940 0.00383
798.89096 0.00380
796.84252 0.00377
794.79408 0.00374
792.74564 0.00367
790.69721 0.00355
788.64877 0.00347
786.60033 0.00346
784.55189 0.00347
782.50345 0.00345
780.45501 0.00338
778.40658 0.00334
776.35814 0.00335
774.30970 0.00328
772.26126 0.00314
770.21282 0.00306
768.16438 0.00309
766.11595 0.00311
764.06751 0.00302
762.01907 0.00289
759.97063 0.00279
757.92219 0.00276
755.87375 0.00278
753.82532 0.00278
751.77688 0.00268
749.72844 0.00260
747.68000 0.00256
745.63156 0.00253
743.58312 0.00252
741.53469 0.00253
739.48625 0.00255
737.43781 0.00255
735.38937 0.00253
733.34093 0.00254
731.29249 0.00264
729.24406 0.00285
727.19562 0.00306
725.14718 0.00314
723.09874 0.00312
721.05030 0.00310
719.00186 0.00313
716.95343 0.00320
714.90499 0.00327
712.85655 0.00324
710.80811 0.00314
708.75967 0.00307
706.71123 0.00308
704.66280 0.00328
702.61436 0.00364
700.56592 0.00393
698.51748 0.00400
696.46904 0.00393
694.42060 0.00391
692.37216 0.00398
690.32373 0.00400
688.27529 0.00391
686.22685 0.00386
684.17841 0.00382
682.12997 0.00371
680.08153 0.00363
678.03310 0.00348
675.98466 0.00324
673.93622 0.00314
671.88778 0.00326
669.83934 0.00336
667.79090 0.00333
665.74247 0.00330
663.69403 0.00329
661.64559 0.00333
659.59715 0.00346
657.54871 0.00362
655.50027 0.00375
653.45184 0.00386
651.40340 0.00415
649.35496 0.00463
647.30652 0.00486
645.25808 0.00468
643.20964 0.00443
641.16121 0.00436
639.11277 0.00448
637.06433 0.00461
635.01589 0.00456
632.96745 0.00449
630.91901 0.00433
628.87058 0.00389
626.82214 0.00351
624.77370 0.00349
622.72526 0.00369
620.67682 0.00400
618.62838 0.00452
616.57995 0.00496
614.53151 0.00477
612.48307 0.00434
610.43463 0.00421
608.38619 0.00426
606.33775 0.00445
604.28932 0.00500
602.24088 0.00554
600.19244 0.00526
598.14400 0.00457
