3996.50324 0.01200
3994.45480 0.01200
3992.40636 0.01198
3990.35792 0.01195
3988.30948 0.01191
3986.26104 0.01190
3984.21261 0.01190
3982.16417 0.01187
3980.11573 0.01182
3978.06729 0.01182
3976.01885 0.01181
3973.97041 0.01175
3971.92198 0.01172
3969.87354 0.01173
3967.82510 0.01173
3965.77666 0.01175
3963.72822 0.01179
3961.67978 0.01178
3959.63135 0.01174
3957.58291 0.01173
3955.53447 0.01168
3953.48603 0.01166
3951.43759 0.01172
3949.38915 0.01173
3947.34072 0.01164
3945.29228 0.01168
3943.24384 0.01173
3941.19540 0.01163
3939.14696 0.01161
3937.09852 0.01171
3935.05009 0.01184
3933.00165 0.01184
3930.95321 0.01165
3928.90477 0.01159
3926.85633 0.01174
3924.80789 0.01178
3922.75946 0.01171
3920.71102 0.01180
3918.66258 0.01185
3916.61414 0.01167
3914.56570 0.01155
3912.51726 0.01165
3910.46883 0.01180
3908.42039 0.01198
3906.37195 0.01225
3904.32351 0.01225
3902.27507 0.01187
3900.22663 0.01159
3898.17820 0.01148
3896.12976 0.01166
3894.08132 0.01204
3892.03288 0.01208
3889.98444 0.01181
3887.93600 0.01194
3885.88756 0.01211
3883.83913 0.01202
3881.79069 0.01205
3879.74225 0.01189
3877.69381 0.01185
3875.64537 0.01214
3873.59693 0.01224
3871.54850 0.01213
3869.50006 0.01188
3867.45162 0.01185
3865.40318 0.01209
3863.35474 0.01191
3861.30630 0.01168
3859.25787 0.01193
3857.20943 0.01247
3855.16099 0.01296
3853.11255 0.01225
3851.06411 0.01135
3849.01567 0.01148
3846.96724 0.01187
3844.91880 0.01215
3842.87036 0.01221
3840.82192 0.01221
3838.77348 0.01209
3836.72504 0.01168
3834.67661 0.01155
3832.62817 0.01164
3830.57973 0.01171
3828.53129 0.01181
3826.48285 0.01185
3824.43441 0.01200
3822.38598 0.01223
3820.33754 0.01185
3818.28910 0.01157
3816.24066 0.01154
3814.19222 0.01128
3812.14378 0.01135
3810.09535 0.01173
3808.04691 0.01194
3805.99847 0.01170
3803.95003 0.01168
3801.90159 0.01168
3799.85315 0.01125
3797.80472 0.01118
3795.75628 0.01113
3793.70784 0.01106
3791.65940 0.01119
3789.61096 0.01132
3787.56252 0.01138
3785.51409 0.01130
3783.46565 0.01116
3781.41721 0.01116
3779.36877 0.01104
3777.32033 0.01081
3775.27189 0.01084
3773.22346 0.01102
3771.17502 0.01110
3769.12658 0.01088
3767.07814 0.01065
3765.02970 0.01051
3762.98126 0.01049
3760.93283 0.01061
3758.88439 0.01043
3756.83595 0.01016
3754.78751 0.01030
3752.73907 0.01059
3750.69063 0.01025
3748.64219 0.00972
3746.59376 0.00981
3744.54532 0.00964
3742.49688 0.00922
3740.44844 0.00926
3738.40000 0.00951
3736.35156 0.00947
3734.30313 0.00885
3732.25469 0.00837
3730.20625 0.00828
3728.15781 0.00833
3726.10937 0.00824
3724.06093 0.00792
3722.01250 0.00757
3719.96406 0.00724
3717.91562 0.00701
3715.86718 0.00692
3713.81874 0.00690
3711.77030 0.00656
3709.72187 0.00589
3707.67343 0.00560
3705.62499 0.00555
3703.57655 0.00546
3701.52811 0.00521
3699.47967 0.00493
3697.43124 0.00473
3695.38280 0.00456
3693.33436 0.00443
3691.28592 0.00429
3689.23748 0.00399
3687.18904 0.00373
3685.14061 0.00363
3683.09217 0.00358
3681.04373 0.00352
3678.99529 0.00341
3676.94685 0.00325
3674.89841 0.00302
3672.84998 0.00291
3670.80154 0.00284
3668.75310 0.00267
3666.70466 0.00258
3664.65622 0.00256
3662.60778 0.00252
3660.55935 0.00244
3658.51091 0.00236
3656.46247 0.00230
3654.41403 0.00225
3652.36559 0.00221
3650.31715 0.00215
3648.26872 0.00205
3646.22028 0.00200
3644.17184 0.00198
3642.12340 0.00196
3640.07496 0.00191
3638.02652 0.00187
3635.97809 0.00185
3633.92965 0.00184
3631.88121 0.00184
3629.83277 0.00187
3627.78433 0.00187
3625.73589 0.00184
3623.68746 0.00182
3621.63902 0.00181
3619.59058 0.00180
3617.54214 0.00178
3615.49370 0.00176
3613.44526 0.00174
3611.39682 0.00171
3609.34839 0.00172
3607.29995 0.00175
3605.25151 0.00175
3603.20307 0.00173
3601.15463 0.00173
3599.10619 0.00171
3597.05776 0.00169
3595.00932 0.00170
3592.96088 0.00172
3590.91244 0.00172
3588.86400 0.00173
3586.81556 0.00171
3584.76713 0.00166
3582.71869 0.00164
3580.67025 0.00168
3578.62181 0.00174
3576.57337 0.00177
3574.52493 0.00172
3572.47650 0.00166
3570.42806 0.00165
3568.37962 0.00168
3566.33118 0.00170
3564.28274 0.00169
3562.23430 0.00168
3560.18587 0.00167
3558.13743 0.00166
3556.08899 0.00168
3554.04055 0.00170
3551.99211 0.00166
3549.94367 0.00160
3547.89524 0.00161
3545.84680 0.00165
3543.79836 0.00169
3541.74992 0.00171
3539.70148 0.00170
3537.65304 0.00168
3535.60461 0.00170
3533.55617 0.00173
3531.50773 0.00171
3529.45929 0.00165
3527.41085 0.00161
3525.36241 0.00158
3523.31398 0.00155
3521.26554 0.00159
3519.21710 0.00164
3517.16866 0.00166
3515.12022 0.00165
3513.07178 0.00164
3511.02335 0.00164
3508.97491 0.00163
3506.92647 0.00161
3504.87803 0.00162
3502.82959 0.00161
3500.78115 0.00160
3498.73272 0.00162
3496.68428 0.00165
3494.63584 0.00165
3492.58740 0.00163
3490.53896 0.00161
3488.49052 0.00160
3486.44209 0.00161
3484.39365 0.00165
3482.34521 0.00165
3480.29677 0.00161
3478.24833 0.00158
3476.19989 0.00156
3474.15146 0.00157
3472.10302 0.00159
3470.05458 0.00164
3468.00614 0.00167
3465.95770 0.00167
3463.90926 0.00166
3461.86082 0.00166
3459.81239 0.00163
3457.76395 0.00161
3455.71551 0.00161
3453.66707 0.00160
3451.61863 0.00159
3449.57019 0.00160
3447.52176 0.00161
3445.47332 0.00163
3443.42488 0.00164
3441.37644 0.00162
3439.32800 0.00158
3437.27956 0.00158
3435.23113 0.00159
3433.18269 0.00158
3431.13425 0.00158
3429.08581 0.00159
3427.03737 0.00158
3424.98893 0.00156
3422.94050 0.00154
3420.89206 0.00154
3418.84362 0.00157
3416.79518 0.00160
3414.74674 0.00160
3412.69830 0.00159
3410.64987 0.00160
3408.60143 0.00162
3406.55299 0.00164
3404.50455 0.00162
3402.45611 0.00157
3400.40767 0.00156
3398.35924 0.00157
3396.31080 0.00158
3394.26236 0.00159
3392.21392 0.00159
3390.16548 0.00160
3388.11704 0.00159
3386.06861 0.00155
3384.02017 0.00152
3381.97173 0.00154
3379.92329 0.00157
3377.87485 0.00156
3375.82641 0.00153
3373.77798 0.00154
3371.72954 0.00157
3369.68110 0.00162
3367.63266 0.00164
3365.58422 0.00162
3363.53578 0.00159
3361.48735 0.00158
3359.43891 0.00155
3357.39047 0.00155
3355.34203 0.00158
3353.29359 0.00162
3351.24515 0.00164
3349.19672 0.00162
3347.14828 0.00160
3345.09984 0.00158
3343.05140 0.00156
3341.00296 0.00154
3338.95452 0.00155
3336.90609 0.00157
3334.85765 0.00160
3332.80921 0.00161
3330.76077 0.00160
3328.71233 0.00158
3326.66389 0.00158
3324.61545 0.00157
3322.56702 0.00158
3320.51858 0.00161
3318.47014 0.00161
3316.42170 0.00157
3314.37326 0.00155
3312.32482 0.00156
3310.27639 0.00158
3308.22795 0.00158
3306.17951 0.00158
3304.13107 0.00160
3302.08263 0.00163
3300.03419 0.00164
3297.98576 0.00165
3295.93732 0.00165
3293.88888 0.00164
3291.84044 0.00162
3289.79200 0.00161
3287.74356 0.00162
3285.69513 0.00162
3283.64669 0.00162
3281.59825 0.00163
3279.54981 0.00162
3277.50137 0.00158
3275.45293 0.00159
3273.40450 0.00165
3271.35606 0.00166
3269.30762 0.00162
3267.25918 0.00160
3265.21074 0.00162
3263.16230 0.00166
3261.11387 0.00169
3259.06543 0.00168
3257.01699 0.00165
3254.96855 0.00162
3252.92011 0.00163
3250.87167 0.00167
3248.82324 0.00167
3246.77480 0.00164
3244.72636 0.00162
3242.67792 0.00163
3240.62948 0.00164
3238.58104 0.00165
3236.53261 0.00165
3234.48417 0.00164
3232.43573 0.00165
3230.38729 0.00168
3228.33885 0.00167
3226.29041 0.00165
3224.24198 0.00165
3222.19354 0.00167
3220.14510 0.00167
3218.09666 0.00165
3216.04822 0.00166
3213.99978 0.00169
3211.95135 0.00170
3209.90291 0.00170
3207.85447 0.00170
3205.80603 0.00169
3203.75759 0.00168
3201.70915 0.00167
3199.66072 0.00165
3197.61228 0.00167
3195.56384 0.00168
3193.51540 0.00168
3191.46696 0.00167
3189.41852 0.00167
3187.37008 0.00169
3185.32165 0.00170
3183.27321 0.00169
3181.22477 0.00171
3179.17633 0.00173
3177.12789 0.00175
3175.07945 0.00175
3173.03102 0.00174
3170.98258 0.00174
3168.93414 0.00175
3166.88570 0.00176
3164.83726 0.00175
3162.78882 0.00175
3160.74039 0.00175
3158.69195 0.00177
3156.64351 0.00178
3154.59507 0.00178
3152.54663 0.00178
3150.49819 0.00179
3148.44976 0.00179
3146.40132 0.00179
3144.35288 0.00181
3142.30444 0.00184
3140.25600 0.00183
3138.20756 0.00180
3136.15913 0.00181
3134.11069 0.00183
3132.06225 0.00183
3130.01381 0.00184
3127.96537 0.00185
3125.91693 0.00188
3123.86850 0.00189
3121.82006 0.00188
3119.77162 0.00184
3117.72318 0.00183
3115.67474 0.00185
3113.62630 0.00189
3111.57787 0.00192
3109.52943 0.00191
3107.48099 0.00188
3105.43255 0.00189
3103.38411 0.00192
3101.33567 0.00195
3099.28724 0.00197
3097.23880 0.00198
3095.19036 0.00198
3093.14192 0.00196
3091.09348 0.00195
3089.04504 0.00197
3086.99661 0.00198
3084.94817 0.00200
3082.89973 0.00203
3080.85129 0.00206
3078.80285 0.00209
3076.75441 0.00210
3074.70598 0.00210
3072.65754 0.00209
3070.60910 0.00209
3068.56066 0.00209
3066.51222 0.00209
3064.46378 0.00210
3062.41535 0.00211
3060.36691 0.00211
3058.31847 0.00212
3056.27003 0.00213
3054.22159 0.00213
3052.17315 0.00216
3050.12471 0.00220
3048.07628 0.00220
3046.02784 0.00220
3043.97940 0.00223
3041.93096 0.00228
3039.88252 0.00230
3037.83408 0.00228
3035.78565 0.00227
3033.73721 0.00229
3031.68877 0.00233
3029.64033 0.00234
3027.59189 0.00234
3025.54345 0.00235
3023.49502 0.00235
3021.44658 0.00236
3019.39814 0.00240
3017.34970 0.00243
3015.30126 0.00246
3013.25282 0.00248
3011.20439 0.00251
3009.15595 0.00256
3007.10751 0.00259
3005.05907 0.00259
3003.01063 0.00259
3000.96219 0.00260
2998.91376 0.00259
2996.86532 0.00260
2994.81688 0.00262
2992.76844 0.00265
2990.72000 0.00269
2988.67156 0.00271
2986.62313 0.00271
2984.57469 0.00270
2982.52625 0.00269
2980.47781 0.00269
2978.42937 0.00270
2976.38093 0.00268
2974.33250 0.00262
2972.28406 0.00256
2970.23562 0.00250
2968.18718 0.00242
2966.13874 0.00235
2964.09030 0.00231
2962.04187 0.00227
2959.99343 0.00225
2957.94499 0.00222
2955.89655 0.00220
2953.84811 0.00220
2951.79967 0.00220
2949.75124 0.00223
2947.70280 0.00228
2945.65436 0.00231
2943.60592 0.00229
2941.55748 0.00224
2939.50904 0.00219
2937.46061 0.00216
2935.41217 0.00212
2933.36373 0.00206
2931.31529 0.00200
2929.26685 0.00195
2927.21841 0.00193
2925.16998 0.00191
2923.12154 0.00191
2921.07310 0.00192
2919.02466 0.00192
2916.97622 0.00194
2914.92778 0.00197
2912.87934 0.00200
2910.83091 0.00206
2908.78247 0.00214
2906.73403 0.00219
2904.68559 0.00224
2902.63715 0.00230
2900.58871 0.00233
2898.54028 0.00236
2896.49184 0.00241
2894.44340 0.00248
2892.39496 0.00255
2890.34652 0.00260
2888.29808 0.00266
2886.24965 0.00274
2884.20121 0.00282
2882.15277 0.00288
2880.10433 0.00289
2878.05589 0.00286
2876.00745 0.00282
2873.95902 0.00277
2871.91058 0.00273
2869.86214 0.00272
2867.81370 0.00271
2865.76526 0.00269
2863.71682 0.00266
2861.66839 0.00259
2859.61995 0.00251
2857.57151 0.00244
2855.52307 0.00240
2853.47463 0.00238
2851.42619 0.00239
2849.37776 0.00247
2847.32932 0.00263
2845.28088 0.00286
2843.23244 0.00310
2841.18400 0.00333
2839.13556 0.00355
2837.08713 0.00378
2835.03869 0.00401
2832.99025 0.00419
2830.94181 0.00433
2828.89337 0.00447
2826.84493 0.00462
2824.79650 0.00474
2822.74806 0.00483
2820.69962 0.00491
2818.65118 0.00500
2816.60274 0.00508
2814.55430 0.00517
2812.50587 0.00526
2810.45743 0.00532
2808.40899 0.00538
2806.36055 0.00546
2804.31211 0.00554
2802.26367 0.00560
2800.21524 0.00565
2798.16680 0.00570
2796.11836 0.00574
2794.06992 0.00580
2792.02148 0.00586
2789.97304 0.00593
2787.92461 0.00600
2785.87617 0.00605
2783.82773 0.00610
2781.77929 0.00614
2779.73085 0.00619
2777.68241 0.00625
2775.63397 0.00632
2773.58554 0.00639
2771.53710 0.00645
2769.48866 0.00650
2767.44022 0.00655
2765.39178 0.00660
2763.34334 0.00664
2761.29491 0.00667
2759.24647 0.00670
2757.19803 0.00673
2755.14959 0.00679
2753.10115 0.00683
2751.05271 0.00686
2749.00428 0.00689
2746.95584 0.00693
2744.90740 0.00697
2742.85896 0.00702
2740.81052 0.00705
2738.76208 0.00707
2736.71365 0.00710
2734.66521 0.00714
2732.61677 0.00717
2730.56833 0.00720
2728.51989 0.00724
2726.47145 0.00728
2724.42302 0.00733
2722.37458 0.00736
2720.32614 0.00739
2718.27770 0.00744
2716.22926 0.00749
2714.18082 0.00754
2712.13239 0.00758
2710.08395 0.00763
2708.03551 0.00767
2705.98707 0.00769
2703.93863 0.00771
2701.89019 0.00774
2699.84176 0.00777
2697.79332 0.00780
2695.74488 0.00783
2693.69644 0.00788
2691.64800 0.00794
2689.59956 0.00797
2687.55113 0.00797
2685.50269 0.00797
2683.45425 0.00799
2681.40581 0.00802
2679.35737 0.00804
2677.30893 0.00806
2675.26050 0.00810
2673.21206 0.00812
2671.16362 0.00813
2669.11518 0.00814
2667.06674 0.00815
2665.01830 0.00818
2662.96987 0.00822
2660.92143 0.00826
2658.87299 0.00829
2656.82455 0.00831
2654.77611 0.00833
2652.72767 0.00834
2650.67924 0.00836
2648.63080 0.00838
2646.58236 0.00840
2644.53392 0.00842
2642.48548 0.00844
2640.43704 0.00845
2638.38860 0.00845
2636.34017 0.00845
2634.29173 0.00846
2632.24329 0.00849
2630.19485 0.00849
2628.14641 0.00850
2626.09797 0.00852
2624.04954 0.00856
2622.00110 0.00857
2619.95266 0.00855
2617.90422 0.00850
2615.85578 0.00846
2613.80734 0.00844
2611.75891 0.00843
2609.71047 0.00842
2607.66203 0.00841
2605.61359 0.00839
2603.56515 0.00835
2601.51671 0.00832
2599.46828 0.00830
2597.41984 0.00830
2595.37140 0.00830
2593.32296 0.00826
2591.27452 0.00820
2589.22608 0.00814
2587.17765 0.00806
2585.12921 0.00799
2583.08077 0.00792
2581.03233 0.00781
2578.98389 0.00769
2576.93545 0.00758
2574.88702 0.00749
2572.83858 0.00743
2570.79014 0.00733
2568.74170 0.00719
2566.69326 0.00702
2564.64482 0.00689
2562.59639 0.00683
2560.54795 0.00688
2558.49951 0.00704
2556.45107 0.00722
2554.40263 0.00741
2552.35419 0.00760
2550.30576 0.00776
2548.25732 0.00789
2546.20888 0.00799
2544.16044 0.00807
2542.11200 0.00811
2540.06356 0.00811
2538.01513 0.00809
2535.96669 0.00805
2533.91825 0.00798
2531.86981 0.00786
2529.82137 0.00773
2527.77293 0.00760
2525.72450 0.00748
2523.67606 0.00739
2521.62762 0.00736
2519.57918 0.00739
2517.53074 0.00743
2515.48230 0.00749
2513.43387 0.00756
2511.38543 0.00768
2509.33699 0.00782
2507.28855 0.00794
2505.24011 0.00805
2503.19167 0.00816
2501.14324 0.00829
2499.09480 0.00841
2497.04636 0.00852
2494.99792 0.00863
2492.94948 0.00873
2490.90104 0.00884
2488.85260 0.00895
2486.80417 0.00904
2484.75573 0.00912
2482.70729 0.00916
2480.65885 0.00919
2478.61041 0.00924
2476.56197 0.00929
2474.51354 0.00931
2472.46510 0.00933
2470.41666 0.00935
2468.36822 0.00938
2466.31978 0.00940
2464.27134 0.00943
2462.22291 0.00944
2460.17447 0.00945
2458.12603 0.00944
2456.07759 0.00945
2454.02915 0.00945
2451.98071 0.00944
2449.93228 0.00942
2447.88384 0.00941
2445.83540 0.00941
2443.78696 0.00943
2441.73852 0.00944
2439.69008 0.00944
2437.64165 0.00945
2435.59321 0.00947
2433.54477 0.00948
2431.49633 0.00945
2429.44789 0.00942
2427.39945 0.00942
2425.35102 0.00942
2423.30258 0.00942
2421.25414 0.00942
2419.20570 0.00942
2417.15726 0.00942
2415.10882 0.00941
2413.06039 0.00939
2411.01195 0.00937
2408.96351 0.00935
2406.91507 0.00934
2404.86663 0.00933
2402.81819 0.00931
2400.76976 0.00929
2398.72132 0.00927
2396.67288 0.00924
2394.62444 0.00921
2392.57600 0.00918
2390.52756 0.00915
2388.47913 0.00913
2386.43069 0.00914
2384.38225 0.00917
2382.33381 0.00921
2380.28537 0.00927
2378.23693 0.00932
2376.18850 0.00937
2374.14006 0.00945
2372.09162 0.00953
2370.04318 0.00967
2367.99474 0.00982
2365.94630 0.00982
2363.89787 0.00976
2361.84943 0.00975
2359.80099 0.00962
2357.75255 0.00943
2355.70411 0.00917
2353.65567 0.00874
2351.60723 0.00844
2349.55880 0.00841
2347.51036 0.00854
2345.46192 0.00866
2343.41348 0.00867
2341.36504 0.00860
2339.31660 0.00849
2337.26817 0.00844
2335.21973 0.00845
2333.17129 0.00834
2331.12285 0.00814
2329.07441 0.00795
2327.02597 0.00782
2324.97754 0.00780
2322.92910 0.00774
2320.88066 0.00759
2318.83222 0.00746
2316.78378 0.00739
2314.73534 0.00740
2312.68691 0.00741
2310.63847 0.00735
2308.59003 0.00726
2306.54159 0.00720
2304.49315 0.00715
2302.44471 0.00710
2300.39628 0.00705
2298.34784 0.00701
2296.29940 0.00696
2294.25096 0.00692
2292.20252 0.00688
2290.15408 0.00684
2288.10565 0.00679
2286.05721 0.00674
2284.00877 0.00671
2281.96033 0.00667
2279.91189 0.00663
2277.86345 0.00660
2275.81502 0.00658
2273.76658 0.00656
2271.71814 0.00654
2269.66970 0.00652
2267.62126 0.00647
2265.57282 0.00642
2263.52439 0.00637
2261.47595 0.00633
2259.42751 0.00631
2257.37907 0.00630
2255.33063 0.00629
2253.28219 0.00627
2251.23376 0.00624
2249.18532 0.00619
2247.13688 0.00615
2245.08844 0.00611
2243.04000 0.00606
2240.99156 0.00603
2238.94313 0.00602
2236.89469 0.00599
2234.84625 0.00595
2232.79781 0.00593
2230.74937 0.00591
2228.70093 0.00588
2226.65250 0.00585
2224.60406 0.00581
2222.55562 0.00576
2220.50718 0.00570
2218.45874 0.00565
2216.41030 0.00559
2214.36186 0.00553
2212.31343 0.00547
2210.26499 0.00540
2208.21655 0.00534
2206.16811 0.00527
2204.11967 0.00520
2202.07123 0.00515
2200.02280 0.00509
2197.97436 0.00502
2195.92592 0.00496
2193.87748 0.00491
2191.82904 0.00485
2189.78060 0.00478
2187.73217 0.00469
2185.68373 0.00458
2183.63529 0.00445
2181.58685 0.00434
2179.53841 0.00424
2177.48997 0.00415
2175.44154 0.00405
2173.39310 0.00394
2171.34466 0.00384
2169.29622 0.00375
2167.24778 0.00365
2165.19934 0.00356
2163.15091 0.00348
2161.10247 0.00340
2159.05403 0.00332
2157.00559 0.00323
2154.95715 0.00316
2152.90871 0.00312
2150.86028 0.00309
2148.81184 0.00304
2146.76340 0.00299
2144.71496 0.00294
2142.66652 0.00289
2140.61808 0.00285
2138.56965 0.00284
2136.52121 0.00283
2134.47277 0.00280
2132.42433 0.00273
2130.37589 0.00269
2128.32745 0.00268
2126.27902 0.00268
2124.23058 0.00264
2122.18214 0.00260
2120.13370 0.00256
2118.08526 0.00250
2116.03682 0.00247
2113.98839 0.00246
2111.93995 0.00245
2109.89151 0.00243
2107.84307 0.00242
2105.79463 0.00243
2103.74619 0.00244
2101.69776 0.00244
2099.64932 0.00244
2097.60088 0.00244
2095.55244 0.00242
2093.50400 0.00239
2091.45556 0.00237
2089.40713 0.00235
2087.35869 0.00233
2085.31025 0.00230
2083.26181 0.00228
2081.21337 0.00230
2079.16493 0.00230
2077.11649 0.00228
2075.06806 0.00226
2073.01962 0.00225
2070.97118 0.00225
2068.92274 0.00224
2066.87430 0.00224
2064.82586 0.00225
2062.77743 0.00225
2060.72899 0.00225
2058.68055 0.00224
2056.63211 0.00225
2054.58367 0.00224
2052.53523 0.00223
2050.48680 0.00225
2048.43836 0.00229
2046.38992 0.00231
2044.34148 0.00231
2042.29304 0.00231
2040.24460 0.00231
2038.19617 0.00230
2036.14773 0.00228
2034.09929 0.00229
2032.05085 0.00232
2030.00241 0.00234
2027.95397 0.00234
2025.90554 0.00233
2023.85710 0.00233
2021.80866 0.00235
2019.76022 0.00239
2017.71178 0.00241
2015.66334 0.00239
2013.61491 0.00236
2011.56647 0.00236
2009.51803 0.00237
2007.46959 0.00238
2005.42115 0.00237
2003.37271 0.00236
2001.32428 0.00235
1999.27584 0.00233
1997.22740 0.00231
1995.17896 0.00227
1993.13052 0.00222
1991.08208 0.00217
1989.03365 0.00216
1986.98521 0.00215
1984.93677 0.00211
1982.88833 0.00207
1980.83989 0.00207
1978.79145 0.00206
1976.74302 0.00205
1974.69458 0.00205
1972.64614 0.00206
1970.59770 0.00207
1968.54926 0.00208
1966.50082 0.00210
1964.45239 0.00213
1962.40395 0.00217
1960.35551 0.00220
1958.30707 0.00223
1956.25863 0.00225
1954.21019 0.00228
1952.16176 0.00232
1950.11332 0.00235
1948.06488 0.00235
1946.01644 0.00237
1943.96800 0.00241
1941.91956 0.00247
1939.87112 0.00252
1937.82269 0.00257
1935.77425 0.00261
1933.72581 0.00265
1931.67737 0.00268
1929.62893 0.00271
1927.58049 0.00276
1925.53206 0.00282
1923.48362 0.00285
1921.43518 0.00287
1919.38674 0.00290
1917.33830 0.00291
1915.28986 0.00292
1913.24143 0.00292
1911.19299 0.00292
1909.14455 0.00291
1907.09611 0.00290
1905.04767 0.00291
1902.99923 0.00292
1900.95080 0.00292
1898.90236 0.00291
1896.85392 0.00290
1894.80548 0.00288
1892.75704 0.00289
1890.70860 0.00289
1888.66017 0.00290
1886.61173 0.00291
1884.56329 0.00292
1882.51485 0.00291
1880.46641 0.00290
1878.41797 0.00289
1876.36954 0.00287
1874.32110 0.00285
1872.27266 0.00286
1870.22422 0.00288
1868.17578 0.00285
1866.12734 0.00282
1864.07891 0.00282
1862.03047 0.00283
1859.98203 0.00284
1857.93359 0.00285
1855.88515 0.00284
1853.83671 0.00283
1851.78828 0.00284
1849.73984 0.00286
1847.69140 0.00288
1845.64296 0.00288
1843.59452 0.00283
1841.54608 0.00278
1839.49765 0.00278
1837.44921 0.00280
1835.40077 0.00280
1833.35233 0.00281
1831.30389 0.00282
1829.25545 0.00280
1827.20702 0.00276
1825.15858 0.00274
1823.11014 0.00271
1821.06170 0.00269
1819.01326 0.00267
1816.96482 0.00265
1814.91639 0.00265
1812.86795 0.00266
1810.81951 0.00266
1808.77107 0.00265
1806.72263 0.00263
1804.67419 0.00261
1802.62575 0.00257
1800.57732 0.00251
1798.52888 0.00246
1796.48044 0.00243
1794.43200 0.00240
1792.38356 0.00235
1790.33512 0.00231
1788.28669 0.00230
1786.23825 0.00229
1784.18981 0.00225
1782.14137 0.00220
1780.09293 0.00215
1778.04449 0.00212
1775.99606 0.00211
1773.94762 0.00207
1771.89918 0.00199
1769.85074 0.00194
1767.80230 0.00192
1765.75386 0.00190
1763.70543 0.00189
1761.65699 0.00189
1759.60855 0.00185
1757.56011 0.00181
1755.51167 0.00178
1753.46323 0.00178
1751.41480 0.00178
1749.36636 0.00173
1747.31792 0.00167
1745.26948 0.00165
1743.22104 0.00161
1741.17260 0.00156
1739.12417 0.00151
1737.07573 0.00148
1735.02729 0.00144
1732.97885 0.00138
1730.93041 0.00137
1728.88197 0.00135
1726.83354 0.00133
1724.78510 0.00132
1722.73666 0.00131
1720.68822 0.00131
1718.63978 0.00130
1716.59134 0.00126
1714.54291 0.00122
1712.49447 0.00122
1710.44603 0.00123
1708.39759 0.00123
1706.34915 0.00123
1704.30071 0.00125
1702.25228 0.00124
1700.20384 0.00116
1698.15540 0.00109
1696.10696 0.00109
1694.05852 0.00109
1692.01008 0.00110
1689.96165 0.00110
1687.91321 0.00112
1685.86477 0.00115
1683.81633 0.00109
1681.76789 0.00098
1679.71945 0.00098
1677.67102 0.00101
1675.62258 0.00104
1673.57414 0.00103
1671.52570 0.00102
1669.47726 0.00101
1667.42882 0.00101
1665.38038 0.00103
1663.33195 0.00107
1661.28351 0.00106
1659.23507 0.00103
1657.18663 0.00103
1655.13819 0.00104
1653.08975 0.00101
1651.04132 0.00097
1648.99288 0.00100
1646.94444 0.00099
1644.89600 0.00093
1642.84756 0.00094
1640.79912 0.00097
1638.75069 0.00097
1636.70225 0.00093
1634.65381 0.00092
1632.60537 0.00095
1630.55693 0.00095
1628.50849 0.00096
1626.46006 0.00097
1624.41162 0.00098
1622.36318 0.00097
1620.31474 0.00096
1618.26630 0.00096
1616.21786 0.00096
1614.16943 0.00096
1612.12099 0.00098
1610.07255 0.00100
1608.02411 0.00100
1605.97567 0.00100
1603.92723 0.00099
1601.87880 0.00097
1599.83036 0.00099
1597.78192 0.00101
1595.73348 0.00101
1593.68504 0.00100
1591.63660 0.00099
1589.58817 0.00101
1587.53973 0.00103
1585.49129 0.00101
1583.44285 0.00100
1581.39441 0.00101
1579.34597 0.00102
1577.29754 0.00102
1575.24910 0.00100
1573.20066 0.00100
1571.15222 0.00101
1569.10378 0.00100
1567.05534 0.00099
1565.00691 0.00101
1562.95847 0.00104
1560.91003 0.00105
1558.86159 0.00096
1556.81315 0.00089
1554.76471 0.00094
1552.71628 0.00101
1550.66784 0.00105
1548.61940 0.00104
1546.57096 0.00101
1544.52252 0.00100
1542.47408 0.00095
1540.42565 0.00093
1538.37721 0.00097
1536.32877 0.00099
1534.28033 0.00099
1532.23189 0.00099
1530.18345 0.00100
1528.13501 0.00101
1526.08658 0.00103
1524.03814 0.00105
1521.98970 0.00105
1519.94126 0.00104
1517.89282 0.00104
1515.84438 0.00103
1513.79595 0.00100
1511.74751 0.00102
1509.69907 0.00105
1507.65063 0.00110
1505.60219 0.00107
1503.55375 0.00104
1501.50532 0.00106
1499.45688 0.00107
1497.40844 0.00103
1495.36000 0.00100
1493.31156 0.00103
1491.26312 0.00107
1489.21469 0.00108
1487.16625 0.00104
1485.11781 0.00101
1483.06937 0.00101
1481.02093 0.00101
1478.97249 0.00102
1476.92406 0.00103
1474.87562 0.00103
1472.82718 0.00098
1470.77874 0.00095
1468.73030 0.00098
1466.68186 0.00100
1464.63343 0.00098
1462.58499 0.00097
1460.53655 0.00100
1458.48811 0.00103
1456.43967 0.00099
1454.39123 0.00095
1452.34280 0.00095
1450.29436 0.00096
1448.24592 0.00096
1446.19748 0.00094
1444.14904 0.00095
1442.10060 0.00096
1440.05217 0.00097
1438.00373 0.00097
1435.95529 0.00093
1433.90685 0.00092
1431.85841 0.00095
1429.80997 0.00097
1427.76154 0.00096
1425.71310 0.00096
1423.66466 0.00094
1421.61622 0.00091
1419.56778 0.00089
1417.51934 0.00089
1415.47091 0.00091
1413.42247 0.00093
1411.37403 0.00093
1409.32559 0.00093
1407.27715 0.00092
1405.22871 0.00090
1403.18028 0.00089
1401.13184 0.00090
1399.08340 0.00091
1397.03496 0.00092
1394.98652 0.00091
1392.93808 0.00090
1390.88965 0.00093
1388.84121 0.00096
1386.79277 0.00095
1384.74433 0.00092
1382.69589 0.00092
1380.64745 0.00093
1378.59901 0.00093
1376.55058 0.00093
1374.50214 0.00091
1372.45370 0.00089
1370.40526 0.00087
1368.35682 0.00086
1366.30838 0.00087
1364.25995 0.00088
1362.21151 0.00086
1360.16307 0.00085
1358.11463 0.00085
1356.06619 0.00085
1354.01775 0.00085
1351.96932 0.00084
1349.92088 0.00085
1347.87244 0.00085
1345.82400 0.00085
1343.77556 0.00085
1341.72712 0.00087
1339.67869 0.00086
1337.63025 0.00082
1335.58181 0.00079
1333.53337 0.00078
1331.48493 0.00078
1329.43649 0.00079
1327.38806 0.00080
1325.33962 0.00081
1323.29118 0.00081
1321.24274 0.00080
1319.19430 0.00079
1317.14586 0.00078
1315.09743 0.00079
1313.04899 0.00080
1311.00055 0.00079
1308.95211 0.00077
1306.90367 0.00077
1304.85523 0.00076
1302.80680 0.00075
1300.75836 0.00075
1298.70992 0.00075
1296.66148 0.00074
1294.61304 0.00074
1292.56460 0.00075
1290.51617 0.00076
1288.46773 0.00076
1286.41929 0.00076
1284.37085 0.00075
1282.32241 0.00073
1280.27397 0.00074
1278.22554 0.00075
1276.17710 0.00074
1274.12866 0.00072
1272.08022 0.00071
1270.03178 0.00070
1267.98334 0.00070
1265.93491 0.00069
1263.88647 0.00068
1261.83803 0.00066
1259.78959 0.00065
1257.74115 0.00063
1255.69271 0.00062
1253.64428 0.00061
1251.59584 0.00061
1249.54740 0.00062
1247.49896 0.00061
1245.45052 0.00060
1243.40208 0.00060
1241.35364 0.00060
1239.30521 0.00059
1237.25677 0.00059
1235.20833 0.00060
1233.15989 0.00060
1231.11145 0.00058
1229.06301 0.00056
1227.01458 0.00056
1224.96614 0.00057
1222.91770 0.00059
1220.86926 0.00060
1218.82082 0.00061
1216.77238 0.00060
1214.72395 0.00059
1212.67551 0.00059
1210.62707 0.00061
1208.57863 0.00064
1206.53019 0.00068
1204.48175 0.00072
1202.43332 0.00075
1200.38488 0.00079
1198.33644 0.00085
1196.28800 0.00093
1194.23956 0.00100
1192.19112 0.00107
1190.14269 0.00116
1188.09425 0.00126
1186.04581 0.00136
1183.99737 0.00146
1181.94893 0.00155
1179.90049 0.00162
1177.85206 0.00170
1175.80362 0.00178
1173.75518 0.00184
1171.70674 0.00189
1169.65830 0.00194
1167.60986 0.00199
1165.56143 0.00205
1163.51299 0.00213
1161.46455 0.00222
1159.41611 0.00230
1157.36767 0.00234
1155.31923 0.00237
1153.27080 0.00240
1151.22236 0.00243
1149.17392 0.00246
1147.12548 0.00249
1145.07704 0.00251
1143.02860 0.00256
1140.98017 0.00262
1138.93173 0.00265
1136.88329 0.00267
1134.83485 0.00269
1132.78641 0.00272
1130.73797 0.00274
1128.68954 0.00276
1126.64110 0.00279
1124.59266 0.00282
1122.54422 0.00284
1120.49578 0.00285
1118.44734 0.00283
1116.39891 0.00280
1114.35047 0.00281
1112.30203 0.00282
1110.25359 0.00282
1108.20515 0.00283
1106.15671 0.00283
1104.10827 0.00281
1102.05984 0.00279
1100.01140 0.00279
1097.96296 0.00279
1095.91452 0.00280
1093.86608 0.00280
1091.81764 0.00282
1089.76921 0.00286
1087.72077 0.00291
1085.67233 0.00296
1083.62389 0.00302
1081.57545 0.00312
1079.52701 0.00325
1077.47858 0.00338
1075.43014 0.00352
1073.38170 0.00368
1071.33326 0.00388
1069.28482 0.00413
1067.23638 0.00441
1065.18795 0.00472
1063.13951 0.00507
1061.09107 0.00545
1059.04263 0.00584
1056.99419 0.00625
1054.94575 0.00669
1052.89732 0.00714
1050.84888 0.00757
1048.80044 0.00799
1046.75200 0.00841
1044.70356 0.00882
1042.65512 0.00922
1040.60669 0.00957
1038.55825 0.00987
1036.50981 0.01012
1034.46137 0.01035
1032.41293 0.01054
1030.36449 0.01070
1028.31606 0.01084
1026.26762 0.01098
1024.21918 0.01112
1022.17074 0.01126
1020.12230 0.01135
1018.07386 0.01141
1016.02543 0.01145
1013.97699 0.01149
1011.92855 0.01150
1009.88011 0.01144
1007.83167 0.01132
1005.78323 0.01117
1003.73480 0.01100
1001.68636 0.01081
999.63792 0.01061
997.58948 0.01041
995.54104 0.01023
993.49260 0.01008
991.44417 0.01001
989.39573 0.01001
987.34729 0.01003
985.29885 0.01005
983.25041 0.01002
981.20197 0.00996
979.15354 0.00991
977.10510 0.00985
975.05666 0.00975
973.00822 0.00963
970.95978 0.00950
968.91134 0.00939
966.86290 0.00924
964.81447 0.00904
962.76603 0.00880
960.71759 0.00857
958.66915 0.00833
956.62071 0.00807
954.57227 0.00783
952.52384 0.00760
950.47540 0.00740
948.42696 0.00723
946.37852 0.00707
944.33008 0.00691
942.28164 0.00676
940.23321 0.00663
938.18477 0.00647
936.13633 0.00633
934.08789 0.00627
932.03945 0.00627
929.99101 0.00629
927.94258 0.00631
925.89414 0.00630
923.84570 0.00626
921.79726 0.00621
919.74882 0.00615
917.70038 0.00608
915.65195 0.00603
913.60351 0.00601
911.55507 0.00599
909.50663 0.00596
907.45819 0.00592
905.40975 0.00591
903.36132 0.00592
901.31288 0.00593
899.26444 0.00597
897.21600 0.00604
895.16756 0.00608
893.11912 0.00609
891.07069 0.00611
889.02225 0.00616
886.97381 0.00619
884.92537 0.00617
882.87693 0.00618
880.82849 0.00620
878.78006 0.00621
876.73162 0.00618
874.68318 0.00613
872.63474 0.00606
870.58630 0.00599
868.53786 0.00594
866.48943 0.00592
864.44099 0.00589
862.39255 0.00581
860.34411 0.00570
858.29567 0.00557
856.24723 0.00541
854.19880 0.00520
852.15036 0.00493
850.10192 0.00462
848.05348 0.00437
846.00504 0.00416
843.95660 0.00397
841.90817 0.00380
839.85973 0.00366
837.81129 0.00355
835.76285 0.00345
833.71441 0.00334
831.66597 0.00326
829.61753 0.00319
827.56910 0.00312
825.52066 0.00308
823.47222 0.00305
821.42378 0.00298
819.37534 0.00289
817.32690 0.00279
815.27847 0.00273
813.23003 0.00271
811.18159 0.00268
809.13315 0.00264
807.08471 0.00263
805.03627 0.00258
802.98784 0.00252
800.93940 0.00251
798.89096 0.00253
796.84252 0.00252
794.79408 0.00247
792.74564 0.00238
790.69721 0.00226
788.64877 0.00220
786.60033 0.00219
784.55189 0.00214
782.50345 0.00203
780.45501 0.00194
778.40658 0.00193
776.35814 0.00196
774.30970 0.00196
772.26126 0.00185
770.21282 0.00175
768.16438 0.00173
766.11595 0.00174
764.06751 0.00174
762.01907 0.00170
759.97063 0.00166
757.92219 0.00166
755.87375 0.00166
753.82532 0.00158
751.77688 0.00153
749.72844 0.00153
747.68000 0.00152
745.63156 0.00150
743.58312 0.00145
741.53469 0.00139
739.48625 0.00140
737.43781 0.00145
735.38937 0.00156
733.34093 0.00165
731.29249 0.00168
729.24406 0.00171
727.19562 0.00179
725.14718 0.00191
723.09874 0.00202
721.05030 0.00208
719.00186 0.00206
716.95343 0.00198
714.90499 0.00196
712.85655 0.00203
710.80811 0.00208
708.75967 0.00210
706.71123 0.00214
704.66280 0.00215
702.61436 0.00215
700.56592 0.00223
698.51748 0.00234
696.46904 0.00239
694.42060 0.00242
692.37216 0.00245
690.32373 0.00241
688.27529 0.00224
686.22685 0.00203
684.17841 0.00196
682.12997 0.00205
680.08153 0.00208
678.03310 0.00203
675.98466 0.00210
673.93622 0.00210
671.88778 0.00198
669.83934 0.00199
667.79090 0.00210
665.74247 0.00199
663.69403 0.00187
661.64559 0.00188
659.59715 0.00212
657.54871 0.00237
655.50027 0.00231
653.45184 0.00213
651.40340 0.00218
649.35496 0.00249
647.30652 0.00265
645.25808 0.00244
643.20964 0.00209
641.16121 0.00190
639.11277 0.00194
637.06433 0.00205
635.01589 0.00210
632.96745 0.00207
630.91901 0.00189
628.87058 0.00168
626.82214 0.00161
624.77370 0.00161
622.72526 0.00186
620.67682 0.00221
618.62838 0.00241
616.57995 0.00271
614.53151 0.00296
612.48307 0.00292
610.43463 0.00274
608.38619 0.00252
606.33775 0.00238
604.28932 0.00233
602.24088 0.00223
600.19244 0.00213
598.14400 0.00214
