3996.50324 0.02040
3994.45480 0.02041
3992.40636 0.02036
3990.35792 0.02029
3988.30948 0.02023
3986.26104 0.02024
3984.21261 0.02029
3982.16417 0.02032
3980.11573 0.02034
3978.06729 0.02039
3976.01885 0.02039
3973.97041 0.02029
3971.92198 0.02019
3969.87354 0.02017
3967.82510 0.02017
3965.77666 0.02020
3963.72822 0.02023
3961.67978 0.02021
3959.63135 0.02016
3957.58291 0.02017
3955.53447 0.02019
3953.48603 0.02025
3951.43759 0.02030
3949.38915 0.02020
3947.34072 0.02005
3945.29228 0.02011
3943.24384 0.02013
3941.19540 0.01992
3939.14696 0.01988
3937.09852 0.02005
3935.05009 0.02027
3933.00165 0.02039
3930.95321 0.02026
3928.90477 0.02014
3926.85633 0.02023
3924.80789 0.02026
3922.75946 0.02016
3920.71102 0.02021
3918.66258 0.02025
3916.61414 0.02006
3914.56570 0.01999
3912.51726 0.02014
3910.46883 0.02033
3908.42039 0.02057
3906.37195 0.02091
3904.32351 0.02089
3902.27507 0.02050
3900.22663 0.02028
3898.17820 0.02013
3896.12976 0.02023
3894.08132 0.02062
3892.03288 0.02067
3889.98444 0.02034
3887.93600 0.02046
3885.88756 0.02059
3883.83913 0.02041
3881.79069 0.02047
3879.74225 0.02030
3877.69381 0.02026
3875.64537 0.02072
3873.59693 0.02103
3871.54850 0.02097
3869.50006 0.02056
3867.45162 0.02035
3865.40318 0.02056
3863.35474 0.02040
3861.30630 0.02019
3859.25787 0.02049
3857.20943 0.02112
3855.16099 0.02168
3853.11255 0.02071
3851.06411 0.01956
3849.01567 0.01983
3846.96724 0.02047
3844.91880 0.02092
3842.87036 0.02104
3840.82192 0.02103
3838.77348 0.02074
3836.72504 0.02014
3834.67661 0.02001
3832.62817 0.02014
3830.57973 0.02024
3828.53129 0.02044
3826.48285 0.02061
3824.43441 0.02086
3822.38598 0.02113
3820.33754 0.02052
3818.28910 0.02016
3816.24066 0.02016
3814.19222 0.01985
3812.14378 0.01997
3810.09535 0.02045
3808.04691 0.02068
3805.99847 0.02041
3803.95003 0.02046
3801.90159 0.02042
3799.85315 0.01980
3797.80472 0.01970
3795.75628 0.01973
3793.70784 0.01973
3791.65940 0.01987
3789.61096 0.01993
3787.56252 0.01997
3785.51409 0.01995
3783.46565 0.01989
3781.41721 0.02000
3779.36877 0.01988
3777.32033 0.01957
3775.27189 0.01963
3773.22346 0.01990
3771.17502 0.01998
3769.12658 0.01963
3767.07814 0.01929
3765.02970 0.01917
3762.98126 0.01922
3760.93283 0.01937
3758.88439 0.01915
3756.83595 0.01892
3754.78751 0.01926
3752.73907 0.01964
3750.69063 0.01901
3748.64219 0.01830
3746.59376 0.01849
3744.54532 0.01828
3742.49688 0.01779
3740.44844 0.01800
3738.40000 0.01843
3736.35156 0.01834
3734.30313 0.01738
3732.25469 0.01665
3730.20625 0.01657
3728.15781 0.01670
3726.10937 0.01659
3724.06093 0.01616
3722.01250 0.01569
3719.96406 0.01525
3717.91562 0.01496
3715.86718 0.01491
3713.81874 0.01499
3711.77030 0.01471
3709.72187 0.01402
3707.67343 0.01376
3705.62499 0.01378
3703.57655 0.01372
3701.52811 0.01336
3699.47967 0.01301
3697.43124 0.01290
3695.38280 0.01281
3693.33436 0.01266
3691.28592 0.01248
3689.23748 0.01205
3687.18904 0.01156
3685.14061 0.01134
3683.09217 0.01128
3681.04373 0.01120
3678.99529 0.01105
3676.94685 0.01080
3674.89841 0.01026
3672.84998 0.01001
3670.80154 0.00992
3668.75310 0.00955
3666.70466 0.00929
3664.65622 0.00917
3662.60778 0.00902
3660.55935 0.00886
3658.51091 0.00871
3656.46247 0.00848
3654.41403 0.00824
3652.36559 0.00814
3650.31715 0.00800
3648.26872 0.00755
3646.22028 0.00719
3644.17184 0.00705
3642.12340 0.00695
3640.07496 0.00681
3638.02652 0.00672
3635.97809 0.00666
3633.92965 0.00657
3631.88121 0.00649
3629.83277 0.00644
3627.78433 0.00631
3625.73589 0.00619
3623.68746 0.00614
3621.63902 0.00613
3619.59058 0.00612
3617.54214 0.00603
3615.49370 0.00596
3613.44526 0.00596
3611.39682 0.00597
3609.34839 0.00596
3607.29995 0.00596
3605.25151 0.00597
3603.20307 0.00595
3601.15463 0.00588
3599.10619 0.00585
3597.05776 0.00587
3595.00932 0.00588
3592.96088 0.00589
3590.91244 0.00589
3588.86400 0.00587
3586.81556 0.00584
3584.76713 0.00582
3582.71869 0.00583
3580.67025 0.00581
3578.62181 0.00575
3576.57337 0.00571
3574.52493 0.00571
3572.47650 0.00571
3570.42806 0.00576
3568.37962 0.00582
3566.33118 0.00574
3564.28274 0.00562
3562.23430 0.00561
3560.18587 0.00566
3558.13743 0.00567
3556.08899 0.00564
3554.04055 0.00562
3551.99211 0.00559
3549.94367 0.00561
3547.89524 0.00565
3545.84680 0.00561
3543.79836 0.00552
3541.74992 0.00553
3539.70148 0.00557
3537.65304 0.00560
3535.60461 0.00562
3533.55617 0.00561
3531.50773 0.00560
3529.45929 0.00564
3527.41085 0.00565
3525.36241 0.00562
3523.31398 0.00560
3521.26554 0.00558
3519.21710 0.00560
3517.16866 0.00564
3515.12022 0.00567
3513.07178 0.00568
3511.02335 0.00567
3508.97491 0.00562
3506.92647 0.00556
3504.87803 0.00552
3502.82959 0.00550
3500.78115 0.00552
3498.73272 0.00557
3496.68428 0.00563
3494.63584 0.00569
3492.58740 0.00571
3490.53896 0.00569
3488.49052 0.00567
3486.44209 0.00565
3484.39365 0.00559
3482.34521 0.00554
3480.29677 0.00550
3478.24833 0.00547
3476.19989 0.00547
3474.15146 0.00553
3472.10302 0.00561
3470.05458 0.00565
3468.00614 0.00565
3465.95770 0.00563
3463.90926 0.00559
3461.86082 0.00555
3459.81239 0.00556
3457.76395 0.00555
3455.71551 0.00552
3453.66707 0.00550
3451.61863 0.00553
3449.57019 0.00555
3447.52176 0.00555
3445.47332 0.00552
3443.42488 0.00549
3441.37644 0.00550
3439.32800 0.00554
3437.27956 0.00559
3435.23113 0.00562
3433.18269 0.00558
3431.13425 0.00549
3429.08581 0.00544
3427.03737 0.00548
3424.98893 0.00551
3422.94050 0.00546
3420.89206 0.00541
3418.84362 0.00541
3416.79518 0.00542
3414.74674 0.00545
3412.69830 0.00549
3410.64987 0.00552
3408.60143 0.00554
3406.55299 0.00551
3404.50455 0.00546
3402.45611 0.00546
3400.40767 0.00549
3398.35924 0.00551
3396.31080 0.00552
3394.26236 0.00552
3392.21392 0.00550
3390.16548 0.00545
3388.11704 0.00541
3386.06861 0.00542
3384.02017 0.00545
3381.97173 0.00547
3379.92329 0.00549
3377.87485 0.00551
3375.82641 0.00549
3373.77798 0.00547
3371.72954 0.00549
3369.68110 0.00553
3367.63266 0.00556
3365.58422 0.00556
3363.53578 0.00555
3361.48735 0.00555
3359.43891 0.00555
3357.39047 0.00554
3355.34203 0.00555
3353.29359 0.00555
3351.24515 0.00556
3349.19672 0.00558
3347.14828 0.00558
3345.09984 0.00558
3343.05140 0.00559
3341.00296 0.00561
3338.95452 0.00561
3336.90609 0.00560
3334.85765 0.00558
3332.80921 0.00557
3330.76077 0.00559
3328.71233 0.00565
3326.66389 0.00570
3324.61545 0.00572
3322.56702 0.00572
3320.51858 0.00569
3318.47014 0.00566
3316.42170 0.00568
3314.37326 0.00570
3312.32482 0.00570
3310.27639 0.00569
3308.22795 0.00570
3306.17951 0.00572
3304.13107 0.00574
3302.08263 0.00575
3300.03419 0.00574
3297.98576 0.00574
3295.93732 0.00574
3293.88888 0.00573
3291.84044 0.00572
3289.79200 0.00574
3287.74356 0.00577
3285.69513 0.00580
3283.64669 0.00582
3281.59825 0.00584
3279.54981 0.00588
3277.50137 0.00591
3275.45293 0.00591
3273.40450 0.00589
3271.35606 0.00589
3269.30762 0.00591
3267.25918 0.00592
3265.21074 0.00591
3263.16230 0.00590
3261.11387 0.00592
3259.06543 0.00596
3257.01699 0.00599
3254.96855 0.00601
3252.92011 0.00601
3250.87167 0.00603
3248.82324 0.00607
3246.77480 0.00608
3244.72636 0.00604
3242.67792 0.00602
3240.62948 0.00603
3238.58104 0.00604
3236.53261 0.00605
3234.48417 0.00606
3232.43573 0.00608
3230.38729 0.00614
3228.33885 0.00618
3226.29041 0.00620
3224.24198 0.00620
3222.19354 0.00620
3220.14510 0.00621
3218.09666 0.00621
3216.04822 0.00620
3213.99978 0.00619
3211.95135 0.00620
3209.90291 0.00624
3207.85447 0.00626
3205.80603 0.00626
3203.75759 0.00626
3201.70915 0.00629
3199.66072 0.00634
3197.61228 0.00637
3195.56384 0.00638
3193.51540 0.00640
3191.46696 0.00642
3189.41852 0.00642
3187.37008 0.00642
3185.32165 0.00646
3183.27321 0.00654
3181.22477 0.00658
3179.17633 0.00655
3177.12789 0.00652
3175.07945 0.00653
3173.03102 0.00656
3170.98258 0.00659
3168.93414 0.00663
3166.88570 0.00667
3164.83726 0.00672
3162.78882 0.00674
3160.74039 0.00675
3158.69195 0.00679
3156.64351 0.00679
3154.59507 0.00678
3152.54663 0.00679
3150.49819 0.00681
3148.44976 0.00684
3146.40132 0.00689
3144.35288 0.00693
3142.30444 0.00697
3140.25600 0.00701
3138.20756 0.00705
3136.15913 0.00709
3134.11069 0.00713
3132.06225 0.00715
3130.01381 0.00717
3127.96537 0.00716
3125.91693 0.00715
3123.86850 0.00716
3121.82006 0.00720
3119.77162 0.00725
3117.72318 0.00731
3115.67474 0.00734
3113.62630 0.00735
3111.57787 0.00736
3109.52943 0.00739
3107.48099 0.00743
3105.43255 0.00746
3103.38411 0.00747
3101.33567 0.00748
3099.28724 0.00750
3097.23880 0.00754
3095.19036 0.00758
3093.14192 0.00757
3091.09348 0.00756
3089.04504 0.00758
3086.99661 0.00765
3084.94817 0.00772
3082.89973 0.00775
3080.85129 0.00775
3078.80285 0.00773
3076.75441 0.00770
3074.70598 0.00769
3072.65754 0.00775
3070.60910 0.00781
3068.56066 0.00785
3066.51222 0.00787
3064.46378 0.00788
3062.41535 0.00791
3060.36691 0.00796
3058.31847 0.00800
3056.27003 0.00803
3054.22159 0.00803
3052.17315 0.00806
3050.12471 0.00812
3048.07628 0.00817
3046.02784 0.00818
3043.97940 0.00820
3041.93096 0.00823
3039.88252 0.00829
3037.83408 0.00832
3035.78565 0.00833
3033.73721 0.00832
3031.68877 0.00833
3029.64033 0.00837
3027.59189 0.00843
3025.54345 0.00848
3023.49502 0.00853
3021.44658 0.00855
3019.39814 0.00857
3017.34970 0.00861
3015.30126 0.00863
3013.25282 0.00863
3011.20439 0.00867
3009.15595 0.00872
3007.10751 0.00874
3005.05907 0.00873
3003.01063 0.00874
3000.96219 0.00874
2998.91376 0.00872
2996.86532 0.00870
2994.81688 0.00871
2992.76844 0.00870
2990.72000 0.00870
2988.67156 0.00870
2986.62313 0.00867
2984.57469 0.00859
2982.52625 0.00848
2980.47781 0.00840
2978.42937 0.00832
2976.38093 0.00821
2974.33250 0.00807
2972.28406 0.00789
2970.23562 0.00769
2968.18718 0.00749
2966.13874 0.00729
2964.09030 0.00707
2962.04187 0.00685
2959.99343 0.00669
2957.94499 0.00662
2955.89655 0.00661
2953.84811 0.00661
2951.79967 0.00663
2949.75124 0.00669
2947.70280 0.00672
2945.65436 0.00673
2943.60592 0.00671
2941.55748 0.00666
2939.50904 0.00655
2937.46061 0.00642
2935.41217 0.00626
2933.36373 0.00610
2931.31529 0.00597
2929.26685 0.00587
2927.21841 0.00580
2925.16998 0.00574
2923.12154 0.00568
2921.07310 0.00567
2919.02466 0.00574
2916.97622 0.00585
2914.92778 0.00597
2912.87934 0.00610
2910.83091 0.00624
2908.78247 0.00638
2906.73403 0.00650
2904.68559 0.00660
2902.63715 0.00669
2900.58871 0.00680
2898.54028 0.00693
2896.49184 0.00704
2894.44340 0.00715
2892.39496 0.00726
2890.34652 0.00740
2888.29808 0.00755
2886.24965 0.00769
2884.20121 0.00779
2882.15277 0.00784
2880.10433 0.00783
2878.05589 0.00776
2876.00745 0.00769
2873.95902 0.00762
2871.91058 0.00754
2869.86214 0.00748
2867.81370 0.00744
2865.76526 0.00740
2863.71682 0.00731
2861.66839 0.00718
2859.61995 0.00703
2857.57151 0.00684
2855.52307 0.00666
2853.47463 0.00656
2851.42619 0.00656
2849.37776 0.00667
2847.32932 0.00694
2845.28088 0.00733
2843.23244 0.00774
2841.18400 0.00818
2839.13556 0.00861
2837.08713 0.00904
2835.03869 0.00943
2832.99025 0.00976
2830.94181 0.01003
2828.89337 0.01025
2826.84493 0.01047
2824.79650 0.01067
2822.74806 0.01082
2820.69962 0.01095
2818.65118 0.01109
2816.60274 0.01121
2814.55430 0.01128
2812.50587 0.01133
2810.45743 0.01142
2808.40899 0.01151
2806.36055 0.01159
2804.31211 0.01168
2802.26367 0.01174
2800.21524 0.01180
2798.16680 0.01188
2796.11836 0.01197
2794.06992 0.01204
2792.02148 0.01210
2789.97304 0.01217
2787.92461 0.01222
2785.87617 0.01226
2783.82773 0.01233
2781.77929 0.01240
2779.73085 0.01246
2777.68241 0.01251
2775.63397 0.01255
2773.58554 0.01261
2771.53710 0.01268
2769.48866 0.01274
2767.44022 0.01277
2765.39178 0.01280
2763.34334 0.01284
2761.29491 0.01286
2759.24647 0.01289
2757.19803 0.01294
2755.14959 0.01297
2753.10115 0.01299
2751.05271 0.01302
2749.00428 0.01309
2746.95584 0.01316
2744.90740 0.01319
2742.85896 0.01319
2740.81052 0.01317
2738.76208 0.01318
2736.71365 0.01321
2734.66521 0.01324
2732.61677 0.01325
2730.56833 0.01326
2728.51989 0.01326
2726.47145 0.01325
2724.42302 0.01326
2722.37458 0.01330
2720.32614 0.01336
2718.27770 0.01343
2716.22926 0.01346
2714.18082 0.01347
2712.13239 0.01349
2710.08395 0.01353
2708.03551 0.01356
2705.98707 0.01359
2703.93863 0.01361
2701.89019 0.01361
2699.84176 0.01363
2697.79332 0.01367
2695.74488 0.01370
2693.69644 0.01371
2691.64800 0.01371
2689.59956 0.01372
2687.55113 0.01375
2685.50269 0.01376
2683.45425 0.01377
2681.40581 0.01379
2679.35737 0.01382
2677.30893 0.01385
2675.26050 0.01386
2673.21206 0.01385
2671.16362 0.01386
2669.11518 0.01389
2667.06674 0.01391
2665.01830 0.01390
2662.96987 0.01393
2660.92143 0.01400
2658.87299 0.01405
2656.82455 0.01406
2654.77611 0.01405
2652.72767 0.01406
2650.67924 0.01410
2648.63080 0.01412
2646.58236 0.01410
2644.53392 0.01409
2642.48548 0.01413
2640.43704 0.01419
2638.38860 0.01423
2636.34017 0.01424
2634.29173 0.01424
2632.24329 0.01423
2630.19485 0.01420
2628.14641 0.01418
2626.09797 0.01419
2624.04954 0.01422
2622.00110 0.01425
2619.95266 0.01426
2617.90422 0.01424
2615.85578 0.01424
2613.80734 0.01426
2611.75891 0.01427
2609.71047 0.01427
2607.66203 0.01424
2605.61359 0.01420
2603.56515 0.01418
2601.51671 0.01419
2599.46828 0.01421
2597.41984 0.01423
2595.37140 0.01423
2593.32296 0.01420
2591.27452 0.01419
2589.22608 0.01418
2587.17765 0.01416
2585.12921 0.01411
2583.08077 0.01405
2581.03233 0.01399
2578.98389 0.01394
2576.93545 0.01387
2574.88702 0.01381
2572.83858 0.01378
2570.79014 0.01374
2568.74170 0.01367
2566.69326 0.01360
2564.64482 0.01352
2562.59639 0.01345
2560.54795 0.01347
2558.49951 0.01354
2556.45107 0.01366
2554.40263 0.01380
2552.35419 0.01390
2550.30576 0.01397
2548.25732 0.01401
2546.20888 0.01406
2544.16044 0.01412
2542.11200 0.01415
2540.06356 0.01418
2538.01513 0.01420
2535.96669 0.01419
2533.91825 0.01414
2531.86981 0.01407
2529.82137 0.01398
2527.77293 0.01387
2525.72450 0.01377
2523.67606 0.01370
2521.62762 0.01364
2519.57918 0.01362
2517.53074 0.01365
2515.48230 0.01371
2513.43387 0.01377
2511.38543 0.01381
2509.33699 0.01386
2507.28855 0.01395
2505.24011 0.01404
2503.19167 0.01411
2501.14324 0.01419
2499.09480 0.01429
2497.04636 0.01438
2494.99792 0.01443
2492.94948 0.01446
2490.90104 0.01451
2488.85260 0.01456
2486.80417 0.01461
2484.75573 0.01465
2482.70729 0.01470
2480.65885 0.01475
2478.61041 0.01478
2476.56197 0.01481
2474.51354 0.01484
2472.46510 0.01488
2470.41666 0.01492
2468.36822 0.01494
2466.31978 0.01496
2464.27134 0.01497
2462.22291 0.01497
2460.17447 0.01496
2458.12603 0.01497
2456.07759 0.01496
2454.02915 0.01493
2451.98071 0.01493
2449.93228 0.01493
2447.88384 0.01491
2445.83540 0.01489
2443.78696 0.01486
2441.73852 0.01485
2439.69008 0.01485
2437.64165 0.01484
2435.59321 0.01485
2433.54477 0.01488
2431.49633 0.01490
2429.44789 0.01488
2427.39945 0.01488
2425.35102 0.01487
2423.30258 0.01487
2421.25414 0.01487
2419.20570 0.01486
2417.15726 0.01485
2415.10882 0.01485
2413.06039 0.01484
2411.01195 0.01481
2408.96351 0.01479
2406.91507 0.01477
2404.86663 0.01475
2402.81819 0.01474
2400.76976 0.01474
2398.72132 0.01476
2396.67288 0.01476
2394.62444 0.01474
2392.57600 0.01471
2390.52756 0.01468
2388.47913 0.01469
2386.43069 0.01474
2384.38225 0.01481
2382.33381 0.01486
2380.28537 0.01488
2378.23693 0.01490
2376.18850 0.01490
2374.14006 0.01491
2372.09162 0.01492
2370.04318 0.01488
2367.99474 0.01481
2365.94630 0.01479
2363.89787 0.01483
2361.84943 0.01488
2359.80099 0.01478
2357.75255 0.01443
2355.70411 0.01403
2353.65567 0.01367
2351.60723 0.01354
2349.55880 0.01375
2347.51036 0.01418
2345.46192 0.01445
2343.41348 0.01422
2341.36504 0.01401
2339.31660 0.01406
2337.26817 0.01404
2335.21973 0.01391
2333.17129 0.01378
2331.12285 0.01364
2329.07441 0.01350
2327.02597 0.01338
2324.97754 0.01329
2322.92910 0.01323
2320.88066 0.01318
2318.83222 0.01311
2316.78378 0.01305
2314.73534 0.01302
2312.68691 0.01298
2310.63847 0.01288
2308.59003 0.01278
2306.54159 0.01275
2304.49315 0.01280
2302.44471 0.01283
2300.39628 0.01278
2298.34784 0.01270
2296.29940 0.01263
2294.25096 0.01258
2292.20252 0.01254
2290.15408 0.01251
2288.10565 0.01248
2286.05721 0.01245
2284.00877 0.01240
2281.96033 0.01238
2279.91189 0.01237
2277.86345 0.01237
2275.81502 0.01236
2273.76658 0.01232
2271.71814 0.01225
2269.66970 0.01219
2267.62126 0.01213
2265.57282 0.01210
2263.52439 0.01208
2261.47595 0.01204
2259.42751 0.01198
2257.37907 0.01194
2255.33063 0.01190
2253.28219 0.01185
2251.23376 0.01180
2249.18532 0.01176
2247.13688 0.01172
2245.08844 0.01168
2243.04000 0.01165
2240.99156 0.01161
2238.94313 0.01155
2236.89469 0.01150
2234.84625 0.01147
2232.79781 0.01142
2230.74937 0.01134
2228.70093 0.01128
2226.65250 0.01123
2224.60406 0.01120
2222.55562 0.01116
2220.50718 0.01110
2218.45874 0.01105
2216.41030 0.01098
2214.36186 0.01089
2212.31343 0.01081
2210.26499 0.01075
2208.21655 0.01067
2206.16811 0.01060
2204.11967 0.01053
2202.07123 0.01046
2200.02280 0.01040
2197.97436 0.01033
2195.92592 0.01025
2193.87748 0.01016
2191.82904 0.01005
2189.78060 0.00994
2187.73217 0.00983
2185.68373 0.00974
2183.63529 0.00966
2181.58685 0.00957
2179.53841 0.00947
2177.48997 0.00938
2175.44154 0.00928
2173.39310 0.00919
2171.34466 0.00908
2169.29622 0.00895
2167.24778 0.00881
2165.19934 0.00869
2163.15091 0.00861
2161.10247 0.00855
2159.05403 0.00847
2157.00559 0.00838
2154.95715 0.00831
2152.90871 0.00824
2150.86028 0.00817
2148.81184 0.00811
2146.76340 0.00805
2144.71496 0.00799
2142.66652 0.00791
2140.61808 0.00784
2138.56965 0.00779
2136.52121 0.00773
2134.47277 0.00764
2132.42433 0.00757
2130.37589 0.00750
2128.32745 0.00742
2126.27902 0.00734
2124.23058 0.00727
2122.18214 0.00724
2120.13370 0.00723
2118.08526 0.00719
2116.03682 0.00712
2113.98839 0.00704
2111.93995 0.00696
2109.89151 0.00688
2107.84307 0.00685
2105.79463 0.00686
2103.74619 0.00686
2101.69776 0.00684
2099.64932 0.00683
2097.60088 0.00681
2095.55244 0.00680
2093.50400 0.00679
2091.45556 0.00679
2089.40713 0.00680
2087.35869 0.00677
2085.31025 0.00672
2083.26181 0.00669
2081.21337 0.00668
2079.16493 0.00665
2077.11649 0.00662
2075.06806 0.00658
2073.01962 0.00654
2070.97118 0.00651
2068.92274 0.00649
2066.87430 0.00647
2064.82586 0.00641
2062.77743 0.00636
2060.72899 0.00636
2058.68055 0.00636
2056.63211 0.00635
2054.58367 0.00631
2052.53523 0.00625
2050.48680 0.00620
2048.43836 0.00620
2046.38992 0.00622
2044.34148 0.00624
2042.29304 0.00627
2040.24460 0.00629
2038.19617 0.00630
2036.14773 0.00630
2034.09929 0.00630
2032.05085 0.00628
2030.00241 0.00628
2027.95397 0.00627
2025.90554 0.00626
2023.85710 0.00623
2021.80866 0.00620
2019.76022 0.00620
2017.71178 0.00622
2015.66334 0.00622
2013.61491 0.00622
2011.56647 0.00620
2009.51803 0.00619
2007.46959 0.00619
2005.42115 0.00620
2003.37271 0.00619
2001.32428 0.00616
1999.27584 0.00613
1997.22740 0.00609
1995.17896 0.00604
1993.13052 0.00594
1991.08208 0.00584
1989.03365 0.00580
1986.98521 0.00576
1984.93677 0.00569
1982.88833 0.00563
1980.83989 0.00559
1978.79145 0.00556
1976.74302 0.00553
1974.69458 0.00553
1972.64614 0.00554
1970.59770 0.00556
1968.54926 0.00560
1966.50082 0.00561
1964.45239 0.00563
1962.40395 0.00567
1960.35551 0.00572
1958.30707 0.00575
1956.25863 0.00578
1954.21019 0.00580
1952.16176 0.00582
1950.11332 0.00584
1948.06488 0.00586
1946.01644 0.00589
1943.96800 0.00592
1941.91956 0.00592
1939.87112 0.00595
1937.82269 0.00599
1935.77425 0.00602
1933.72581 0.00605
1931.67737 0.00609
1929.62893 0.00612
1927.58049 0.00615
1925.53206 0.00618
1923.48362 0.00619
1921.43518 0.00621
1919.38674 0.00624
1917.33830 0.00626
1915.28986 0.00626
1913.24143 0.00628
1911.19299 0.00628
1909.14455 0.00626
1907.09611 0.00624
1905.04767 0.00621
1902.99923 0.00618
1900.95080 0.00616
1898.90236 0.00615
1896.85392 0.00615
1894.80548 0.00615
1892.75704 0.00616
1890.70860 0.00619
1888.66017 0.00617
1886.61173 0.00612
1884.56329 0.00610
1882.51485 0.00609
1880.46641 0.00611
1878.41797 0.00611
1876.36954 0.00610
1874.32110 0.00608
1872.27266 0.00607
1870.22422 0.00606
1868.17578 0.00600
1866.12734 0.00592
1864.07891 0.00589
1862.03047 0.00589
1859.98203 0.00588
1857.93359 0.00586
1855.88515 0.00588
1853.83671 0.00589
1851.78828 0.00590
1849.73984 0.00590
1847.69140 0.00590
1845.64296 0.00591
1843.59452 0.00584
1841.54608 0.00578
1839.49765 0.00579
1837.44921 0.00579
1835.40077 0.00579
1833.35233 0.00581
1831.30389 0.00582
1829.25545 0.00576
1827.20702 0.00569
1825.15858 0.00564
1823.11014 0.00560
1821.06170 0.00559
1819.01326 0.00557
1816.96482 0.00553
1814.91639 0.00552
1812.86795 0.00554
1810.81951 0.00554
1808.77107 0.00547
1806.72263 0.00538
1804.67419 0.00533
1802.62575 0.00530
1800.57732 0.00523
1798.52888 0.00515
1796.48044 0.00512
1794.43200 0.00510
1792.38356 0.00504
1790.33512 0.00498
1788.28669 0.00499
1786.23825 0.00501
1784.18981 0.00500
1782.14137 0.00500
1780.09293 0.00500
1778.04449 0.00501
1775.99606 0.00501
1773.94762 0.00498
1771.89918 0.00491
1769.85074 0.00483
1767.80230 0.00478
1765.75386 0.00476
1763.70543 0.00477
1761.65699 0.00475
1759.60855 0.00468
1757.56011 0.00464
1755.51167 0.00462
1753.46323 0.00462
1751.41480 0.00463
1749.36636 0.00461
1747.31792 0.00457
1745.26948 0.00453
1743.22104 0.00446
1741.17260 0.00439
1739.12417 0.00432
1737.07573 0.00430
1735.02729 0.00430
1732.97885 0.00423
1730.93041 0.00418
1728.88197 0.00418
1726.83354 0.00415
1724.78510 0.00409
1722.73666 0.00404
1720.68822 0.00401
1718.63978 0.00396
1716.59134 0.00388
1714.54291 0.00386
1712.49447 0.00386
1710.44603 0.00383
1708.39759 0.00380
1706.34915 0.00377
1704.30071 0.00376
1702.25228 0.00379
1700.20384 0.00376
1698.15540 0.00365
1696.10696 0.00359
1694.05852 0.00358
1692.01008 0.00357
1689.96165 0.00355
1687.91321 0.00352
1685.86477 0.00350
1683.81633 0.00344
1681.76789 0.00338
1679.71945 0.00334
1677.67102 0.00328
1675.62258 0.00322
1673.57414 0.00321
1671.52570 0.00323
1669.47726 0.00323
1667.42882 0.00323
1665.38038 0.00324
1663.33195 0.00323
1661.28351 0.00319
1659.23507 0.00317
1657.18663 0.00319
1655.13819 0.00322
1653.08975 0.00320
1651.04132 0.00316
1648.99288 0.00317
1646.94444 0.00312
1644.89600 0.00307
1642.84756 0.00309
1640.79912 0.00311
1638.75069 0.00311
1636.70225 0.00313
1634.65381 0.00319
1632.60537 0.00322
1630.55693 0.00321
1628.50849 0.00319
1626.46006 0.00318
1624.41162 0.00317
1622.36318 0.00317
1620.31474 0.00318
1618.26630 0.00320
1616.21786 0.00322
1614.16943 0.00325
1612.12099 0.00327
1610.07255 0.00326
1608.02411 0.00323
1605.97567 0.00321
1603.92723 0.00320
1601.87880 0.00319
1599.83036 0.00320
1597.78192 0.00322
1595.73348 0.00320
1593.68504 0.00317
1591.63660 0.00316
1589.58817 0.00316
1587.53973 0.00316
1585.49129 0.00315
1583.44285 0.00314
1581.39441 0.00314
1579.34597 0.00316
1577.29754 0.00316
1575.24910 0.00313
1573.20066 0.00312
1571.15222 0.00312
1569.10378 0.00314
1567.05534 0.00317
1565.00691 0.00318
1562.95847 0.00320
1560.91003 0.00323
1558.86159 0.00320
1556.81315 0.00315
1554.76471 0.00318
1552.71628 0.00322
1550.66784 0.00323
1548.61940 0.00321
1546.57096 0.00319
1544.52252 0.00318
1542.47408 0.00324
1540.42565 0.00335
1538.37721 0.00338
1536.32877 0.00342
1534.28033 0.00346
1532.23189 0.00347
1530.18345 0.00347
1528.13501 0.00349
1526.08658 0.00353
1524.03814 0.00356
1521.98970 0.00352
1519.94126 0.00341
1517.89282 0.00336
1515.84438 0.00336
1513.79595 0.00336
1511.74751 0.00337
1509.69907 0.00339
1507.65063 0.00342
1505.60219 0.00334
1503.55375 0.00329
1501.50532 0.00330
1499.45688 0.00332
1497.40844 0.00331
1495.36000 0.00328
1493.31156 0.00329
1491.26312 0.00329
1489.21469 0.00326
1487.16625 0.00321
1485.11781 0.00319
1483.06937 0.00319
1481.02093 0.00317
1478.97249 0.00313
1476.92406 0.00310
1474.87562 0.00308
1472.82718 0.00299
1470.77874 0.00291
1468.73030 0.00289
1466.68186 0.00288
1464.63343 0.00288
1462.58499 0.00290
1460.53655 0.00293
1458.48811 0.00292
1456.43967 0.00285
1454.39123 0.00285
1452.34280 0.00287
1450.29436 0.00285
1448.24592 0.00281
1446.19748 0.00278
1444.14904 0.00277
1442.10060 0.00275
1440.05217 0.00271
1438.00373 0.00268
1435.95529 0.00266
1433.90685 0.00264
1431.85841 0.00261
1429.80997 0.00257
1427.76154 0.00254
1425.71310 0.00255
1423.66466 0.00256
1421.61622 0.00254
1419.56778 0.00249
1417.51934 0.00245
1415.47091 0.00242
1413.42247 0.00238
1411.37403 0.00236
1409.32559 0.00236
1407.27715 0.00233
1405.22871 0.00227
1403.18028 0.00225
1401.13184 0.00227
1399.08340 0.00227
1397.03496 0.00223
1394.98652 0.00219
1392.93808 0.00217
1390.88965 0.00218
1388.84121 0.00220
1386.79277 0.00218
1384.74433 0.00216
1382.69589 0.00215
1380.64745 0.00212
1378.59901 0.00210
1376.55058 0.00209
1374.50214 0.00204
1372.45370 0.00202
1370.40526 0.00204
1368.35682 0.00206
1366.30838 0.00207
1364.25995 0.00210
1362.21151 0.00215
1360.16307 0.00217
1358.11463 0.00217
1356.06619 0.00214
1354.01775 0.00209
1351.96932 0.00206
1349.92088 0.00204
1347.87244 0.00203
1345.82400 0.00200
1343.77556 0.00198
1341.72712 0.00197
1339.67869 0.00197
1337.63025 0.00195
1335.58181 0.00190
1333.53337 0.00185
1331.48493 0.00185
1329.43649 0.00187
1327.38806 0.00189
1325.33962 0.00192
1323.29118 0.00196
1321.24274 0.00196
1319.19430 0.00193
1317.14586 0.00190
1315.09743 0.00189
1313.04899 0.00188
1311.00055 0.00185
1308.95211 0.00182
1306.90367 0.00181
1304.85523 0.00181
1302.80680 0.00179
1300.75836 0.00176
1298.70992 0.00173
1296.66148 0.00169
1294.61304 0.00167
1292.56460 0.00164
1290.51617 0.00162
1288.46773 0.00161
1286.41929 0.00158
1284.37085 0.00155
1282.32241 0.00152
1280.27397 0.00148
1278.22554 0.00145
1276.17710 0.00145
1274.12866 0.00146
1272.08022 0.00145
1270.03178 0.00141
1267.98334 0.00138
1265.93491 0.00139
1263.88647 0.00136
1261.83803 0.00129
1259.78959 0.00126
1257.74115 0.00129
1255.69271 0.00130
1253.64428 0.00127
1251.59584 0.00122
1249.54740 0.00120
1247.49896 0.00119
1245.45052 0.00117
1243.40208 0.00117
1241.35364 0.00120
1239.30521 0.00123
1237.25677 0.00124
1235.20833 0.00122
1233.15989 0.00120
1231.11145 0.00120
1229.06301 0.00121
1227.01458 0.00124
1224.96614 0.00127
1222.91770 0.00128
1220.86926 0.00129
1218.82082 0.00130
1216.77238 0.00134
1214.72395 0.00139
1212.67551 0.00145
1210.62707 0.00151
1208.57863 0.00158
1206.53019 0.00165
1204.48175 0.00175
1202.43332 0.00187
1200.38488 0.00203
1198.33644 0.00222
1196.28800 0.00243
1194.23956 0.00267
1192.19112 0.00295
1190.14269 0.00329
1188.09425 0.00368
1186.04581 0.00404
1183.99737 0.00436
1181.94893 0.00467
1179.90049 0.00497
1177.85206 0.00524
1175.80362 0.00550
1173.75518 0.00575
1171.70674 0.00601
1169.65830 0.00625
1167.60986 0.00650
1165.56143 0.00676
1163.51299 0.00702
1161.46455 0.00723
1159.41611 0.00743
1157.36767 0.00763
1155.31923 0.00780
1153.27080 0.00794
1151.22236 0.00807
1149.17392 0.00817
1147.12548 0.00827
1145.07704 0.00836
1143.02860 0.00840
1140.98017 0.00842
1138.93173 0.00846
1136.88329 0.00854
1134.83485 0.00863
1132.78641 0.00871
1130.73797 0.00878
1128.68954 0.00887
1126.64110 0.00902
1124.59266 0.00919
1122.54422 0.00935
1120.49578 0.00950
1118.44734 0.00965
1116.39891 0.00976
1114.35047 0.00984
1112.30203 0.00993
1110.25359 0.01002
1108.20515 0.01009
1106.15671 0.01010
1104.10827 0.01008
1102.05984 0.01004
1100.01140 0.01004
1097.96296 0.01007
1095.91452 0.01009
1093.86608 0.01014
1091.81764 0.01023
1089.76921 0.01035
1087.72077 0.01049
1085.67233 0.01065
1083.62389 0.01088
1081.57545 0.01122
1079.52701 0.01166
1077.47858 0.01220
1075.43014 0.01281
1073.38170 0.01353
1071.33326 0.01438
1069.28482 0.01538
1067.23638 0.01650
1065.18795 0.01773
1063.13951 0.01904
1061.09107 0.02044
1059.04263 0.02191
1056.99419 0.02348
1054.94575 0.02513
1052.89732 0.02677
1050.84888 0.02839
1048.80044 0.02995
1046.75200 0.03140
1044.70356 0.03271
1042.65512 0.03389
1040.60669 0.03489
1038.55825 0.03568
1036.50981 0.03629
1034.46137 0.03677
1032.41293 0.03715
1030.36449 0.03745
1028.31606 0.03768
1026.26762 0.03789
1024.21918 0.03811
1022.17074 0.03835
1020.12230 0.03860
1018.07386 0.03881
1016.02543 0.03895
1013.97699 0.03904
1011.92855 0.03907
1009.88011 0.03898
1007.83167 0.03877
1005.78323 0.03845
1003.73480 0.03809
1001.68636 0.03765
999.63792 0.03712
997.58948 0.03654
995.54104 0.03591
993.49260 0.03527
991.44417 0.03457
989.39573 0.03384
987.34729 0.03320
985.29885 0.03265
983.25041 0.03210
981.20197 0.03156
979.15354 0.03102
977.10510 0.03043
975.05666 0.02981
973.00822 0.02917
970.95978 0.02851
968.91134 0.02785
966.86290 0.02717
964.81447 0.02645
962.76603 0.02572
960.71759 0.02497
958.66915 0.02417
956.62071 0.02336
954.57227 0.02261
952.52384 0.02194
950.47540 0.02130
948.42696 0.02068
946.37852 0.02008
944.33008 0.01950
942.28164 0.01890
940.23321 0.01825
938.18477 0.01760
936.13633 0.01699
934.08789 0.01651
932.03945 0.01619
929.99101 0.01606
927.94258 0.01612
925.89414 0.01624
923.84570 0.01625
921.79726 0.01612
919.74882 0.01592
917.70038 0.01568
915.65195 0.01536
913.60351 0.01498
911.55507 0.01462
909.50663 0.01431
907.45819 0.01407
905.40975 0.01387
903.36132 0.01374
901.31288 0.01365
899.26444 0.01354
897.21600 0.01336
895.16756 0.01318
893.11912 0.01307
891.07069 0.01301
889.02225 0.01297
886.97381 0.01288
884.92537 0.01270
882.87693 0.01249
880.82849 0.01229
878.78006 0.01211
876.73162 0.01198
874.68318 0.01187
872.63474 0.01174
870.58630 0.01160
868.53786 0.01144
866.48943 0.01134
864.44099 0.01131
862.39255 0.01123
860.34411 0.01108
858.29567 0.01090
856.24723 0.01072
854.19880 0.01053
852.15036 0.01029
850.10192 0.01006
848.05348 0.00992
846.00504 0.00980
843.95660 0.00956
841.90817 0.00929
839.85973 0.00911
837.81129 0.00896
835.76285 0.00877
833.71441 0.00863
831.66597 0.00853
829.61753 0.00838
827.56910 0.00818
825.52066 0.00802
823.47222 0.00793
821.42378 0.00788
819.37534 0.00785
817.32690 0.00784
815.27847 0.00784
813.23003 0.00782
811.18159 0.00772
809.13315 0.00751
807.08471 0.00732
805.03627 0.00725
802.98784 0.00723
800.93940 0.00709
798.89096 0.00687
796.84252 0.00664
794.79408 0.00649
792.74564 0.00646
790.69721 0.00644
788.64877 0.00628
786.60033 0.00604
784.55189 0.00586
782.50345 0.00582
780.45501 0.00583
778.40658 0.00574
776.35814 0.00555
774.30970 0.00536
772.26126 0.00515
770.21282 0.00498
768.16438 0.00490
766.11595 0.00478
764.06751 0.00466
762.01907 0.00460
759.97063 0.00449
757.92219 0.00437
755.87375 0.00430
753.82532 0.00424
751.77688 0.00417
749.72844 0.00409
747.68000 0.00404
745.63156 0.00407
743.58312 0.00406
741.53469 0.00399
739.48625 0.00394
737.43781 0.00396
735.38937 0.00418
733.34093 0.00458
731.29249 0.00491
729.24406 0.00508
727.19562 0.00516
725.14718 0.00525
723.09874 0.00540
721.05030 0.00547
719.00186 0.00534
716.95343 0.00511
714.90499 0.00496
712.85655 0.00497
710.80811 0.00509
708.75967 0.00517
706.71123 0.00531
704.66280 0.00566
702.61436 0.00598
700.56592 0.00602
698.51748 0.00599
696.46904 0.00605
694.42060 0.00611
692.37216 0.00606
690.32373 0.00585
688.27529 0.00560
686.22685 0.00545
684.17841 0.00538
682.12997 0.00519
680.08153 0.00488
678.03310 0.00463
675.98466 0.00452
673.93622 0.00448
671.88778 0.00459
669.83934 0.00492
667.79090 0.00503
665.74247 0.00463
663.69403 0.00443
661.64559 0.00460
659.59715 0.00492
657.54871 0.00520
655.50027 0.00553
653.45184 0.00580
651.40340 0.00583
649.35496 0.00587
647.30652 0.00632
645.25808 0.00692
643.20964 0.00717
641.16121 0.00719
639.11277 0.00718
637.06433 0.00706
635.01589 0.00700
632.96745 0.00704
630.91901 0.00671
628.87058 0.00596
626.82214 0.00525
624.77370 0.00495
622.72526 0.00541
620.67682 0.00616
618.62838 0.00609
616.57995 0.00557
614.53151 0.00581
612.48307 0.00657
610.43463 0.00692
608.38619 0.00681
606.33775 0.00710
604.28932 0.00812
602.24088 0.00848
600.19244 0.00731
598.14400 0.00601
