3996.50324 2.24564
3994.45480 2.24827
3992.40636 2.25274
3990.35792 2.25567
3988.30948 2.25467
3986.26104 2.25106
3984.21261 2.24797
3982.16417 2.24846
3980.11573 2.25314
3978.06729 2.25788
3976.01885 2.26207
3973.97041 2.26559
3971.92198 2.26428
3969.87354 2.25984
3967.82510 2.25846
3965.77666 2.25963
3963.72822 2.26032
3961.67978 2.26225
3959.63135 2.26530
3957.58291 2.26530
3955.53447 2.26403
3953.48603 2.26503
3951.43759 2.26467
3949.38915 2.26174
3947.34072 2.25974
3945.29228 2.25935
3943.24384 2.26061
3941.19540 2.26273
3939.14696 2.26375
3937.09852 2.26287
3935.05009 2.26056
3933.00165 2.26065
3930.95321 2.26370
3928.90477 2.26424
3926.85633 2.26472
3924.80789 2.26626
3922.75946 2.26083
3920.71102 2.25247
3918.66258 2.25246
3916.61414 2.25886
3914.56570 2.26104
3912.51726 2.25805
3910.46883 2.25436
3908.42039 2.25128
3906.37195 2.24993
3904.32351 2.25571
3902.27507 2.26504
3900.22663 2.26828
3898.17820 2.26749
3896.12976 2.26163
3894.08132 2.25209
3892.03288 2.25208
3889.98444 2.26160
3887.93600 2.26064
3885.88756 2.25929
3883.83913 2.26399
3881.79069 2.26078
3879.74225 2.25849
3877.69381 2.25500
3875.64537 2.24461
3873.59693 2.23863
3871.54850 2.24249
3869.50006 2.25542
3867.45162 2.26105
3865.40318 2.25451
3863.35474 2.25070
3861.30630 2.24817
3859.25787 2.24264
3857.20943 2.23453
3855.16099 2.22434
3853.11255 2.24037
3851.06411 2.26837
3849.01567 2.26555
3846.96724 2.25321
3844.91880 2.24783
3842.87036 2.25064
3840.82192 2.25228
3838.77348 2.25663
3836.72504 2.26423
3834.67661 2.26161
3832.62817 2.25660
3830.57973 2.25327
3828.53129 2.25057
3826.48285 2.25582
3824.43441 2.26025
3822.38598 2.25602
3820.33754 2.26136
3818.28910 2.26661
3816.24066 2.26587
3814.19222 2.26750
3812.14378 2.26325
3810.09535 2.25665
3808.04691 2.25870
3805.99847 2.26978
3803.95003 2.26877
3801.90159 2.26302
3799.85315 2.26964
3797.80472 2.27390
3795.75628 2.27627
3793.70784 2.27720
3791.65940 2.27610
3789.61096 2.27881
3787.56252 2.28140
3785.51409 2.28288
3783.46565 2.28649
3781.41721 2.28796
3779.36877 2.28968
3777.32033 2.29001
3775.27189 2.28707
3773.22346 2.28621
3771.17502 2.28824
3769.12658 2.29222
3767.07814 2.29639
3765.02970 2.30375
3762.98126 2.30961
3760.93283 2.30892
3758.88439 2.31057
3756.83595 2.31372
3754.78751 2.31166
3752.73907 2.31014
3750.69063 2.32475
3748.64219 2.34272
3746.59376 2.34207
3744.54532 2.34263
3742.49688 2.35291
3740.44844 2.35832
3738.40000 2.36050
3736.35156 2.36836
3734.30313 2.37982
3732.25469 2.38116
3730.20625 2.38072
3728.15781 2.38287
3726.10937 2.38461
3724.06093 2.38663
3722.01250 2.39452
3719.96406 2.40688
3717.91562 2.41652
3715.86718 2.42402
3713.81874 2.43893
3711.77030 2.46048
3709.72187 2.46624
3707.67343 2.46927
3705.62499 2.47694
3703.57655 2.48264
3701.52811 2.49225
3699.47967 2.50627
3697.43124 2.51402
3695.38280 2.51307
3693.33436 2.50646
3691.28592 2.50470
3689.23748 2.52672
3687.18904 2.54845
3685.14061 2.54573
3683.09217 2.53568
3681.04373 2.53067
3678.99529 2.53074
3676.94685 2.53227
3674.89841 2.54903
3672.84998 2.56905
3670.80154 2.57701
3668.75310 2.58673
3666.70466 2.59772
3664.65622 2.60499
3662.60778 2.61059
3660.55935 2.61350
3658.51091 2.61933
3656.46247 2.63638
3654.41403 2.64936
3652.36559 2.65460
3650.31715 2.67290
3648.26872 2.68505
3646.22028 2.67139
3644.17184 2.67064
3642.12340 2.68415
3640.07496 2.69882
3638.02652 2.70319
3635.97809 2.70227
3633.92965 2.70091
3631.88121 2.69650
3629.83277 2.69948
3627.78433 2.71279
3625.73589 2.71325
3623.68746 2.70948
3621.63902 2.70755
3619.59058 2.70783
3617.54214 2.71657
3615.49370 2.73834
3613.44526 2.76324
3611.39682 2.77023
3609.34839 2.76672
3607.29995 2.76322
3605.25151 2.75163
3603.20307 2.73682
3601.15463 2.73169
3599.10619 2.73449
3597.05776 2.73419
3595.00932 2.73618
3592.96088 2.74367
3590.91244 2.74853
3588.86400 2.74804
3586.81556 2.74813
3584.76713 2.75206
3582.71869 2.75510
3580.67025 2.75423
3578.62181 2.74952
3576.57337 2.74699
3574.52493 2.74641
3572.47650 2.74656
3570.42806 2.75012
3568.37962 2.75345
3566.33118 2.75758
3564.28274 2.76476
3562.23430 2.76917
3560.18587 2.76911
3558.13743 2.76000
3556.08899 2.74996
3554.04055 2.75579
3551.99211 2.77042
3549.94367 2.77778
3547.89524 2.78669
3545.84680 2.80130
3543.79836 2.80299
3541.74992 2.78923
3539.70148 2.77492
3537.65304 2.76046
3535.60461 2.75125
3533.55617 2.76329
3531.50773 2.78255
3529.45929 2.77632
3527.41085 2.75577
3525.36241 2.75713
3523.31398 2.77766
3521.26554 2.79293
3519.21710 2.79160
3517.16866 2.78258
3515.12022 2.77689
3513.07178 2.77923
3511.02335 2.78625
3508.97491 2.78833
3506.92647 2.78433
3504.87803 2.77874
3502.82959 2.77473
3500.78115 2.77131
3498.73272 2.77193
3496.68428 2.78258
3494.63584 2.79509
3492.58740 2.79837
3490.53896 2.79015
3488.49052 2.77910
3486.44209 2.77901
3484.39365 2.78231
3482.34521 2.76880
3480.29677 2.75303
3478.24833 2.76273
3476.19989 2.78262
3474.15146 2.78938
3472.10302 2.78621
3470.05458 2.77766
3468.00614 2.77740
3465.95770 2.79141
3463.90926 2.80038
3461.86082 2.79980
3459.81239 2.79940
3457.76395 2.80245
3455.71551 2.80584
3453.66707 2.80468
3451.61863 2.79559
3449.57019 2.78115
3447.52176 2.77092
3445.47332 2.76594
3443.42488 2.76728
3441.37644 2.77987
3439.32800 2.79575
3437.27956 2.80366
3435.23113 2.80271
3433.18269 2.80173
3431.13425 2.80089
3429.08581 2.79254
3427.03737 2.78396
3424.98893 2.78159
3422.94050 2.78428
3420.89206 2.79316
3418.84362 2.80058
3416.79518 2.79669
3414.74674 2.78300
3412.69830 2.77400
3410.64987 2.78120
3408.60143 2.78860
3406.55299 2.78089
3404.50455 2.77196
3402.45611 2.77641
3400.40767 2.78992
3398.35924 2.79928
3396.31080 2.79886
3394.26236 2.79474
3392.21392 2.79374
3390.16548 2.79379
3388.11704 2.79297
3386.06861 2.78938
3384.02017 2.78281
3381.97173 2.78528
3379.92329 2.79917
3377.87485 2.80477
3375.82641 2.79303
3373.77798 2.78496
3371.72954 2.78515
3369.68110 2.77999
3367.63266 2.77732
3365.58422 2.77905
3363.53578 2.77437
3361.48735 2.77123
3359.43891 2.78331
3357.39047 2.80353
3355.34203 2.81131
3353.29359 2.80572
3351.24515 2.79805
3349.19672 2.79290
3347.14828 2.79358
3345.09984 2.79678
3343.05140 2.79161
3341.00296 2.78312
3338.95452 2.78587
3336.90609 2.79458
3334.85765 2.80104
3332.80921 2.79998
3330.76077 2.79071
3328.71233 2.78022
3326.66389 2.76781
3324.61545 2.76182
3322.56702 2.76673
3320.51858 2.77353
3318.47014 2.77848
3316.42170 2.77928
3314.37326 2.77910
3312.32482 2.78201
3310.27639 2.77907
3308.22795 2.77133
3306.17951 2.77131
3304.13107 2.77297
3302.08263 2.76698
3300.03419 2.76168
3297.98576 2.76351
3295.93732 2.76078
3293.88888 2.75661
3291.84044 2.76544
3289.79200 2.77471
3287.74356 2.77730
3285.69513 2.77840
3283.64669 2.77252
3281.59825 2.76328
3279.54981 2.76326
3277.50137 2.76903
3275.45293 2.76645
3273.40450 2.75908
3271.35606 2.75501
3269.30762 2.75149
3267.25918 2.74974
3265.21074 2.75287
3263.16230 2.75570
3261.11387 2.75325
3259.06543 2.75192
3257.01699 2.75923
3254.96855 2.76752
3252.92011 2.76582
3250.87167 2.75846
3248.82324 2.75267
3246.77480 2.74721
3244.72636 2.73654
3242.67792 2.72968
3240.62948 2.74079
3238.58104 2.75706
3236.53261 2.76136
3234.48417 2.76179
3232.43573 2.76030
3230.38729 2.74960
3228.33885 2.74184
3226.29041 2.74901
3224.24198 2.75834
3222.19354 2.75014
3220.14510 2.73536
3218.09666 2.73634
3216.04822 2.74473
3213.99978 2.74664
3211.95135 2.74410
3209.90291 2.74210
3207.85447 2.74239
3205.80603 2.73952
3203.75759 2.73583
3201.70915 2.74039
3199.66072 2.74778
3197.61228 2.74498
3195.56384 2.73308
3193.51540 2.72523
3191.46696 2.73038
3189.41852 2.74286
3187.37008 2.75111
3185.32165 2.75013
3183.27321 2.74135
3181.22477 2.73601
3179.17633 2.73529
3177.12789 2.73007
3175.07945 2.72338
3173.03102 2.72133
3170.98258 2.72560
3168.93414 2.72971
3166.88570 2.72712
3164.83726 2.72436
3162.78882 2.72188
3160.74039 2.71513
3158.69195 2.71135
3156.64351 2.71310
3154.59507 2.71391
3152.54663 2.71433
3150.49819 2.71505
3148.44976 2.70838
3146.40132 2.69908
3144.35288 2.70047
3142.30444 2.70504
3140.25600 2.70170
3138.20756 2.69772
3136.15913 2.70125
3134.11069 2.70763
3132.06225 2.70688
3130.01381 2.70280
3127.96537 2.70297
3125.91693 2.70268
3123.86850 2.69929
3121.82006 2.69438
3119.77162 2.68881
3117.72318 2.68446
3115.67474 2.67980
3113.62630 2.67609
3111.57787 2.67771
3109.52943 2.68275
3107.48099 2.68461
3105.43255 2.68160
3103.38411 2.67739
3101.33567 2.67369
3099.28724 2.67082
3097.23880 2.66751
3095.19036 2.66441
3093.14192 2.66739
3091.09348 2.67427
3089.04504 2.67496
3086.99661 2.67134
3084.94817 2.66530
3082.89973 2.65775
3080.85129 2.66016
3078.80285 2.66785
3076.75441 2.66689
3074.70598 2.66046
3072.65754 2.65526
3070.60910 2.65313
3068.56066 2.65775
3066.51222 2.66726
3064.46378 2.66823
3062.41535 2.65822
3060.36691 2.65149
3058.31847 2.65270
3056.27003 2.65469
3054.22159 2.65659
3052.17315 2.65650
3050.12471 2.65006
3048.07628 2.64919
3046.02784 2.65835
3043.97940 2.66128
3041.93096 2.65600
3039.88252 2.65238
3037.83408 2.65308
3035.78565 2.65595
3033.73721 2.65275
3031.68877 2.64520
3029.64033 2.64342
3027.59189 2.64718
3025.54345 2.65314
3023.49502 2.65785
3021.44658 2.65815
3019.39814 2.65503
3017.34970 2.65275
3015.30126 2.65465
3013.25282 2.65874
3011.20439 2.66045
3009.15595 2.65936
3007.10751 2.65682
3005.05907 2.65359
3003.01063 2.65548
3000.96219 2.65972
2998.91376 2.65726
2996.86532 2.65103
2994.81688 2.64558
2992.76844 2.64611
2990.72000 2.65630
2988.67156 2.67023
2986.62313 2.67767
2984.57469 2.67297
2982.52625 2.66544
2980.47781 2.66813
2978.42937 2.67667
2976.38093 2.68169
2974.33250 2.69000
2972.28406 2.70137
2970.23562 2.70549
2968.18718 2.71058
2966.13874 2.72717
2964.09030 2.74709
2962.04187 2.75600
2959.99343 2.74945
2957.94499 2.73789
2955.89655 2.73681
2953.84811 2.74390
2951.79967 2.74740
2949.75124 2.74923
2947.70280 2.75428
2945.65436 2.75480
2943.60592 2.74524
2941.55748 2.74022
2939.50904 2.74478
2937.46061 2.74877
2935.41217 2.75730
2933.36373 2.77798
2931.31529 2.80203
2929.26685 2.81505
2927.21841 2.81657
2925.16998 2.81548
2923.12154 2.81029
2921.07310 2.79974
2919.02466 2.79027
2916.97622 2.78632
2914.92778 2.78513
2912.87934 2.77199
2910.83091 2.74864
2908.78247 2.74029
2906.73403 2.74557
2904.68559 2.74287
2902.63715 2.73455
2900.58871 2.72988
2898.54028 2.72460
2896.49184 2.71461
2894.44340 2.70535
2892.39496 2.70185
2890.34652 2.70098
2888.29808 2.70207
2886.24965 2.70293
2884.20121 2.69845
2882.15277 2.69221
2880.10433 2.68839
2878.05589 2.69235
2876.00745 2.70326
2873.95902 2.70468
2871.91058 2.69993
2869.86214 2.70563
2867.81370 2.71419
2865.76526 2.71636
2863.71682 2.71763
2861.66839 2.72434
2859.61995 2.73935
2857.57151 2.75394
2855.52307 2.75471
2853.47463 2.74615
2851.42619 2.73894
2849.37776 2.73056
2847.32932 2.71706
2845.28088 2.69842
2843.23244 2.67528
2841.18400 2.65422
2839.13556 2.63787
2837.08713 2.62155
2835.03869 2.60802
2832.99025 2.60077
2830.94181 2.59664
2828.89337 2.59346
2826.84493 2.58829
2824.79650 2.57957
2822.74806 2.56907
2820.69962 2.55980
2818.65118 2.55439
2816.60274 2.55101
2814.55430 2.54907
2812.50587 2.55090
2810.45743 2.55340
2808.40899 2.55038
2806.36055 2.54327
2804.31211 2.53875
2802.26367 2.53824
2800.21524 2.53877
2798.16680 2.53569
2796.11836 2.52648
2794.06992 2.51855
2792.02148 2.51829
2789.97304 2.51966
2787.92461 2.51753
2785.87617 2.51381
2783.82773 2.50847
2781.77929 2.50278
2779.73085 2.50087
2777.68241 2.50236
2775.63397 2.50231
2773.58554 2.49873
2771.53710 2.49410
2769.48866 2.48803
2767.44022 2.48141
2765.39178 2.47899
2763.34334 2.47860
2761.29491 2.47678
2759.24647 2.47422
2757.19803 2.47157
2755.14959 2.47180
2753.10115 2.47327
2751.05271 2.47159
2749.00428 2.46879
2746.95584 2.46778
2744.90740 2.46792
2742.85896 2.46702
2740.81052 2.46548
2738.76208 2.46478
2736.71365 2.46546
2734.66521 2.46764
2732.61677 2.46811
2730.56833 2.46673
2728.51989 2.46650
2726.47145 2.46447
2724.42302 2.46191
2722.37458 2.46240
2720.32614 2.45854
2718.27770 2.44883
2716.22926 2.44426
2714.18082 2.44699
2712.13239 2.44990
2710.08395 2.45055
2708.03551 2.44971
2705.98707 2.44970
2703.93863 2.45124
2701.89019 2.44877
2699.84176 2.44237
2697.79332 2.44020
2695.74488 2.44140
2693.69644 2.43924
2691.64800 2.43667
2689.59956 2.43769
2687.55113 2.43922
2685.50269 2.43852
2683.45425 2.43566
2681.40581 2.43238
2679.35737 2.42996
2677.30893 2.42874
2675.26050 2.43061
2673.21206 2.43441
2671.16362 2.43511
2669.11518 2.43336
2667.06674 2.43229
2665.01830 2.43160
2662.96987 2.43133
2660.92143 2.43311
2658.87299 2.43520
2656.82455 2.43475
2654.77611 2.43455
2652.72767 2.43608
2650.67924 2.43786
2648.63080 2.43976
2646.58236 2.44038
2644.53392 2.43835
2642.48548 2.43681
2640.43704 2.43875
2638.38860 2.44008
2636.34017 2.43817
2634.29173 2.43726
2632.24329 2.43916
2630.19485 2.44226
2628.14641 2.44583
2626.09797 2.44884
2624.04954 2.44970
2622.00110 2.44867
2619.95266 2.45063
2617.90422 2.45867
2615.85578 2.46818
2613.80734 2.47536
2611.75891 2.47807
2609.71047 2.47573
2607.66203 2.47460
2605.61359 2.47822
2603.56515 2.48256
2601.51671 2.48549
2599.46828 2.48904
2597.41984 2.49147
2595.37140 2.49116
2593.32296 2.49357
2591.27452 2.50006
2589.22608 2.50424
2587.17765 2.50289
2585.12921 2.49987
2583.08077 2.50100
2581.03233 2.50625
2578.98389 2.51152
2576.93545 2.51630
2574.88702 2.52116
2572.83858 2.52596
2570.79014 2.53145
2568.74170 2.53809
2566.69326 2.54584
2564.64482 2.55180
2562.59639 2.55374
2560.54795 2.55261
2558.49951 2.54755
2556.45107 2.53937
2554.40263 2.53085
2552.35419 2.52477
2550.30576 2.52215
2548.25732 2.51773
2546.20888 2.50935
2544.16044 2.50408
2542.11200 2.50489
2540.06356 2.50732
2538.01513 2.50944
2535.96669 2.51252
2533.91825 2.51770
2531.86981 2.52487
2529.82137 2.53231
2527.77293 2.53958
2525.72450 2.54724
2523.67606 2.55325
2521.62762 2.55520
2519.57918 2.55456
2517.53074 2.55264
2515.48230 2.54776
2513.43387 2.54172
2511.38543 2.53967
2509.33699 2.54127
2507.28855 2.53861
2505.24011 2.53057
2503.19167 2.52444
2501.14324 2.51837
2499.09480 2.51057
2497.04636 2.50512
2494.99792 2.50172
2492.94948 2.49797
2490.90104 2.49157
2488.85260 2.48508
2486.80417 2.48012
2484.75573 2.47499
2482.70729 2.47084
2480.65885 2.46528
2478.61041 2.45873
2476.56197 2.45661
2474.51354 2.45670
2472.46510 2.45466
2470.41666 2.45126
2468.36822 2.44868
2466.31978 2.44831
2464.27134 2.44705
2462.22291 2.44295
2460.17447 2.44072
2458.12603 2.44090
2456.07759 2.43809
2454.02915 2.43361
2451.98071 2.43344
2449.93228 2.43563
2447.88384 2.43460
2445.83540 2.43213
2443.78696 2.43150
2441.73852 2.43124
2439.69008 2.43044
2437.64165 2.42903
2435.59321 2.42888
2433.54477 2.43126
2431.49633 2.43196
2429.44789 2.43143
2427.39945 2.43348
2425.35102 2.43527
2423.30258 2.43433
2421.25414 2.43123
2419.20570 2.42822
2417.15726 2.42986
2415.10882 2.43439
2413.06039 2.43633
2411.01195 2.43587
2408.96351 2.43508
2406.91507 2.43361
2404.86663 2.43165
2402.81819 2.43153
2400.76976 2.43353
2398.72132 2.43696
2396.67288 2.44147
2394.62444 2.44603
2392.57600 2.45057
2390.52756 2.45509
2388.47913 2.45756
2386.43069 2.45677
2384.38225 2.45601
2382.33381 2.45743
2380.28537 2.45779
2378.23693 2.45689
2376.18850 2.46078
2374.14006 2.47067
2372.09162 2.48297
2370.04318 2.49293
2367.99474 2.49030
2365.94630 2.48501
2363.89787 2.50034
2361.84943 2.52342
2359.80099 2.53276
2357.75255 2.53908
2355.70411 2.53731
2353.65567 2.52685
2351.60723 2.52694
2349.55880 2.53638
2347.51036 2.55147
2345.46192 2.57050
2343.41348 2.57547
2341.36504 2.56299
2339.31660 2.55043
2337.26817 2.53922
2335.21973 2.53319
2333.17129 2.53472
2331.12285 2.53839
2329.07441 2.54136
2327.02597 2.54875
2324.97754 2.56092
2322.92910 2.56693
2320.88066 2.56746
2318.83222 2.57230
2316.78378 2.57444
2314.73534 2.56504
2312.68691 2.55222
2310.63847 2.54922
2308.59003 2.55810
2306.54159 2.56742
2304.49315 2.57257
2302.44471 2.57845
2300.39628 2.57793
2298.34784 2.57114
2296.29940 2.57068
2294.25096 2.57372
2292.20252 2.57485
2290.15408 2.57639
2288.10565 2.57783
2286.05721 2.57952
2284.00877 2.58142
2281.96033 2.58126
2279.91189 2.57973
2277.86345 2.58132
2275.81502 2.58767
2273.76658 2.59429
2271.71814 2.59808
2269.66970 2.60039
2267.62126 2.60349
2265.57282 2.60547
2263.52439 2.60228
2261.47595 2.59604
2259.42751 2.59243
2257.37907 2.59497
2255.33063 2.60236
2253.28219 2.60754
2251.23376 2.60804
2249.18532 2.60942
2247.13688 2.61114
2245.08844 2.61060
2243.04000 2.61185
2240.99156 2.61443
2238.94313 2.61482
2236.89469 2.61623
2234.84625 2.62147
2232.79781 2.62634
2230.74937 2.62709
2228.70093 2.62592
2226.65250 2.62561
2224.60406 2.62523
2222.55562 2.62338
2220.50718 2.62281
2218.45874 2.62535
2216.41030 2.62632
2214.36186 2.62783
2212.31343 2.63631
2210.26499 2.64487
2208.21655 2.64801
2206.16811 2.64923
2204.11967 2.64709
2202.07123 2.64486
2200.02280 2.65064
2197.97436 2.66060
2195.92592 2.66790
2193.87748 2.67181
2191.82904 2.67065
2189.78060 2.66501
2187.73217 2.66249
2185.68373 2.66830
2183.63529 2.67677
2181.58685 2.68230
2179.53841 2.68484
2177.48997 2.68539
2175.44154 2.68884
2173.39310 2.69910
2171.34466 2.70964
2169.29622 2.71222
2167.24778 2.71337
2165.19934 2.71890
2163.15091 2.72449
2161.10247 2.73176
2159.05403 2.73801
2157.00559 2.73853
2154.95715 2.74293
2152.90871 2.75124
2150.86028 2.75204
2148.81184 2.74566
2146.76340 2.74163
2144.71496 2.74386
2142.66652 2.74942
2140.61808 2.75941
2138.56965 2.77020
2136.52121 2.77284
2134.47277 2.76821
2132.42433 2.76067
2130.37589 2.75617
2128.32745 2.75996
2126.27902 2.76325
2124.23058 2.75725
2122.18214 2.74760
2120.13370 2.74063
2118.08526 2.74247
2116.03682 2.75367
2113.98839 2.76267
2111.93995 2.76305
2109.89151 2.75922
2107.84307 2.75839
2105.79463 2.76336
2103.74619 2.76556
2101.69776 2.75989
2099.64932 2.75432
2097.60088 2.75244
2095.55244 2.75451
2093.50400 2.76315
2091.45556 2.77345
2089.40713 2.77901
2087.35869 2.77751
2085.31025 2.77189
2083.26181 2.77265
2081.21337 2.77757
2079.16493 2.77830
2077.11649 2.77832
2075.06806 2.77843
2073.01962 2.77485
2070.97118 2.76600
2068.92274 2.75942
2066.87430 2.76446
2064.82586 2.77708
2062.77743 2.78654
2060.72899 2.79172
2058.68055 2.79444
2056.63211 2.79144
2054.58367 2.78900
2052.53523 2.79077
2050.48680 2.79151
2048.43836 2.79121
2046.38992 2.78965
2044.34148 2.78753
2042.29304 2.78305
2040.24460 2.77562
2038.19617 2.77318
2036.14773 2.77419
2034.09929 2.77312
2032.05085 2.76937
2030.00241 2.76198
2027.95397 2.75776
2025.90554 2.76112
2023.85710 2.76314
2021.80866 2.75838
2019.76022 2.75409
2017.71178 2.75643
2015.66334 2.75990
2013.61491 2.76142
2011.56647 2.76515
2009.51803 2.76410
2007.46959 2.75488
2005.42115 2.75077
2003.37271 2.75721
2001.32428 2.76842
1999.27584 2.77408
1997.22740 2.76985
1995.17896 2.76236
1993.13052 2.75328
1991.08208 2.74458
1989.03365 2.74390
1986.98521 2.75048
1984.93677 2.75546
1982.88833 2.75994
1980.83989 2.76827
1978.79145 2.77356
1976.74302 2.77266
1974.69458 2.77097
1972.64614 2.77205
1970.59770 2.77046
1968.54926 2.76388
1966.50082 2.75636
1964.45239 2.74843
1962.40395 2.74714
1960.35551 2.75649
1958.30707 2.76278
1956.25863 2.75929
1954.21019 2.76000
1952.16176 2.76741
1950.11332 2.77015
1948.06488 2.76806
1946.01644 2.76666
1943.96800 2.76558
1941.91956 2.75946
1939.87112 2.75006
1937.82269 2.74530
1935.77425 2.74483
1933.72581 2.74072
1931.67737 2.73612
1929.62893 2.74251
1927.58049 2.75063
1925.53206 2.74730
1923.48362 2.74089
1921.43518 2.74078
1919.38674 2.74301
1917.33830 2.74558
1915.28986 2.75083
1913.24143 2.75365
1911.19299 2.75344
1909.14455 2.75570
1907.09611 2.75700
1905.04767 2.75547
1902.99923 2.75645
1900.95080 2.75956
1898.90236 2.75846
1896.85392 2.75393
1894.80548 2.75523
1892.75704 2.76133
1890.70860 2.76217
1888.66017 2.75888
1886.61173 2.75771
1884.56329 2.75558
1882.51485 2.75418
1880.46641 2.76304
1878.41797 2.77567
1876.36954 2.77762
1874.32110 2.77532
1872.27266 2.77498
1870.22422 2.77522
1868.17578 2.78343
1866.12734 2.79392
1864.07891 2.79483
1862.03047 2.79325
1859.98203 2.79754
1857.93359 2.80471
1855.88515 2.80852
1853.83671 2.80740
1851.78828 2.80725
1849.73984 2.81408
1847.69140 2.81886
1845.64296 2.81641
1843.59452 2.81891
1841.54608 2.82421
1839.49765 2.82207
1837.44921 2.81901
1835.40077 2.82357
1833.35233 2.82568
1831.30389 2.82185
1829.25545 2.82888
1827.20702 2.84193
1825.15858 2.84722
1823.11014 2.84865
1821.06170 2.84808
1819.01326 2.84577
1816.96482 2.84491
1814.91639 2.84507
1812.86795 2.84655
1810.81951 2.85202
1808.77107 2.85349
1806.72263 2.85125
1804.67419 2.85437
1802.62575 2.86448
1800.57732 2.88040
1798.52888 2.89213
1796.48044 2.89468
1794.43200 2.90081
1792.38356 2.91337
1790.33512 2.90945
1788.28669 2.89753
1786.23825 2.89126
1784.18981 2.89098
1782.14137 2.89286
1780.09293 2.88424
1778.04449 2.87440
1775.99606 2.87955
1773.94762 2.89456
1771.89918 2.90021
1769.85074 2.89243
1767.80230 2.89408
1765.75386 2.90170
1763.70543 2.90733
1761.65699 2.91743
1759.60855 2.92182
1757.56011 2.91684
1755.51167 2.92301
1753.46323 2.93783
1751.41480 2.94668
1749.36636 2.94487
1747.31792 2.93806
1745.26948 2.93533
1743.22104 2.94150
1741.17260 2.95412
1739.12417 2.96053
1737.07573 2.95841
1735.02729 2.96163
1732.97885 2.97480
1730.93041 2.97990
1728.88197 2.98086
1726.83354 2.97855
1724.78510 2.96869
1722.73666 2.96406
1720.68822 2.97513
1718.63978 2.98446
1716.59134 2.96544
1714.54291 2.96426
1712.49447 2.98683
1710.44603 3.00434
1708.39759 3.00734
1706.34915 2.99478
1704.30071 2.99148
1702.25228 3.00695
1700.20384 3.01816
1698.15540 3.01577
1696.10696 3.01491
1694.05852 3.01678
1692.01008 3.02005
1689.96165 3.03286
1687.91321 3.05167
1685.86477 3.06084
1683.81633 3.05414
1681.76789 3.04810
1679.71945 3.06150
1677.67102 3.08530
1675.62258 3.09324
1673.57414 3.08347
1671.52570 3.08866
1669.47726 3.10272
1667.42882 3.10054
1665.38038 3.09093
1663.33195 3.07727
1661.28351 3.07055
1659.23507 3.08719
1657.18663 3.11136
1655.13819 3.12417
1653.08975 3.11574
1651.04132 3.11063
1648.99288 3.12148
1646.94444 3.12494
1644.89600 3.10018
1642.84756 3.07775
1640.79912 3.06595
1638.75069 3.07073
1636.70225 3.11826
1634.65381 3.17032
1632.60537 3.13992
1630.55693 3.10430
1628.50849 3.09634
1626.46006 3.10217
1624.41162 3.09067
1622.36318 3.06489
1620.31474 3.05721
1618.26630 3.07227
1616.21786 3.08360
1614.16943 3.06599
1612.12099 3.05286
1610.07255 3.05660
1608.02411 3.06101
1605.97567 3.05410
1603.92723 3.05705
1601.87880 3.07237
1599.83036 3.06920
1597.78192 3.05118
1595.73348 3.03981
1593.68504 3.03738
1591.63660 3.04885
1589.58817 3.06915
1587.53973 3.07556
1585.49129 3.06246
1583.44285 3.04494
1581.39441 3.03513
1579.34597 3.02484
1577.29754 3.00390
1575.24910 2.99369
1573.20066 2.99294
1571.15222 2.97704
1569.10378 2.96005
1567.05534 2.96178
1565.00691 2.96678
1562.95847 2.96952
1560.91003 2.97095
1558.86159 2.94360
1556.81315 2.89294
1554.76471 2.86747
1552.71628 2.85936
1550.66784 2.86656
1548.61940 2.87493
1546.57096 2.86969
1544.52252 2.85338
1542.47408 2.84840
1540.42565 2.86393
1538.37721 2.86158
1536.32877 2.85762
1534.28033 2.85337
1532.23189 2.84024
1530.18345 2.83349
1528.13501 2.83648
1526.08658 2.84066
1524.03814 2.83788
1521.98970 2.83910
1519.94126 2.84753
1517.89282 2.85058
1515.84438 2.85951
1513.79595 2.87382
1511.74751 2.88712
1509.69907 2.90334
1507.65063 2.92437
1505.60219 2.91225
1503.55375 2.89497
1501.50532 2.89024
1499.45688 2.88305
1497.40844 2.86804
1495.36000 2.86079
1493.31156 2.85745
1491.26312 2.85322
1489.21469 2.85723
1487.16625 2.86121
1485.11781 2.86220
1483.06937 2.86857
1481.02093 2.88020
1478.97249 2.88947
1476.92406 2.89611
1474.87562 2.90955
1472.82718 2.92443
1470.77874 2.92782
1468.73030 2.92792
1466.68186 2.93452
1464.63343 2.94937
1462.58499 2.96170
1460.53655 2.97546
1458.48811 2.99192
1456.43967 2.97204
1454.39123 2.95099
1452.34280 2.95045
1450.29436 2.94685
1448.24592 2.94699
1446.19748 2.95718
1444.14904 2.95966
1442.10060 2.96084
1440.05217 2.97274
1438.00373 2.99222
1435.95529 2.99777
1433.90685 2.97984
1431.85841 2.96373
1429.80997 2.95531
1427.76154 2.95616
1425.71310 2.96027
1423.66466 2.95856
1421.61622 2.95506
1419.56778 2.95548
1417.51934 2.96969
1415.47091 2.98453
1413.42247 2.97959
1411.37403 2.97207
1409.32559 2.98037
1407.27715 2.99406
1405.22871 3.00912
1403.18028 3.02131
1401.13184 3.02222
1399.08340 3.02321
1397.03496 3.02925
1394.98652 3.03130
1392.93808 3.03486
1390.88965 3.04517
1388.84121 3.05826
1386.79277 3.06661
1384.74433 3.06662
1382.69589 3.06847
1380.64745 3.07720
1378.59901 3.08947
1376.55058 3.10164
1374.50214 3.10272
1372.45370 3.08399
1370.40526 3.07110
1368.35682 3.07675
1366.30838 3.08750
1364.25995 3.09393
1362.21151 3.09399
1360.16307 3.09575
1358.11463 3.10470
1356.06619 3.11949
1354.01775 3.14033
1351.96932 3.14635
1349.92088 3.13437
1347.87244 3.13431
1345.82400 3.14676
1343.77556 3.15192
1341.72712 3.15382
1339.67869 3.15915
1337.63025 3.16372
1335.58181 3.16741
1333.53337 3.17212
1331.48493 3.18181
1329.43649 3.18708
1327.38806 3.17987
1325.33962 3.17765
1323.29118 3.19327
1321.24274 3.20559
1319.19430 3.18818
1317.14586 3.16426
1315.09743 3.16528
1313.04899 3.18831
1311.00055 3.19699
1308.95211 3.17797
1306.90367 3.17509
1304.85523 3.19189
1302.80680 3.19247
1300.75836 3.18499
1298.70992 3.18939
1296.66148 3.19696
1294.61304 3.19881
1292.56460 3.19735
1290.51617 3.19759
1288.46773 3.20679
1286.41929 3.22133
1284.37085 3.23605
1282.32241 3.24944
1280.27397 3.24426
1278.22554 3.22332
1276.17710 3.21123
1274.12866 3.21315
1272.08022 3.22158
1270.03178 3.23044
1267.98334 3.23799
1265.93491 3.24842
1263.88647 3.26297
1261.83803 3.26787
1259.78959 3.25767
1257.74115 3.24783
1255.69271 3.24496
1253.64428 3.25082
1251.59584 3.26513
1249.54740 3.26319
1247.49896 3.24140
1245.45052 3.23087
1243.40208 3.23495
1241.35364 3.24836
1239.30521 3.27516
1237.25677 3.29847
1235.20833 3.30078
1233.15989 3.30211
1231.11145 3.31567
1229.06301 3.31846
1227.01458 3.31435
1224.96614 3.33161
1222.91770 3.36665
1220.86926 3.40855
1218.82082 3.45225
1216.77238 3.47431
1214.72395 3.46427
1212.67551 3.43909
1210.62707 3.43473
1208.57863 3.45937
1206.53019 3.48062
1204.48175 3.47624
1202.43332 3.43719
1200.38488 3.39486
1198.33644 3.36806
1196.28800 3.33330
1194.23956 3.29188
1192.19112 3.26001
1190.14269 3.23455
1188.09425 3.20894
1186.04581 3.18396
1183.99737 3.15806
1181.94893 3.13016
1179.90049 3.09733
1177.85206 3.06929
1175.80362 3.05566
1173.75518 3.04204
1171.70674 3.02348
1169.65830 3.01482
1167.60986 3.01741
1165.56143 3.02000
1163.51299 3.01831
1161.46455 3.01004
1159.41611 2.99368
1157.36767 2.96835
1155.31923 2.94027
1153.27080 2.92246
1151.22236 2.91379
1149.17392 2.90308
1147.12548 2.88735
1145.07704 2.86915
1143.02860 2.84740
1140.98017 2.82500
1138.93173 2.80474
1136.88329 2.78505
1134.83485 2.76696
1132.78641 2.75284
1130.73797 2.74249
1128.68954 2.73104
1126.64110 2.71792
1124.59266 2.70822
1122.54422 2.70079
1120.49578 2.69287
1118.44734 2.68893
1116.39891 2.69205
1114.35047 2.69771
1112.30203 2.70109
1110.25359 2.70326
1108.20515 2.70863
1106.15671 2.71573
1104.10827 2.71652
1102.05984 2.71376
1100.01140 2.71870
1097.96296 2.73070
1095.91452 2.73565
1093.86608 2.72972
1091.81764 2.72899
1089.76921 2.73332
1087.72077 2.73354
1085.67233 2.73517
1083.62389 2.73516
1081.57545 2.72980
1079.52701 2.72721
1077.47858 2.72533
1075.43014 2.71406
1073.38170 2.69356
1071.33326 2.66619
1069.28482 2.63626
1067.23638 2.60883
1065.18795 2.58074
1063.13951 2.54833
1061.09107 2.51449
1059.04263 2.48774
1056.99419 2.46791
1054.94575 2.44525
1052.89732 2.41751
1050.84888 2.39056
1048.80044 2.36877
1046.75200 2.35179
1044.70356 2.33630
1042.65512 2.31976
1040.60669 2.30485
1038.55825 2.29499
1036.50981 2.28852
1034.46137 2.28403
1032.41293 2.28074
1030.36449 2.27673
1028.31606 2.27383
1026.26762 2.27229
1024.21918 2.26853
1022.17074 2.26367
1020.12230 2.26141
1018.07386 2.26109
1016.02543 2.26034
1013.97699 2.26016
1011.92855 2.26228
1009.88011 2.26643
1007.83167 2.27196
1005.78323 2.27790
1003.73480 2.28351
1001.68636 2.28965
999.63792 2.29659
997.58948 2.30340
995.54104 2.31157
993.49260 2.32168
991.44417 2.32980
989.39573 2.33714
987.34729 2.34964
985.29885 2.36558
983.25041 2.37994
981.20197 2.39251
979.15354 2.40352
977.10510 2.41272
975.05666 2.42084
973.00822 2.42792
970.95978 2.43760
968.91134 2.45232
966.86290 2.46748
964.81447 2.47905
962.76603 2.48657
960.71759 2.49454
958.66915 2.50765
956.62071 2.52336
954.57227 2.53886
952.52384 2.55241
950.47540 2.56389
948.42696 2.57900
946.37852 2.59395
944.33008 2.60341
942.28164 2.61558
940.23321 2.63099
938.18477 2.64819
936.13633 2.66797
934.08789 2.68076
932.03945 2.68186
929.99101 2.67676
927.94258 2.67222
925.89414 2.67341
923.84570 2.67856
921.79726 2.67993
919.74882 2.68175
917.70038 2.68903
915.65195 2.69150
913.60351 2.68828
911.55507 2.68498
909.50663 2.68019
907.45819 2.67852
905.40975 2.68409
903.36132 2.69189
901.31288 2.69812
899.26444 2.70275
897.21600 2.70173
895.16756 2.69309
893.11912 2.68950
891.07069 2.68899
889.02225 2.67202
886.97381 2.65063
884.92537 2.64691
882.87693 2.65773
880.82849 2.66946
878.78006 2.68213
876.73162 2.70241
874.68318 2.71610
872.63474 2.71148
870.58630 2.70700
868.53786 2.71650
866.48943 2.73217
864.44099 2.76246
862.39255 2.81154
860.34411 2.82883
858.29567 2.80015
856.24723 2.77149
854.19880 2.76547
852.15036 2.79199
850.10192 2.83489
848.05348 2.85254
846.00504 2.84357
843.95660 2.84044
841.90817 2.85542
839.85973 2.88361
837.81129 2.91631
835.76285 2.92720
833.71441 2.91016
831.66597 2.90999
829.61753 2.94365
827.56910 2.96176
825.52066 2.93624
823.47222 2.91651
821.42378 2.92906
819.37534 2.94291
817.32690 2.93431
815.27847 2.93184
813.23003 2.96025
811.18159 2.99509
809.13315 3.02216
807.08471 3.03596
805.03627 3.00663
802.98784 2.97132
800.93940 2.97290
798.89096 2.99506
796.84252 3.01383
794.79408 3.02739
792.74564 3.03793
790.69721 3.02679
788.64877 2.99122
786.60033 2.97561
784.55189 3.01847
782.50345 3.09659
780.45501 3.16361
778.40658 3.20785
776.35814 3.18106
774.30970 3.09233
772.26126 3.02832
770.21282 3.02931
768.16438 3.09036
766.11595 3.15589
764.06751 3.17996
762.01907 3.18190
759.97063 3.19649
757.92219 3.25108
755.87375 3.29963
753.82532 3.29207
751.77688 3.29612
749.72844 3.31248
747.68000 3.27450
745.63156 3.25535
743.58312 3.30544
741.53469 3.32032
739.48625 3.27237
737.43781 3.25243
735.38937 3.29524
733.34093 3.36283
731.29249 3.35232
729.24406 3.24165
727.19562 3.11808
725.14718 3.04176
723.09874 3.02861
721.05030 3.07360
719.00186 3.10809
716.95343 3.12035
714.90499 3.17207
712.85655 3.16996
710.80811 3.14097
708.75967 3.20009
706.71123 3.23153
704.66280 3.18861
702.61436 3.19412
700.56592 3.21251
698.51748 3.21059
696.46904 3.27177
694.42060 3.40307
692.37216 3.36232
690.32373 3.14478
688.27529 3.04986
686.22685 3.04163
684.17841 2.96180
682.12997 2.89313
680.08153 2.93158
678.03310 3.03092
675.98466 3.06057
673.93622 3.07003
671.88778 3.18965
669.83934 3.31934
667.79090 3.13436
665.74247 2.96551
663.69403 2.91343
661.64559 2.90019
659.59715 2.92402
657.54871 2.98223
655.50027 3.08604
653.45184 3.34380
651.40340 3.59392
649.35496 3.22637
647.30652 2.93841
645.25808 2.86398
643.20964 2.91044
641.16121 2.94254
639.11277 2.92212
637.06433 2.91691
635.01589 2.86515
632.96745 2.86410
630.91901 2.93814
628.87058 2.84778
626.82214 2.79265
624.77370 2.87212
622.72526 2.92583
620.67682 3.20628
618.62838 5.00000
616.57995 5.00000
614.53151 5.00000
612.48307 3.36508
610.43463 2.90587
608.38619 2.73312
606.33775 2.63444
604.28932 2.60306
602.24088 2.67653
600.19244 2.96104
598.14400 3.49297
