3996.50324 0.01596
3994.45480 0.01597
3992.40636 0.01595
3990.35792 0.01589
3988.30948 0.01582
3986.26104 0.01583
3984.21261 0.01585
3982.16417 0.01583
3980.11573 0.01580
3978.06729 0.01581
3976.01885 0.01582
3973.97041 0.01580
3971.92198 0.01578
3969.87354 0.01576
3967.82510 0.01573
3965.77666 0.01574
3963.72822 0.01579
3961.67978 0.01579
3959.63135 0.01575
3957.58291 0.01573
3955.53447 0.01571
3953.48603 0.01571
3951.43759 0.01574
3949.38915 0.01570
3947.34072 0.01558
3945.29228 0.01555
3943.24384 0.01558
3941.19540 0.01556
3939.14696 0.01559
3937.09852 0.01568
3935.05009 0.01575
3933.00165 0.01575
3930.95321 0.01566
3928.90477 0.01564
3926.85633 0.01576
3924.80789 0.01582
3922.75946 0.01577
3920.71102 0.01578
3918.66258 0.01576
3916.61414 0.01561
3914.56570 0.01552
3912.51726 0.01558
3910.46883 0.01569
3908.42039 0.01585
3906.37195 0.01607
3904.32351 0.01613
3902.27507 0.01595
3900.22663 0.01575
3898.17820 0.01560
3896.12976 0.01564
3894.08132 0.01583
3892.03288 0.01585
3889.98444 0.01570
3887.93600 0.01582
3885.88756 0.01591
3883.83913 0.01580
3881.79069 0.01581
3879.74225 0.01575
3877.69381 0.01575
3875.64537 0.01595
3873.59693 0.01606
3871.54850 0.01603
3869.50006 0.01582
3867.45162 0.01572
3865.40318 0.01585
3863.35474 0.01576
3861.30630 0.01564
3859.25787 0.01578
3857.20943 0.01608
3855.16099 0.01641
3853.11255 0.01599
3851.06411 0.01537
3849.01567 0.01546
3846.96724 0.01577
3844.91880 0.01602
3842.87036 0.01613
3840.82192 0.01615
3838.77348 0.01594
3836.72504 0.01556
3834.67661 0.01548
3832.62817 0.01557
3830.57973 0.01562
3828.53129 0.01569
3826.48285 0.01572
3824.43441 0.01581
3822.38598 0.01596
3820.33754 0.01564
3818.28910 0.01540
3816.24066 0.01537
3814.19222 0.01524
3812.14378 0.01533
3810.09535 0.01557
3808.04691 0.01568
3805.99847 0.01551
3803.95003 0.01551
3801.90159 0.01553
3799.85315 0.01522
3797.80472 0.01513
3795.75628 0.01510
3793.70784 0.01508
3791.65940 0.01513
3789.61096 0.01516
3787.56252 0.01516
3785.51409 0.01514
3783.46565 0.01510
3781.41721 0.01514
3779.36877 0.01507
3777.32033 0.01488
3775.27189 0.01486
3773.22346 0.01492
3771.17502 0.01489
3769.12658 0.01472
3767.07814 0.01462
3765.02970 0.01461
3762.98126 0.01463
3760.93283 0.01470
3758.88439 0.01458
3756.83595 0.01442
3754.78751 0.01451
3752.73907 0.01465
3750.69063 0.01430
3748.64219 0.01383
3746.59376 0.01387
3744.54532 0.01383
3742.49688 0.01367
3740.44844 0.01375
3738.40000 0.01391
3736.35156 0.01387
3734.30313 0.01350
3732.25469 0.01321
3730.20625 0.01317
3728.15781 0.01322
3726.10937 0.01319
3724.06093 0.01302
3722.01250 0.01281
3719.96406 0.01259
3717.91562 0.01246
3715.86718 0.01243
3713.81874 0.01244
3711.77030 0.01233
3709.72187 0.01204
3707.67343 0.01187
3705.62499 0.01182
3703.57655 0.01179
3701.52811 0.01167
3699.47967 0.01151
3697.43124 0.01141
3695.38280 0.01133
3693.33436 0.01128
3691.28592 0.01122
3689.23748 0.01100
3687.18904 0.01075
3685.14061 0.01065
3683.09217 0.01061
3681.04373 0.01056
3678.99529 0.01047
3676.94685 0.01034
3674.89841 0.01016
3672.84998 0.01008
3670.80154 0.01000
3668.75310 0.00978
3666.70466 0.00960
3664.65622 0.00947
3662.60778 0.00935
3660.55935 0.00925
3658.51091 0.00915
3656.46247 0.00900
3654.41403 0.00884
3652.36559 0.00879
3650.31715 0.00871
3648.26872 0.00849
3646.22028 0.00837
3644.17184 0.00830
3642.12340 0.00822
3640.07496 0.00815
3638.02652 0.00810
3635.97809 0.00802
3633.92965 0.00793
3631.88121 0.00788
3629.83277 0.00782
3627.78433 0.00772
3625.73589 0.00766
3623.68746 0.00761
3621.63902 0.00756
3619.59058 0.00754
3617.54214 0.00752
3615.49370 0.00747
3613.44526 0.00741
3611.39682 0.00742
3609.34839 0.00744
3607.29995 0.00740
3605.25151 0.00736
3603.20307 0.00736
3601.15463 0.00734
3599.10619 0.00731
3597.05776 0.00731
3595.00932 0.00732
3592.96088 0.00730
3590.91244 0.00730
3588.86400 0.00733
3586.81556 0.00734
3584.76713 0.00730
3582.71869 0.00727
3580.67025 0.00725
3578.62181 0.00724
3576.57337 0.00724
3574.52493 0.00724
3572.47650 0.00723
3570.42806 0.00724
3568.37962 0.00726
3566.33118 0.00723
3564.28274 0.00715
3562.23430 0.00710
3560.18587 0.00709
3558.13743 0.00709
3556.08899 0.00711
3554.04055 0.00711
3551.99211 0.00707
3549.94367 0.00706
3547.89524 0.00709
3545.84680 0.00708
3543.79836 0.00704
3541.74992 0.00702
3539.70148 0.00701
3537.65304 0.00700
3535.60461 0.00701
3533.55617 0.00701
3531.50773 0.00701
3529.45929 0.00700
3527.41085 0.00699
3525.36241 0.00697
3523.31398 0.00696
3521.26554 0.00694
3519.21710 0.00690
3517.16866 0.00689
3515.12022 0.00692
3513.07178 0.00695
3511.02335 0.00694
3508.97491 0.00691
3506.92647 0.00690
3504.87803 0.00687
3502.82959 0.00681
3500.78115 0.00675
3498.73272 0.00672
3496.68428 0.00672
3494.63584 0.00674
3492.58740 0.00673
3490.53896 0.00668
3488.49052 0.00667
3486.44209 0.00667
3484.39365 0.00667
3482.34521 0.00667
3480.29677 0.00665
3478.24833 0.00662
3476.19989 0.00659
3474.15146 0.00655
3472.10302 0.00652
3470.05458 0.00652
3468.00614 0.00653
3465.95770 0.00651
3463.90926 0.00647
3461.86082 0.00643
3459.81239 0.00641
3457.76395 0.00642
3455.71551 0.00644
3453.66707 0.00643
3451.61863 0.00640
3449.57019 0.00636
3447.52176 0.00634
3445.47332 0.00631
3443.42488 0.00629
3441.37644 0.00629
3439.32800 0.00631
3437.27956 0.00631
3435.23113 0.00631
3433.18269 0.00629
3431.13425 0.00625
3429.08581 0.00622
3427.03737 0.00621
3424.98893 0.00622
3422.94050 0.00623
3420.89206 0.00621
3418.84362 0.00617
3416.79518 0.00618
3414.74674 0.00622
3412.69830 0.00624
3410.64987 0.00623
3408.60143 0.00620
3406.55299 0.00619
3404.50455 0.00622
3402.45611 0.00626
3400.40767 0.00628
3398.35924 0.00630
3396.31080 0.00631
3394.26236 0.00631
3392.21392 0.00630
3390.16548 0.00628
3388.11704 0.00628
3386.06861 0.00627
3384.02017 0.00627
3381.97173 0.00630
3379.92329 0.00633
3377.87485 0.00633
3375.82641 0.00632
3373.77798 0.00630
3371.72954 0.00627
3369.68110 0.00627
3367.63266 0.00629
3365.58422 0.00631
3363.53578 0.00632
3361.48735 0.00633
3359.43891 0.00636
3357.39047 0.00639
3355.34203 0.00639
3353.29359 0.00640
3351.24515 0.00644
3349.19672 0.00646
3347.14828 0.00645
3345.09984 0.00644
3343.05140 0.00646
3341.00296 0.00648
3338.95452 0.00650
3336.90609 0.00652
3334.85765 0.00652
3332.80921 0.00650
3330.76077 0.00646
3328.71233 0.00646
3326.66389 0.00650
3324.61545 0.00655
3322.56702 0.00659
3320.51858 0.00661
3318.47014 0.00663
3316.42170 0.00667
3314.37326 0.00669
3312.32482 0.00668
3310.27639 0.00666
3308.22795 0.00665
3306.17951 0.00662
3304.13107 0.00661
3302.08263 0.00664
3300.03419 0.00669
3297.98576 0.00672
3295.93732 0.00674
3293.88888 0.00674
3291.84044 0.00674
3289.79200 0.00674
3287.74356 0.00676
3285.69513 0.00680
3283.64669 0.00681
3281.59825 0.00681
3279.54981 0.00681
3277.50137 0.00681
3275.45293 0.00681
3273.40450 0.00683
3271.35606 0.00684
3269.30762 0.00685
3267.25918 0.00684
3265.21074 0.00685
3263.16230 0.00686
3261.11387 0.00686
3259.06543 0.00685
3257.01699 0.00685
3254.96855 0.00689
3252.92011 0.00693
3250.87167 0.00695
3248.82324 0.00693
3246.77480 0.00691
3244.72636 0.00689
3242.67792 0.00686
3240.62948 0.00687
3238.58104 0.00691
3236.53261 0.00694
3234.48417 0.00695
3232.43573 0.00696
3230.38729 0.00695
3228.33885 0.00692
3226.29041 0.00691
3224.24198 0.00693
3222.19354 0.00694
3220.14510 0.00693
3218.09666 0.00693
3216.04822 0.00695
3213.99978 0.00699
3211.95135 0.00703
3209.90291 0.00705
3207.85447 0.00704
3205.80603 0.00702
3203.75759 0.00704
3201.70915 0.00706
3199.66072 0.00707
3197.61228 0.00709
3195.56384 0.00709
3193.51540 0.00710
3191.46696 0.00713
3189.41852 0.00718
3187.37008 0.00722
3185.32165 0.00724
3183.27321 0.00723
3181.22477 0.00724
3179.17633 0.00727
3177.12789 0.00730
3175.07945 0.00733
3173.03102 0.00734
3170.98258 0.00735
3168.93414 0.00737
3166.88570 0.00741
3164.83726 0.00746
3162.78882 0.00750
3160.74039 0.00751
3158.69195 0.00751
3156.64351 0.00754
3154.59507 0.00758
3152.54663 0.00760
3150.49819 0.00762
3148.44976 0.00764
3146.40132 0.00765
3144.35288 0.00767
3142.30444 0.00773
3140.25600 0.00779
3138.20756 0.00780
3136.15913 0.00782
3134.11069 0.00785
3132.06225 0.00787
3130.01381 0.00789
3127.96537 0.00788
3125.91693 0.00790
3123.86850 0.00794
3121.82006 0.00796
3119.77162 0.00795
3117.72318 0.00794
3115.67474 0.00792
3113.62630 0.00793
3111.57787 0.00796
3109.52943 0.00800
3107.48099 0.00805
3105.43255 0.00806
3103.38411 0.00806
3101.33567 0.00807
3099.28724 0.00810
3097.23880 0.00812
3095.19036 0.00813
3093.14192 0.00811
3091.09348 0.00811
3089.04504 0.00812
3086.99661 0.00816
3084.94817 0.00822
3082.89973 0.00825
3080.85129 0.00823
3078.80285 0.00820
3076.75441 0.00821
3074.70598 0.00823
3072.65754 0.00825
3070.60910 0.00825
3068.56066 0.00827
3066.51222 0.00828
3064.46378 0.00828
3062.41535 0.00830
3060.36691 0.00832
3058.31847 0.00836
3056.27003 0.00839
3054.22159 0.00840
3052.17315 0.00841
3050.12471 0.00842
3048.07628 0.00844
3046.02784 0.00847
3043.97940 0.00850
3041.93096 0.00852
3039.88252 0.00853
3037.83408 0.00853
3035.78565 0.00854
3033.73721 0.00856
3031.68877 0.00860
3029.64033 0.00864
3027.59189 0.00868
3025.54345 0.00870
3023.49502 0.00874
3021.44658 0.00878
3019.39814 0.00881
3017.34970 0.00882
3015.30126 0.00882
3013.25282 0.00883
3011.20439 0.00885
3009.15595 0.00888
3007.10751 0.00888
3005.05907 0.00887
3003.01063 0.00886
3000.96219 0.00887
2998.91376 0.00890
2996.86532 0.00892
2994.81688 0.00891
2992.76844 0.00889
2990.72000 0.00890
2988.67156 0.00892
2986.62313 0.00891
2984.57469 0.00887
2982.52625 0.00882
2980.47781 0.00878
2978.42937 0.00873
2976.38093 0.00867
2974.33250 0.00861
2972.28406 0.00853
2970.23562 0.00841
2968.18718 0.00827
2966.13874 0.00812
2964.09030 0.00798
2962.04187 0.00784
2959.99343 0.00774
2957.94499 0.00770
2955.89655 0.00767
2953.84811 0.00767
2951.79967 0.00771
2949.75124 0.00777
2947.70280 0.00781
2945.65436 0.00783
2943.60592 0.00783
2941.55748 0.00778
2939.50904 0.00766
2937.46061 0.00751
2935.41217 0.00735
2933.36373 0.00719
2931.31529 0.00702
2929.26685 0.00689
2927.21841 0.00680
2925.16998 0.00676
2923.12154 0.00677
2921.07310 0.00684
2919.02466 0.00695
2916.97622 0.00706
2914.92778 0.00717
2912.87934 0.00730
2910.83091 0.00743
2908.78247 0.00753
2906.73403 0.00761
2904.68559 0.00769
2902.63715 0.00779
2900.58871 0.00788
2898.54028 0.00796
2896.49184 0.00803
2894.44340 0.00810
2892.39496 0.00818
2890.34652 0.00826
2888.29808 0.00833
2886.24965 0.00839
2884.20121 0.00843
2882.15277 0.00848
2880.10433 0.00850
2878.05589 0.00848
2876.00745 0.00840
2873.95902 0.00833
2871.91058 0.00827
2869.86214 0.00824
2867.81370 0.00823
2865.76526 0.00820
2863.71682 0.00813
2861.66839 0.00801
2859.61995 0.00789
2857.57151 0.00777
2855.52307 0.00768
2853.47463 0.00767
2851.42619 0.00776
2849.37776 0.00792
2847.32932 0.00812
2845.28088 0.00836
2843.23244 0.00861
2841.18400 0.00885
2839.13556 0.00907
2837.08713 0.00927
2835.03869 0.00943
2832.99025 0.00954
2830.94181 0.00963
2828.89337 0.00971
2826.84493 0.00980
2824.79650 0.00987
2822.74806 0.00992
2820.69962 0.00996
2818.65118 0.01002
2816.60274 0.01009
2814.55430 0.01017
2812.50587 0.01024
2810.45743 0.01028
2808.40899 0.01030
2806.36055 0.01033
2804.31211 0.01036
2802.26367 0.01036
2800.21524 0.01037
2798.16680 0.01042
2796.11836 0.01047
2794.06992 0.01052
2792.02148 0.01054
2789.97304 0.01055
2787.92461 0.01056
2785.87617 0.01058
2783.82773 0.01059
2781.77929 0.01060
2779.73085 0.01062
2777.68241 0.01065
2775.63397 0.01068
2773.58554 0.01070
2771.53710 0.01070
2769.48866 0.01070
2767.44022 0.01070
2765.39178 0.01070
2763.34334 0.01070
2761.29491 0.01073
2759.24647 0.01078
2757.19803 0.01081
2755.14959 0.01082
2753.10115 0.01083
2751.05271 0.01084
2749.00428 0.01086
2746.95584 0.01089
2744.90740 0.01092
2742.85896 0.01096
2740.81052 0.01099
2738.76208 0.01100
2736.71365 0.01100
2734.66521 0.01100
2732.61677 0.01103
2730.56833 0.01108
2728.51989 0.01111
2726.47145 0.01112
2724.42302 0.01111
2722.37458 0.01114
2720.32614 0.01117
2718.27770 0.01119
2716.22926 0.01121
2714.18082 0.01123
2712.13239 0.01127
2710.08395 0.01130
2708.03551 0.01132
2705.98707 0.01135
2703.93863 0.01139
2701.89019 0.01143
2699.84176 0.01145
2697.79332 0.01146
2695.74488 0.01147
2693.69644 0.01150
2691.64800 0.01154
2689.59956 0.01157
2687.55113 0.01159
2685.50269 0.01158
2683.45425 0.01156
2681.40581 0.01155
2679.35737 0.01154
2677.30893 0.01154
2675.26050 0.01154
2673.21206 0.01154
2671.16362 0.01156
2669.11518 0.01156
2667.06674 0.01156
2665.01830 0.01159
2662.96987 0.01164
2660.92143 0.01167
2658.87299 0.01167
2656.82455 0.01167
2654.77611 0.01168
2652.72767 0.01169
2650.67924 0.01171
2648.63080 0.01173
2646.58236 0.01174
2644.53392 0.01175
2642.48548 0.01175
2640.43704 0.01175
2638.38860 0.01176
2636.34017 0.01176
2634.29173 0.01174
2632.24329 0.01175
2630.19485 0.01174
2628.14641 0.01173
2626.09797 0.01173
2624.04954 0.01172
2622.00110 0.01171
2619.95266 0.01169
2617.90422 0.01168
2615.85578 0.01167
2613.80734 0.01167
2611.75891 0.01166
2609.71047 0.01165
2607.66203 0.01164
2605.61359 0.01162
2603.56515 0.01159
2601.51671 0.01159
2599.46828 0.01159
2597.41984 0.01156
2595.37140 0.01154
2593.32296 0.01153
2591.27452 0.01152
2589.22608 0.01151
2587.17765 0.01148
2585.12921 0.01144
2583.08077 0.01140
2581.03233 0.01137
2578.98389 0.01132
2576.93545 0.01129
2574.88702 0.01127
2572.83858 0.01124
2570.79014 0.01117
2568.74170 0.01107
2566.69326 0.01098
2564.64482 0.01090
2562.59639 0.01087
2560.54795 0.01088
2558.49951 0.01094
2556.45107 0.01106
2554.40263 0.01120
2552.35419 0.01129
2550.30576 0.01135
2548.25732 0.01140
2546.20888 0.01141
2544.16044 0.01142
2542.11200 0.01144
2540.06356 0.01147
2538.01513 0.01147
2535.96669 0.01145
2533.91825 0.01142
2531.86981 0.01137
2529.82137 0.01129
2527.77293 0.01121
2525.72450 0.01115
2523.67606 0.01111
2521.62762 0.01109
2519.57918 0.01110
2517.53074 0.01114
2515.48230 0.01118
2513.43387 0.01120
2511.38543 0.01123
2509.33699 0.01127
2507.28855 0.01132
2505.24011 0.01136
2503.19167 0.01142
2501.14324 0.01149
2499.09480 0.01156
2497.04636 0.01162
2494.99792 0.01168
2492.94948 0.01176
2490.90104 0.01183
2488.85260 0.01190
2486.80417 0.01194
2484.75573 0.01196
2482.70729 0.01198
2480.65885 0.01200
2478.61041 0.01200
2476.56197 0.01198
2474.51354 0.01198
2472.46510 0.01200
2470.41666 0.01202
2468.36822 0.01202
2466.31978 0.01202
2464.27134 0.01200
2462.22291 0.01199
2460.17447 0.01198
2458.12603 0.01197
2456.07759 0.01197
2454.02915 0.01196
2451.98071 0.01195
2449.93228 0.01194
2447.88384 0.01190
2445.83540 0.01187
2443.78696 0.01186
2441.73852 0.01185
2439.69008 0.01181
2437.64165 0.01176
2435.59321 0.01174
2433.54477 0.01173
2431.49633 0.01170
2429.44789 0.01166
2427.39945 0.01163
2425.35102 0.01158
2423.30258 0.01154
2421.25414 0.01151
2419.20570 0.01148
2417.15726 0.01144
2415.10882 0.01141
2413.06039 0.01140
2411.01195 0.01139
2408.96351 0.01136
2406.91507 0.01129
2404.86663 0.01125
2402.81819 0.01123
2400.76976 0.01120
2398.72132 0.01116
2396.67288 0.01115
2394.62444 0.01116
2392.57600 0.01115
2390.52756 0.01114
2388.47913 0.01113
2386.43069 0.01112
2384.38225 0.01112
2382.33381 0.01115
2380.28537 0.01119
2378.23693 0.01126
2376.18850 0.01133
2374.14006 0.01140
2372.09162 0.01145
2370.04318 0.01151
2367.99474 0.01159
2365.94630 0.01169
2363.89787 0.01180
2361.84943 0.01188
2359.80099 0.01176
2357.75255 0.01150
2355.70411 0.01132
2353.65567 0.01117
2351.60723 0.01097
2349.55880 0.01090
2347.51036 0.01102
2345.46192 0.01121
2343.41348 0.01130
2341.36504 0.01125
2339.31660 0.01111
2337.26817 0.01093
2335.21973 0.01081
2333.17129 0.01083
2331.12285 0.01090
2329.07441 0.01088
2327.02597 0.01082
2324.97754 0.01074
2322.92910 0.01065
2320.88066 0.01060
2318.83222 0.01054
2316.78378 0.01047
2314.73534 0.01038
2312.68691 0.01031
2310.63847 0.01026
2308.59003 0.01019
2306.54159 0.01012
2304.49315 0.01008
2302.44471 0.01007
2300.39628 0.01006
2298.34784 0.01004
2296.29940 0.01001
2294.25096 0.00998
2292.20252 0.00995
2290.15408 0.00991
2288.10565 0.00986
2286.05721 0.00983
2284.00877 0.00980
2281.96033 0.00978
2279.91189 0.00973
2277.86345 0.00967
2275.81502 0.00962
2273.76658 0.00960
2271.71814 0.00957
2269.66970 0.00953
2267.62126 0.00951
2265.57282 0.00949
2263.52439 0.00944
2261.47595 0.00938
2259.42751 0.00935
2257.37907 0.00934
2255.33063 0.00931
2253.28219 0.00926
2251.23376 0.00922
2249.18532 0.00919
2247.13688 0.00915
2245.08844 0.00910
2243.04000 0.00905
2240.99156 0.00899
2238.94313 0.00893
2236.89469 0.00889
2234.84625 0.00888
2232.79781 0.00886
2230.74937 0.00881
2228.70093 0.00878
2226.65250 0.00878
2224.60406 0.00877
2222.55562 0.00872
2220.50718 0.00868
2218.45874 0.00866
2216.41030 0.00865
2214.36186 0.00863
2212.31343 0.00862
2210.26499 0.00861
2208.21655 0.00859
2206.16811 0.00856
2204.11967 0.00853
2202.07123 0.00852
2200.02280 0.00851
2197.97436 0.00849
2195.92592 0.00847
2193.87748 0.00848
2191.82904 0.00847
2189.78060 0.00845
2187.73217 0.00840
2185.68373 0.00834
2183.63529 0.00828
2181.58685 0.00824
2179.53841 0.00820
2177.48997 0.00815
2175.44154 0.00808
2173.39310 0.00800
2171.34466 0.00792
2169.29622 0.00787
2167.24778 0.00784
2165.19934 0.00781
2163.15091 0.00777
2161.10247 0.00771
2159.05403 0.00765
2157.00559 0.00757
2154.95715 0.00751
2152.90871 0.00747
2150.86028 0.00745
2148.81184 0.00742
2146.76340 0.00739
2144.71496 0.00737
2142.66652 0.00735
2140.61808 0.00732
2138.56965 0.00730
2136.52121 0.00727
2134.47277 0.00725
2132.42433 0.00723
2130.37589 0.00722
2128.32745 0.00721
2126.27902 0.00719
2124.23058 0.00716
2122.18214 0.00716
2120.13370 0.00717
2118.08526 0.00718
2116.03682 0.00715
2113.98839 0.00711
2111.93995 0.00708
2109.89151 0.00706
2107.84307 0.00704
2105.79463 0.00702
2103.74619 0.00701
2101.69776 0.00702
2099.64932 0.00702
2097.60088 0.00701
2095.55244 0.00699
2093.50400 0.00699
2091.45556 0.00698
2089.40713 0.00696
2087.35869 0.00695
2085.31025 0.00695
2083.26181 0.00695
2081.21337 0.00695
2079.16493 0.00695
2077.11649 0.00693
2075.06806 0.00692
2073.01962 0.00691
2070.97118 0.00690
2068.92274 0.00690
2066.87430 0.00691
2064.82586 0.00692
2062.77743 0.00692
2060.72899 0.00694
2058.68055 0.00696
2056.63211 0.00696
2054.58367 0.00696
2052.53523 0.00696
2050.48680 0.00697
2048.43836 0.00698
2046.38992 0.00696
2044.34148 0.00695
2042.29304 0.00696
2040.24460 0.00699
2038.19617 0.00701
2036.14773 0.00703
2034.09929 0.00705
2032.05085 0.00705
2030.00241 0.00702
2027.95397 0.00701
2025.90554 0.00703
2023.85710 0.00706
2021.80866 0.00707
2019.76022 0.00706
2017.71178 0.00705
2015.66334 0.00704
2013.61491 0.00703
2011.56647 0.00702
2009.51803 0.00702
2007.46959 0.00701
2005.42115 0.00699
2003.37271 0.00697
2001.32428 0.00694
1999.27584 0.00690
1997.22740 0.00686
1995.17896 0.00685
1993.13052 0.00683
1991.08208 0.00681
1989.03365 0.00681
1986.98521 0.00678
1984.93677 0.00674
1982.88833 0.00672
1980.83989 0.00671
1978.79145 0.00670
1976.74302 0.00667
1974.69458 0.00665
1972.64614 0.00664
1970.59770 0.00665
1968.54926 0.00668
1966.50082 0.00671
1964.45239 0.00674
1962.40395 0.00677
1960.35551 0.00679
1958.30707 0.00679
1956.25863 0.00680
1954.21019 0.00681
1952.16176 0.00681
1950.11332 0.00681
1948.06488 0.00681
1946.01644 0.00683
1943.96800 0.00685
1941.91956 0.00685
1939.87112 0.00684
1937.82269 0.00683
1935.77425 0.00682
1933.72581 0.00682
1931.67737 0.00683
1929.62893 0.00683
1927.58049 0.00683
1925.53206 0.00682
1923.48362 0.00682
1921.43518 0.00682
1919.38674 0.00681
1917.33830 0.00678
1915.28986 0.00675
1913.24143 0.00674
1911.19299 0.00672
1909.14455 0.00669
1907.09611 0.00667
1905.04767 0.00665
1902.99923 0.00663
1900.95080 0.00660
1898.90236 0.00660
1896.85392 0.00660
1894.80548 0.00656
1892.75704 0.00651
1890.70860 0.00649
1888.66017 0.00647
1886.61173 0.00645
1884.56329 0.00642
1882.51485 0.00638
1880.46641 0.00633
1878.41797 0.00627
1876.36954 0.00621
1874.32110 0.00620
1872.27266 0.00623
1870.22422 0.00626
1868.17578 0.00622
1866.12734 0.00614
1864.07891 0.00610
1862.03047 0.00609
1859.98203 0.00607
1857.93359 0.00606
1855.88515 0.00603
1853.83671 0.00600
1851.78828 0.00596
1849.73984 0.00593
1847.69140 0.00592
1845.64296 0.00592
1843.59452 0.00590
1841.54608 0.00587
1839.49765 0.00585
1837.44921 0.00582
1835.40077 0.00579
1833.35233 0.00579
1831.30389 0.00580
1829.25545 0.00579
1827.20702 0.00577
1825.15858 0.00576
1823.11014 0.00573
1821.06170 0.00568
1819.01326 0.00562
1816.96482 0.00556
1814.91639 0.00550
1812.86795 0.00546
1810.81951 0.00542
1808.77107 0.00537
1806.72263 0.00532
1804.67419 0.00528
1802.62575 0.00523
1800.57732 0.00519
1798.52888 0.00514
1796.48044 0.00511
1794.43200 0.00510
1792.38356 0.00508
1790.33512 0.00503
1788.28669 0.00496
1786.23825 0.00490
1784.18981 0.00485
1782.14137 0.00481
1780.09293 0.00478
1778.04449 0.00473
1775.99606 0.00469
1773.94762 0.00466
1771.89918 0.00463
1769.85074 0.00458
1767.80230 0.00451
1765.75386 0.00447
1763.70543 0.00444
1761.65699 0.00440
1759.60855 0.00438
1757.56011 0.00439
1755.51167 0.00438
1753.46323 0.00436
1751.41480 0.00433
1749.36636 0.00428
1747.31792 0.00425
1745.26948 0.00424
1743.22104 0.00422
1741.17260 0.00419
1739.12417 0.00417
1737.07573 0.00419
1735.02729 0.00421
1732.97885 0.00419
1730.93041 0.00412
1728.88197 0.00407
1726.83354 0.00404
1724.78510 0.00402
1722.73666 0.00401
1720.68822 0.00401
1718.63978 0.00398
1716.59134 0.00388
1714.54291 0.00380
1712.49447 0.00381
1710.44603 0.00383
1708.39759 0.00381
1706.34915 0.00378
1704.30071 0.00377
1702.25228 0.00377
1700.20384 0.00376
1698.15540 0.00375
1696.10696 0.00372
1694.05852 0.00367
1692.01008 0.00364
1689.96165 0.00361
1687.91321 0.00356
1685.86477 0.00353
1683.81633 0.00351
1681.76789 0.00348
1679.71945 0.00344
1677.67102 0.00341
1675.62258 0.00338
1673.57414 0.00335
1671.52570 0.00332
1669.47726 0.00327
1667.42882 0.00322
1665.38038 0.00320
1663.33195 0.00319
1661.28351 0.00319
1659.23507 0.00317
1657.18663 0.00314
1655.13819 0.00312
1653.08975 0.00308
1651.04132 0.00307
1648.99288 0.00308
1646.94444 0.00307
1644.89600 0.00305
1642.84756 0.00305
1640.79912 0.00303
1638.75069 0.00301
1636.70225 0.00301
1634.65381 0.00299
1632.60537 0.00295
1630.55693 0.00292
1628.50849 0.00291
1626.46006 0.00293
1624.41162 0.00295
1622.36318 0.00297
1620.31474 0.00300
1618.26630 0.00304
1616.21786 0.00307
1614.16943 0.00307
1612.12099 0.00308
1610.07255 0.00310
1608.02411 0.00313
1605.97567 0.00315
1603.92723 0.00317
1601.87880 0.00317
1599.83036 0.00317
1597.78192 0.00318
1595.73348 0.00319
1593.68504 0.00319
1591.63660 0.00318
1589.58817 0.00319
1587.53973 0.00319
1585.49129 0.00318
1583.44285 0.00318
1581.39441 0.00317
1579.34597 0.00315
1577.29754 0.00315
1575.24910 0.00317
1573.20066 0.00319
1571.15222 0.00319
1569.10378 0.00319
1567.05534 0.00318
1565.00691 0.00317
1562.95847 0.00318
1560.91003 0.00319
1558.86159 0.00313
1556.81315 0.00311
1554.76471 0.00314
1552.71628 0.00316
1550.66784 0.00317
1548.61940 0.00318
1546.57096 0.00320
1544.52252 0.00320
1542.47408 0.00318
1540.42565 0.00316
1538.37721 0.00316
1536.32877 0.00317
1534.28033 0.00320
1532.23189 0.00323
1530.18345 0.00323
1528.13501 0.00323
1526.08658 0.00325
1524.03814 0.00326
1521.98970 0.00321
1519.94126 0.00313
1517.89282 0.00313
1515.84438 0.00313
1513.79595 0.00311
1511.74751 0.00308
1509.69907 0.00306
1507.65063 0.00305
1505.60219 0.00306
1503.55375 0.00307
1501.50532 0.00307
1499.45688 0.00307
1497.40844 0.00306
1495.36000 0.00303
1493.31156 0.00302
1491.26312 0.00300
1489.21469 0.00296
1487.16625 0.00294
1485.11781 0.00294
1483.06937 0.00293
1481.02093 0.00288
1478.97249 0.00284
1476.92406 0.00281
1474.87562 0.00279
1472.82718 0.00275
1470.77874 0.00272
1468.73030 0.00272
1466.68186 0.00272
1464.63343 0.00269
1462.58499 0.00267
1460.53655 0.00266
1458.48811 0.00265
1456.43967 0.00261
1454.39123 0.00256
1452.34280 0.00254
1450.29436 0.00253
1448.24592 0.00250
1446.19748 0.00248
1444.14904 0.00245
1442.10060 0.00242
1440.05217 0.00241
1438.00373 0.00241
1435.95529 0.00239
1433.90685 0.00235
1431.85841 0.00233
1429.80997 0.00231
1427.76154 0.00229
1425.71310 0.00229
1423.66466 0.00229
1421.61622 0.00228
1419.56778 0.00224
1417.51934 0.00220
1415.47091 0.00217
1413.42247 0.00216
1411.37403 0.00213
1409.32559 0.00210
1407.27715 0.00207
1405.22871 0.00205
1403.18028 0.00204
1401.13184 0.00202
1399.08340 0.00198
1397.03496 0.00196
1394.98652 0.00193
1392.93808 0.00188
1390.88965 0.00186
1388.84121 0.00185
1386.79277 0.00182
1384.74433 0.00178
1382.69589 0.00173
1380.64745 0.00169
1378.59901 0.00166
1376.55058 0.00166
1374.50214 0.00167
1372.45370 0.00168
1370.40526 0.00168
1368.35682 0.00166
1366.30838 0.00164
1364.25995 0.00162
1362.21151 0.00162
1360.16307 0.00162
1358.11463 0.00160
1356.06619 0.00158
1354.01775 0.00156
1351.96932 0.00154
1349.92088 0.00151
1347.87244 0.00149
1345.82400 0.00148
1343.77556 0.00147
1341.72712 0.00148
1339.67869 0.00147
1337.63025 0.00144
1335.58181 0.00143
1333.53337 0.00142
1331.48493 0.00142
1329.43649 0.00141
1327.38806 0.00138
1325.33962 0.00134
1323.29118 0.00133
1321.24274 0.00133
1319.19430 0.00132
1317.14586 0.00129
1315.09743 0.00127
1313.04899 0.00123
1311.00055 0.00120
1308.95211 0.00119
1306.90367 0.00118
1304.85523 0.00116
1302.80680 0.00113
1300.75836 0.00112
1298.70992 0.00110
1296.66148 0.00107
1294.61304 0.00105
1292.56460 0.00104
1290.51617 0.00104
1288.46773 0.00103
1286.41929 0.00102
1284.37085 0.00099
1282.32241 0.00095
1280.27397 0.00093
1278.22554 0.00093
1276.17710 0.00093
1274.12866 0.00090
1272.08022 0.00086
1270.03178 0.00082
1267.98334 0.00078
1265.93491 0.00075
1263.88647 0.00073
1261.83803 0.00071
1259.78959 0.00070
1257.74115 0.00068
1255.69271 0.00065
1253.64428 0.00061
1251.59584 0.00058
1249.54740 0.00057
1247.49896 0.00057
1245.45052 0.00057
1243.40208 0.00056
1241.35364 0.00054
1239.30521 0.00053
1237.25677 0.00052
1235.20833 0.00051
1233.15989 0.00049
1231.11145 0.00048
1229.06301 0.00047
1227.01458 0.00045
1224.96614 0.00043
1222.91770 0.00042
1220.86926 0.00042
1218.82082 0.00044
1216.77238 0.00045
1214.72395 0.00047
1212.67551 0.00048
1210.62707 0.00050
1208.57863 0.00051
1206.53019 0.00052
1204.48175 0.00054
1202.43332 0.00057
1200.38488 0.00062
1198.33644 0.00066
1196.28800 0.00071
1194.23956 0.00078
1192.19112 0.00088
1190.14269 0.00098
1188.09425 0.00107
1186.04581 0.00119
1183.99737 0.00132
1181.94893 0.00143
1179.90049 0.00151
1177.85206 0.00159
1175.80362 0.00168
1173.75518 0.00179
1171.70674 0.00190
1169.65830 0.00200
1167.60986 0.00210
1165.56143 0.00220
1163.51299 0.00232
1161.46455 0.00246
1159.41611 0.00260
1157.36767 0.00274
1155.31923 0.00287
1153.27080 0.00304
1151.22236 0.00325
1149.17392 0.00347
1147.12548 0.00369
1145.07704 0.00395
1143.02860 0.00425
1140.98017 0.00458
1138.93173 0.00492
1136.88329 0.00523
1134.83485 0.00546
1132.78641 0.00564
1130.73797 0.00582
1128.68954 0.00600
1126.64110 0.00617
1124.59266 0.00633
1122.54422 0.00646
1120.49578 0.00656
1118.44734 0.00663
1116.39891 0.00667
1114.35047 0.00668
1112.30203 0.00669
1110.25359 0.00668
1108.20515 0.00667
1106.15671 0.00666
1104.10827 0.00665
1102.05984 0.00663
1100.01140 0.00659
1097.96296 0.00654
1095.91452 0.00652
1093.86608 0.00655
1091.81764 0.00660
1089.76921 0.00665
1087.72077 0.00669
1085.67233 0.00676
1083.62389 0.00685
1081.57545 0.00692
1079.52701 0.00698
1077.47858 0.00705
1075.43014 0.00712
1073.38170 0.00721
1071.33326 0.00731
1069.28482 0.00743
1067.23638 0.00752
1065.18795 0.00761
1063.13951 0.00769
1061.09107 0.00780
1059.04263 0.00794
1056.99419 0.00813
1054.94575 0.00835
1052.89732 0.00860
1050.84888 0.00889
1048.80044 0.00924
1046.75200 0.00960
1044.70356 0.00994
1042.65512 0.01026
1040.60669 0.01057
1038.55825 0.01084
1036.50981 0.01105
1034.46137 0.01125
1032.41293 0.01144
1030.36449 0.01160
1028.31606 0.01174
1026.26762 0.01187
1024.21918 0.01201
1022.17074 0.01213
1020.12230 0.01222
1018.07386 0.01229
1016.02543 0.01233
1013.97699 0.01235
1011.92855 0.01230
1009.88011 0.01216
1007.83167 0.01192
1005.78323 0.01164
1003.73480 0.01133
1001.68636 0.01099
999.63792 0.01065
997.58948 0.01036
995.54104 0.01017
993.49260 0.01007
991.44417 0.01008
989.39573 0.01019
987.34729 0.01038
985.29885 0.01062
983.25041 0.01086
981.20197 0.01106
979.15354 0.01123
977.10510 0.01142
975.05666 0.01162
973.00822 0.01178
970.95978 0.01191
968.91134 0.01201
966.86290 0.01203
964.81447 0.01194
962.76603 0.01176
960.71759 0.01156
958.66915 0.01134
956.62071 0.01110
954.57227 0.01086
952.52384 0.01067
950.47540 0.01052
948.42696 0.01040
946.37852 0.01027
944.33008 0.01015
942.28164 0.01004
940.23321 0.00996
938.18477 0.00993
936.13633 0.00999
934.08789 0.01011
932.03945 0.01035
929.99101 0.01070
927.94258 0.01108
925.89414 0.01142
923.84570 0.01166
921.79726 0.01176
919.74882 0.01172
917.70038 0.01160
915.65195 0.01147
913.60351 0.01134
911.55507 0.01119
909.50663 0.01104
907.45819 0.01095
905.40975 0.01091
903.36132 0.01086
901.31288 0.01080
899.26444 0.01077
897.21600 0.01080
895.16756 0.01083
893.11912 0.01081
891.07069 0.01074
889.02225 0.01066
886.97381 0.01060
884.92537 0.01059
882.87693 0.01060
880.82849 0.01057
878.78006 0.01052
876.73162 0.01049
874.68318 0.01049
872.63474 0.01046
870.58630 0.01041
868.53786 0.01035
866.48943 0.01030
864.44099 0.01021
862.39255 0.01006
860.34411 0.00988
858.29567 0.00964
856.24723 0.00931
854.19880 0.00894
852.15036 0.00855
850.10192 0.00820
848.05348 0.00785
846.00504 0.00750
843.95660 0.00721
841.90817 0.00702
839.85973 0.00691
837.81129 0.00684
835.76285 0.00676
833.71441 0.00665
831.66597 0.00652
829.61753 0.00635
827.56910 0.00616
825.52066 0.00597
823.47222 0.00580
821.42378 0.00564
819.37534 0.00547
817.32690 0.00529
815.27847 0.00514
813.23003 0.00501
811.18159 0.00485
809.13315 0.00468
807.08471 0.00455
805.03627 0.00445
802.98784 0.00438
800.93940 0.00433
798.89096 0.00430
796.84252 0.00426
794.79408 0.00422
792.74564 0.00424
790.69721 0.00431
788.64877 0.00435
786.60033 0.00435
784.55189 0.00428
782.50345 0.00420
780.45501 0.00417
778.40658 0.00414
776.35814 0.00408
774.30970 0.00399
772.26126 0.00383
770.21282 0.00364
768.16438 0.00346
766.11595 0.00333
764.06751 0.00325
762.01907 0.00320
759.97063 0.00313
757.92219 0.00304
755.87375 0.00288
753.82532 0.00272
751.77688 0.00266
749.72844 0.00264
747.68000 0.00258
745.63156 0.00253
743.58312 0.00252
741.53469 0.00248
739.48625 0.00241
737.43781 0.00233
735.38937 0.00224
733.34093 0.00223
731.29249 0.00231
729.24406 0.00238
727.19562 0.00235
725.14718 0.00230
723.09874 0.00228
721.05030 0.00226
719.00186 0.00226
716.95343 0.00224
714.90499 0.00222
712.85655 0.00223
710.80811 0.00227
708.75967 0.00232
706.71123 0.00234
704.66280 0.00233
702.61436 0.00227
700.56592 0.00220
698.51748 0.00222
696.46904 0.00232
694.42060 0.00235
692.37216 0.00232
690.32373 0.00218
688.27529 0.00192
686.22685 0.00177
684.17841 0.00180
682.12997 0.00188
680.08153 0.00194
678.03310 0.00205
675.98466 0.00219
673.93622 0.00227
671.88778 0.00229
669.83934 0.00220
667.79090 0.00175
665.74247 0.00148
663.69403 0.00162
661.64559 0.00180
659.59715 0.00187
657.54871 0.00180
655.50027 0.00154
653.45184 0.00137
651.40340 0.00140
649.35496 0.00152
647.30652 0.00173
645.25808 0.00196
643.20964 0.00217
641.16121 0.00232
639.11277 0.00234
637.06433 0.00234
635.01589 0.00244
632.96745 0.00251
630.91901 0.00244
628.87058 0.00234
626.82214 0.00228
624.77370 0.00214
622.72526 0.00189
620.67682 0.00165
618.62838 0.00157
616.57995 0.00164
614.53151 0.00178
612.48307 0.00208
610.43463 0.00233
608.38619 0.00212
606.33775 0.00205
604.28932 0.00283
602.24088 0.00411
600.19244 0.00483
598.14400 0.00440
