3996.50324 0.01138
3994.45480 0.01130
3992.40636 0.01126
3990.35792 0.01127
3988.30948 0.01135
3986.26104 0.01144
3984.21261 0.01141
3982.16417 0.01136
3980.11573 0.01136
3978.06729 0.01130
3976.01885 0.01114
3973.97041 0.01104
3971.92198 0.01108
3969.87354 0.01117
3967.82510 0.01130
3965.77666 0.01134
3963.72822 0.01117
3961.67978 0.01099
3959.63135 0.01102
3957.58291 0.01111
3955.53447 0.01113
3953.48603 0.01097
3951.43759 0.01052
3949.38915 0.01009
3947.34072 0.01015
3945.29228 0.01026
3943.24384 0.01010
3941.19540 0.01039
3939.14696 0.01101
3937.09852 0.01121
3935.05009 0.01070
3933.00165 0.00984
3930.95321 0.00958
3928.90477 0.01004
3926.85633 0.01015
3924.80789 0.00983
3922.75946 0.00986
3920.71102 0.00985
3918.66258 0.00947
3916.61414 0.00960
3914.56570 0.01055
3912.51726 0.01139
3910.46883 0.01155
3908.42039 0.01084
3906.37195 0.00907
3904.32351 0.00728
3902.27507 0.00668
3900.22663 0.00719
3898.17820 0.00855
3896.12976 0.00988
3894.08132 0.00970
3892.03288 0.00879
3889.98444 0.00897
3887.93600 0.00912
3885.88756 0.00839
3883.83913 0.00813
3881.79069 0.00814
3879.74225 0.00857
3877.69381 0.00954
3875.64537 0.00933
3873.59693 0.00816
3871.54850 0.00715
3869.50006 0.00694
3867.45162 0.00752
3865.40318 0.00758
3863.35474 0.00764
3861.30630 0.00868
3859.25787 0.00934
3857.20943 0.00815
3855.16099 0.00571
3853.11255 0.00460
3851.06411 0.00633
3849.01567 0.00905
3846.96724 0.01022
3844.91880 0.00950
3842.87036 0.00807
3840.82192 0.00671
3838.77348 0.00584
3836.72504 0.00619
3834.67661 0.00730
3832.62817 0.00825
3830.57973 0.00900
3828.53129 0.00934
3826.48285 0.00914
3824.43441 0.00840
3822.38598 0.00689
3820.33754 0.00616
3818.28910 0.00669
3816.24066 0.00735
3814.19222 0.00887
3812.14378 0.01059
3810.09535 0.01047
3808.04691 0.00891
3805.99847 0.00798
3803.95003 0.00740
3801.90159 0.00654
3799.85315 0.00691
3797.80472 0.00807
3795.75628 0.00920
3793.70784 0.01062
3791.65940 0.01152
3789.61096 0.01158
3787.56252 0.01109
3785.51409 0.01044
3783.46565 0.01021
3781.41721 0.00987
3779.36877 0.00950
3777.32033 0.01018
3775.27189 0.01108
3773.22346 0.01072
3771.17502 0.00936
3769.12658 0.00856
3767.07814 0.00870
3765.02970 0.00916
3762.98126 0.00945
3760.93283 0.00875
3758.88439 0.00788
3756.83595 0.00780
3754.78751 0.00722
3752.73907 0.00547
3750.69063 0.00425
3748.64219 0.00451
3746.59376 0.00475
3744.54532 0.00470
3742.49688 0.00561
3740.44844 0.00649
3738.40000 0.00582
3736.35156 0.00447
3734.30313 0.00410
3732.25469 0.00511
3730.20625 0.00649
3728.15781 0.00690
3726.10937 0.00642
3724.06093 0.00612
3722.01250 0.00632
3719.96406 0.00687
3717.91562 0.00744
3715.86718 0.00728
3713.81874 0.00596
3711.77030 0.00460
3709.72187 0.00471
3707.67343 0.00585
3705.62499 0.00653
3703.57655 0.00619
3701.52811 0.00578
3699.47967 0.00601
3697.43124 0.00626
3695.38280 0.00600
3693.33436 0.00514
3691.28592 0.00391
3689.23748 0.00331
3687.18904 0.00391
3685.14061 0.00488
3683.09217 0.00519
3681.04373 0.00470
3678.99529 0.00375
3676.94685 0.00270
3674.89841 0.00231
3672.84998 0.00251
3670.80154 0.00251
3668.75310 0.00272
3666.70466 0.00344
3664.65622 0.00390
3662.60778 0.00385
3660.55935 0.00357
3658.51091 0.00309
3656.46247 0.00264
3654.41403 0.00242
3652.36559 0.00199
3650.31715 0.00135
3648.26872 0.00117
3646.22028 0.00158
3644.17184 0.00206
3642.12340 0.00224
3640.07496 0.00221
3638.02652 0.00212
3635.97809 0.00198
3633.92965 0.00178
3631.88121 0.00146
3629.83277 0.00111
3627.78433 0.00109
3625.73589 0.00140
3623.68746 0.00157
3621.63902 0.00142
3619.59058 0.00120
3617.54214 0.00116
3615.49370 0.00120
3613.44526 0.00118
3611.39682 0.00118
3609.34839 0.00119
3607.29995 0.00125
3605.25151 0.00141
3603.20307 0.00148
3601.15463 0.00140
3599.10619 0.00133
3597.05776 0.00130
3595.00932 0.00128
3592.96088 0.00132
3590.91244 0.00130
3588.86400 0.00113
3586.81556 0.00106
3584.76713 0.00125
3582.71869 0.00143
3580.67025 0.00148
3578.62181 0.00148
3576.57337 0.00147
3574.52493 0.00147
3572.47650 0.00145
3570.42806 0.00131
3568.37962 0.00106
3566.33118 0.00096
3564.28274 0.00111
3562.23430 0.00128
3560.18587 0.00138
3558.13743 0.00144
3556.08899 0.00144
3554.04055 0.00138
3551.99211 0.00133
3549.94367 0.00131
3547.89524 0.00125
3545.84680 0.00120
3543.79836 0.00126
3541.74992 0.00137
3539.70148 0.00142
3537.65304 0.00140
3535.60461 0.00139
3533.55617 0.00139
3531.50773 0.00136
3529.45929 0.00128
3527.41085 0.00124
3525.36241 0.00124
3523.31398 0.00126
3521.26554 0.00131
3519.21710 0.00137
3517.16866 0.00139
3515.12022 0.00141
3513.07178 0.00139
3511.02335 0.00134
3508.97491 0.00133
3506.92647 0.00133
3504.87803 0.00129
3502.82959 0.00125
3500.78115 0.00131
3498.73272 0.00136
3496.68428 0.00136
3494.63584 0.00135
3492.58740 0.00136
3490.53896 0.00135
3488.49052 0.00132
3486.44209 0.00131
3484.39365 0.00131
3482.34521 0.00129
3480.29677 0.00130
3478.24833 0.00132
3476.19989 0.00132
3474.15146 0.00131
3472.10302 0.00132
3470.05458 0.00133
3468.00614 0.00132
3465.95770 0.00130
3463.90926 0.00129
3461.86082 0.00128
3459.81239 0.00128
3457.76395 0.00128
3455.71551 0.00128
3453.66707 0.00128
3451.61863 0.00128
3449.57019 0.00124
3447.52176 0.00119
3445.47332 0.00118
3443.42488 0.00120
3441.37644 0.00123
3439.32800 0.00126
3437.27956 0.00128
3435.23113 0.00127
3433.18269 0.00126
3431.13425 0.00125
3429.08581 0.00126
3427.03737 0.00126
3424.98893 0.00124
3422.94050 0.00122
3420.89206 0.00119
3418.84362 0.00119
3416.79518 0.00120
3414.74674 0.00122
3412.69830 0.00124
3410.64987 0.00125
3408.60143 0.00125
3406.55299 0.00125
3404.50455 0.00124
3402.45611 0.00124
3400.40767 0.00123
3398.35924 0.00123
3396.31080 0.00122
3394.26236 0.00122
3392.21392 0.00123
3390.16548 0.00126
3388.11704 0.00127
3386.06861 0.00125
3384.02017 0.00124
3381.97173 0.00126
3379.92329 0.00128
3377.87485 0.00129
3375.82641 0.00130
3373.77798 0.00131
3371.72954 0.00132
3369.68110 0.00133
3367.63266 0.00132
3365.58422 0.00131
3363.53578 0.00131
3361.48735 0.00132
3359.43891 0.00134
3357.39047 0.00136
3355.34203 0.00136
3353.29359 0.00138
3351.24515 0.00140
3349.19672 0.00143
3347.14828 0.00145
3345.09984 0.00145
3343.05140 0.00145
3341.00296 0.00146
3338.95452 0.00146
3336.90609 0.00146
3334.85765 0.00147
3332.80921 0.00151
3330.76077 0.00153
3328.71233 0.00153
3326.66389 0.00153
3324.61545 0.00155
3322.56702 0.00156
3320.51858 0.00158
3318.47014 0.00159
3316.42170 0.00160
3314.37326 0.00159
3312.32482 0.00157
3310.27639 0.00158
3308.22795 0.00160
3306.17951 0.00163
3304.13107 0.00166
3302.08263 0.00167
3300.03419 0.00168
3297.98576 0.00169
3295.93732 0.00169
3293.88888 0.00169
3291.84044 0.00169
3289.79200 0.00170
3287.74356 0.00171
3285.69513 0.00172
3283.64669 0.00174
3281.59825 0.00174
3279.54981 0.00175
3277.50137 0.00175
3275.45293 0.00175
3273.40450 0.00177
3271.35606 0.00181
3269.30762 0.00184
3267.25918 0.00184
3265.21074 0.00184
3263.16230 0.00185
3261.11387 0.00187
3259.06543 0.00187
3257.01699 0.00187
3254.96855 0.00187
3252.92011 0.00190
3250.87167 0.00193
3248.82324 0.00195
3246.77480 0.00195
3244.72636 0.00195
3242.67792 0.00198
3240.62948 0.00202
3238.58104 0.00203
3236.53261 0.00205
3234.48417 0.00207
3232.43573 0.00208
3230.38729 0.00209
3228.33885 0.00211
3226.29041 0.00213
3224.24198 0.00215
3222.19354 0.00216
3220.14510 0.00217
3218.09666 0.00219
3216.04822 0.00222
3213.99978 0.00224
3211.95135 0.00227
3209.90291 0.00229
3207.85447 0.00232
3205.80603 0.00236
3203.75759 0.00240
3201.70915 0.00241
3199.66072 0.00241
3197.61228 0.00241
3195.56384 0.00245
3193.51540 0.00250
3191.46696 0.00254
3189.41852 0.00258
3187.37008 0.00261
3185.32165 0.00263
3183.27321 0.00267
3181.22477 0.00270
3179.17633 0.00271
3177.12789 0.00274
3175.07945 0.00280
3173.03102 0.00286
3170.98258 0.00289
3168.93414 0.00293
3166.88570 0.00296
3164.83726 0.00300
3162.78882 0.00304
3160.74039 0.00308
3158.69195 0.00313
3156.64351 0.00319
3154.59507 0.00323
3152.54663 0.00326
3150.49819 0.00330
3148.44976 0.00333
3146.40132 0.00338
3144.35288 0.00343
3142.30444 0.00347
3140.25600 0.00352
3138.20756 0.00356
3136.15913 0.00358
3134.11069 0.00359
3132.06225 0.00364
3130.01381 0.00372
3127.96537 0.00378
3125.91693 0.00382
3123.86850 0.00385
3121.82006 0.00389
3119.77162 0.00393
3117.72318 0.00396
3115.67474 0.00402
3113.62630 0.00410
3111.57787 0.00416
3109.52943 0.00421
3107.48099 0.00427
3105.43255 0.00432
3103.38411 0.00435
3101.33567 0.00439
3099.28724 0.00446
3097.23880 0.00452
3095.19036 0.00458
3093.14192 0.00466
3091.09348 0.00473
3089.04504 0.00478
3086.99661 0.00484
3084.94817 0.00489
3082.89973 0.00491
3080.85129 0.00494
3078.80285 0.00500
3076.75441 0.00510
3074.70598 0.00520
3072.65754 0.00527
3070.60910 0.00533
3068.56066 0.00534
3066.51222 0.00534
3064.46378 0.00540
3062.41535 0.00550
3060.36691 0.00558
3058.31847 0.00563
3056.27003 0.00569
3054.22159 0.00578
3052.17315 0.00586
3050.12471 0.00591
3048.07628 0.00598
3046.02784 0.00608
3043.97940 0.00617
3041.93096 0.00624
3039.88252 0.00630
3037.83408 0.00634
3035.78565 0.00636
3033.73721 0.00637
3031.68877 0.00643
3029.64033 0.00655
3027.59189 0.00667
3025.54345 0.00675
3023.49502 0.00683
3021.44658 0.00689
3019.39814 0.00696
3017.34970 0.00700
3015.30126 0.00702
3013.25282 0.00706
3011.20439 0.00714
3009.15595 0.00726
3007.10751 0.00736
3005.05907 0.00740
3003.01063 0.00745
3000.96219 0.00753
2998.91376 0.00759
2996.86532 0.00764
2994.81688 0.00768
2992.76844 0.00773
2990.72000 0.00778
2988.67156 0.00780
2986.62313 0.00782
2984.57469 0.00783
2982.52625 0.00783
2980.47781 0.00781
2978.42937 0.00777
2976.38093 0.00772
2974.33250 0.00762
2972.28406 0.00749
2970.23562 0.00734
2968.18718 0.00717
2966.13874 0.00698
2964.09030 0.00681
2962.04187 0.00668
2959.99343 0.00658
2957.94499 0.00653
2955.89655 0.00653
2953.84811 0.00659
2951.79967 0.00670
2949.75124 0.00682
2947.70280 0.00692
2945.65436 0.00697
2943.60592 0.00696
2941.55748 0.00688
2939.50904 0.00673
2937.46061 0.00652
2935.41217 0.00628
2933.36373 0.00606
2931.31529 0.00585
2929.26685 0.00566
2927.21841 0.00551
2925.16998 0.00542
2923.12154 0.00541
2921.07310 0.00548
2919.02466 0.00563
2916.97622 0.00586
2914.92778 0.00615
2912.87934 0.00648
2910.83091 0.00680
2908.78247 0.00709
2906.73403 0.00734
2904.68559 0.00756
2902.63715 0.00778
2900.58871 0.00799
2898.54028 0.00819
2896.49184 0.00839
2894.44340 0.00859
2892.39496 0.00881
2890.34652 0.00903
2888.29808 0.00925
2886.24965 0.00944
2884.20121 0.00959
2882.15277 0.00972
2880.10433 0.00977
2878.05589 0.00976
2876.00745 0.00968
2873.95902 0.00958
2871.91058 0.00951
2869.86214 0.00949
2867.81370 0.00949
2865.76526 0.00947
2863.71682 0.00938
2861.66839 0.00921
2859.61995 0.00897
2857.57151 0.00871
2855.52307 0.00849
2853.47463 0.00837
2851.42619 0.00844
2849.37776 0.00873
2847.32932 0.00924
2845.28088 0.00986
2843.23244 0.01048
2841.18400 0.01106
2839.13556 0.01160
2837.08713 0.01208
2835.03869 0.01249
2832.99025 0.01283
2830.94181 0.01311
2828.89337 0.01333
2826.84493 0.01351
2824.79650 0.01368
2822.74806 0.01383
2820.69962 0.01398
2818.65118 0.01412
2816.60274 0.01425
2814.55430 0.01438
2812.50587 0.01449
2810.45743 0.01458
2808.40899 0.01470
2806.36055 0.01482
2804.31211 0.01492
2802.26367 0.01502
2800.21524 0.01512
2798.16680 0.01522
2796.11836 0.01532
2794.06992 0.01541
2792.02148 0.01551
2789.97304 0.01560
2787.92461 0.01569
2785.87617 0.01578
2783.82773 0.01588
2781.77929 0.01599
2779.73085 0.01608
2777.68241 0.01615
2775.63397 0.01622
2773.58554 0.01631
2771.53710 0.01640
2769.48866 0.01648
2767.44022 0.01656
2765.39178 0.01663
2763.34334 0.01669
2761.29491 0.01675
2759.24647 0.01681
2757.19803 0.01688
2755.14959 0.01694
2753.10115 0.01702
2751.05271 0.01709
2749.00428 0.01717
2746.95584 0.01723
2744.90740 0.01729
2742.85896 0.01735
2740.81052 0.01741
2738.76208 0.01746
2736.71365 0.01750
2734.66521 0.01755
2732.61677 0.01759
2730.56833 0.01764
2728.51989 0.01770
2726.47145 0.01777
2724.42302 0.01784
2722.37458 0.01789
2720.32614 0.01794
2718.27770 0.01800
2716.22926 0.01807
2714.18082 0.01813
2712.13239 0.01820
2710.08395 0.01826
2708.03551 0.01833
2705.98707 0.01839
2703.93863 0.01844
2701.89019 0.01850
2699.84176 0.01856
2697.79332 0.01862
2695.74488 0.01867
2693.69644 0.01872
2691.64800 0.01877
2689.59956 0.01883
2687.55113 0.01889
2685.50269 0.01894
2683.45425 0.01899
2681.40581 0.01904
2679.35737 0.01910
2677.30893 0.01915
2675.26050 0.01919
2673.21206 0.01923
2671.16362 0.01928
2669.11518 0.01933
2667.06674 0.01936
2665.01830 0.01939
2662.96987 0.01944
2660.92143 0.01948
2658.87299 0.01952
2656.82455 0.01955
2654.77611 0.01958
2652.72767 0.01960
2650.67924 0.01962
2648.63080 0.01967
2646.58236 0.01974
2644.53392 0.01979
2642.48548 0.01983
2640.43704 0.01986
2638.38860 0.01989
2636.34017 0.01992
2634.29173 0.01996
2632.24329 0.02000
2630.19485 0.02003
2628.14641 0.02006
2626.09797 0.02010
2624.04954 0.02013
2622.00110 0.02013
2619.95266 0.02013
2617.90422 0.02014
2615.85578 0.02014
2613.80734 0.02014
2611.75891 0.02012
2609.71047 0.02011
2607.66203 0.02009
2605.61359 0.02007
2603.56515 0.02006
2601.51671 0.02003
2599.46828 0.02001
2597.41984 0.01999
2595.37140 0.01999
2593.32296 0.01999
2591.27452 0.01996
2589.22608 0.01991
2587.17765 0.01987
2585.12921 0.01981
2583.08077 0.01972
2581.03233 0.01960
2578.98389 0.01946
2576.93545 0.01936
2574.88702 0.01929
2572.83858 0.01921
2570.79014 0.01907
2568.74170 0.01890
2566.69326 0.01870
2564.64482 0.01856
2562.59639 0.01850
2560.54795 0.01857
2558.49951 0.01875
2556.45107 0.01902
2554.40263 0.01930
2552.35419 0.01954
2550.30576 0.01972
2548.25732 0.01987
2546.20888 0.01999
2544.16044 0.02011
2542.11200 0.02019
2540.06356 0.02023
2538.01513 0.02025
2535.96669 0.02023
2533.91825 0.02016
2531.86981 0.02004
2529.82137 0.01989
2527.77293 0.01975
2525.72450 0.01963
2523.67606 0.01955
2521.62762 0.01952
2519.57918 0.01955
2517.53074 0.01961
2515.48230 0.01969
2513.43387 0.01979
2511.38543 0.01992
2509.33699 0.02007
2507.28855 0.02022
2505.24011 0.02037
2503.19167 0.02053
2501.14324 0.02070
2499.09480 0.02085
2497.04636 0.02099
2494.99792 0.02111
2492.94948 0.02122
2490.90104 0.02133
2488.85260 0.02144
2486.80417 0.02154
2484.75573 0.02162
2482.70729 0.02169
2480.65885 0.02176
2478.61041 0.02182
2476.56197 0.02185
2474.51354 0.02189
2472.46510 0.02193
2470.41666 0.02196
2468.36822 0.02199
2466.31978 0.02201
2464.27134 0.02204
2462.22291 0.02206
2460.17447 0.02207
2458.12603 0.02209
2456.07759 0.02212
2454.02915 0.02214
2451.98071 0.02215
2449.93228 0.02216
2447.88384 0.02218
2445.83540 0.02220
2443.78696 0.02222
2441.73852 0.02223
2439.69008 0.02224
2437.64165 0.02226
2435.59321 0.02230
2433.54477 0.02233
2431.49633 0.02235
2429.44789 0.02236
2427.39945 0.02238
2425.35102 0.02239
2423.30258 0.02239
2421.25414 0.02239
2419.20570 0.02239
2417.15726 0.02241
2415.10882 0.02241
2413.06039 0.02241
2411.01195 0.02239
2408.96351 0.02238
2406.91507 0.02237
2404.86663 0.02237
2402.81819 0.02236
2400.76976 0.02235
2398.72132 0.02234
2396.67288 0.02233
2394.62444 0.02233
2392.57600 0.02231
2390.52756 0.02220
2388.47913 0.02191
2386.43069 0.02127
2384.38225 0.02003
2382.33381 0.01812
2380.28537 0.01571
2378.23693 0.01315
2376.18850 0.01072
2374.14006 0.00857
2372.09162 0.00677
2370.04318 0.00534
2367.99474 0.00426
2365.94630 0.00350
2363.89787 0.00302
2361.84943 0.00276
2359.80099 0.00273
2357.75255 0.00296
2355.70411 0.00353
2353.65567 0.00460
2351.60723 0.00626
2349.55880 0.00767
2347.51036 0.00742
2345.46192 0.00598
2343.41348 0.00492
2341.36504 0.00462
2339.31660 0.00467
2337.26817 0.00481
2335.21973 0.00497
2333.17129 0.00509
2331.12285 0.00524
2329.07441 0.00556
2327.02597 0.00604
2324.97754 0.00651
2322.92910 0.00702
2320.88066 0.00774
2318.83222 0.00872
2316.78378 0.00976
2314.73534 0.01061
2312.68691 0.01130
2310.63847 0.01206
2308.59003 0.01299
2306.54159 0.01399
2304.49315 0.01491
2302.44471 0.01564
2300.39628 0.01622
2298.34784 0.01675
2296.29940 0.01724
2294.25096 0.01771
2292.20252 0.01816
2290.15408 0.01860
2288.10565 0.01901
2286.05721 0.01940
2284.00877 0.01965
2281.96033 0.01969
2279.91189 0.01957
2277.86345 0.01943
2275.81502 0.01931
2273.76658 0.01924
2271.71814 0.01921
2269.66970 0.01921
2267.62126 0.01921
2265.57282 0.01923
2263.52439 0.01925
2261.47595 0.01929
2259.42751 0.01935
2257.37907 0.01940
2255.33063 0.01944
2253.28219 0.01948
2251.23376 0.01951
2249.18532 0.01955
2247.13688 0.01959
2245.08844 0.01962
2243.04000 0.01963
2240.99156 0.01963
2238.94313 0.01963
2236.89469 0.01962
2234.84625 0.01961
2232.79781 0.01958
2230.74937 0.01955
2228.70093 0.01954
2226.65250 0.01953
2224.60406 0.01952
2222.55562 0.01951
2220.50718 0.01948
2218.45874 0.01945
2216.41030 0.01941
2214.36186 0.01936
2212.31343 0.01930
2210.26499 0.01923
2208.21655 0.01916
2206.16811 0.01910
2204.11967 0.01904
2202.07123 0.01899
2200.02280 0.01894
2197.97436 0.01888
2195.92592 0.01880
2193.87748 0.01871
2191.82904 0.01861
2189.78060 0.01849
2187.73217 0.01834
2185.68373 0.01817
2183.63529 0.01800
2181.58685 0.01781
2179.53841 0.01762
2177.48997 0.01743
2175.44154 0.01724
2173.39310 0.01704
2171.34466 0.01683
2169.29622 0.01663
2167.24778 0.01643
2165.19934 0.01623
2163.15091 0.01603
2161.10247 0.01585
2159.05403 0.01567
2157.00559 0.01551
2154.95715 0.01535
2152.90871 0.01520
2150.86028 0.01505
2148.81184 0.01491
2146.76340 0.01478
2144.71496 0.01466
2142.66652 0.01456
2140.61808 0.01444
2138.56965 0.01431
2136.52121 0.01421
2134.47277 0.01414
2132.42433 0.01407
2130.37589 0.01399
2128.32745 0.01390
2126.27902 0.01380
2124.23058 0.01369
2122.18214 0.01360
2120.13370 0.01353
2118.08526 0.01343
2116.03682 0.01334
2113.98839 0.01328
2111.93995 0.01326
2109.89151 0.01324
2107.84307 0.01323
2105.79463 0.01322
2103.74619 0.01322
2101.69776 0.01323
2099.64932 0.01323
2097.60088 0.01323
2095.55244 0.01323
2093.50400 0.01319
2091.45556 0.01312
2089.40713 0.01307
2087.35869 0.01310
2085.31025 0.01314
2083.26181 0.01314
2081.21337 0.01312
2079.16493 0.01309
2077.11649 0.01305
2075.06806 0.01300
2073.01962 0.01296
2070.97118 0.01293
2068.92274 0.01285
2066.87430 0.01269
2064.82586 0.01258
2062.77743 0.01264
2060.72899 0.01271
2058.68055 0.01274
2056.63211 0.01276
2054.58367 0.01278
2052.53523 0.01280
2050.48680 0.01282
2048.43836 0.01285
2046.38992 0.01287
2044.34148 0.01284
2042.29304 0.01281
2040.24460 0.01290
2038.19617 0.01310
2036.14773 0.01324
2034.09929 0.01333
2032.05085 0.01340
2030.00241 0.01345
2027.95397 0.01350
2025.90554 0.01354
2023.85710 0.01358
2021.80866 0.01357
2019.76022 0.01341
2017.71178 0.01323
2015.66334 0.01339
2013.61491 0.01373
2011.56647 0.01388
2009.51803 0.01389
2007.46959 0.01388
2005.42115 0.01389
2003.37271 0.01387
2001.32428 0.01380
1999.27584 0.01372
1997.22740 0.01362
1995.17896 0.01329
1993.13052 0.01270
1991.08208 0.01244
1989.03365 0.01263
1986.98521 0.01283
1984.93677 0.01292
1982.88833 0.01289
1980.83989 0.01282
1978.79145 0.01278
1976.74302 0.01276
1974.69458 0.01278
1972.64614 0.01283
1970.59770 0.01275
1968.54926 0.01246
1966.50082 0.01250
1964.45239 0.01304
1962.40395 0.01353
1960.35551 0.01379
1958.30707 0.01398
1956.25863 0.01411
1954.21019 0.01429
1952.16176 0.01454
1950.11332 0.01471
1948.06488 0.01467
1946.01644 0.01432
1943.96800 0.01381
1941.91956 0.01395
1939.87112 0.01496
1937.82269 0.01579
1935.77425 0.01608
1933.72581 0.01622
1931.67737 0.01639
1929.62893 0.01658
1927.58049 0.01662
1925.53206 0.01615
1923.48362 0.01548
1921.43518 0.01534
1919.38674 0.01530
1917.33830 0.01552
1915.28986 0.01650
1913.24143 0.01705
1911.19299 0.01665
1909.14455 0.01632
1907.09611 0.01665
1905.04767 0.01711
1902.99923 0.01730
1900.95080 0.01735
1898.90236 0.01721
1896.85392 0.01675
1894.80548 0.01646
1892.75704 0.01633
1890.70860 0.01581
1888.66017 0.01576
1886.61173 0.01653
1884.56329 0.01707
1882.51485 0.01726
1880.46641 0.01734
1878.41797 0.01733
1876.36954 0.01732
1874.32110 0.01711
1872.27266 0.01597
1870.22422 0.01387
1868.17578 0.01298
1866.12734 0.01443
1864.07891 0.01621
1862.03047 0.01682
1859.98203 0.01682
1857.93359 0.01689
1855.88515 0.01705
1853.83671 0.01713
1851.78828 0.01695
1849.73984 0.01626
1847.69140 0.01486
1845.64296 0.01316
1843.59452 0.01299
1841.54608 0.01485
1839.49765 0.01629
1837.44921 0.01647
1835.40077 0.01655
1833.35233 0.01601
1831.30389 0.01426
1829.25545 0.01328
1827.20702 0.01380
1825.15858 0.01449
1823.11014 0.01562
1821.06170 0.01682
1819.01326 0.01714
1816.96482 0.01708
1814.91639 0.01686
1812.86795 0.01598
1810.81951 0.01517
1808.77107 0.01547
1806.72263 0.01612
1804.67419 0.01585
1802.62575 0.01455
1800.57732 0.01356
1798.52888 0.01372
1796.48044 0.01373
1794.43200 0.01241
1792.38356 0.01128
1790.33512 0.01246
1788.28669 0.01440
1786.23825 0.01473
1784.18981 0.01417
1782.14137 0.01361
1780.09293 0.01335
1778.04449 0.01343
1775.99606 0.01249
1773.94762 0.01023
1771.89918 0.00897
1769.85074 0.00992
1767.80230 0.01165
1765.75386 0.01276
1763.70543 0.01232
1761.65699 0.01139
1759.60855 0.01139
1757.56011 0.01151
1755.51167 0.01158
1753.46323 0.01086
1751.41480 0.00896
1749.36636 0.00784
1747.31792 0.00828
1745.26948 0.00897
1743.22104 0.00903
1741.17260 0.00865
1739.12417 0.00847
1737.07573 0.00795
1735.02729 0.00642
1732.97885 0.00594
1730.93041 0.00723
1728.88197 0.00868
1726.83354 0.00943
1724.78510 0.00925
1722.73666 0.00854
1720.68822 0.00709
1718.63978 0.00500
1716.59134 0.00401
1714.54291 0.00481
1712.49447 0.00606
1710.44603 0.00651
1708.39759 0.00591
1706.34915 0.00493
1704.30071 0.00432
1702.25228 0.00361
1700.20384 0.00278
1698.15540 0.00256
1696.10696 0.00292
1694.05852 0.00377
1692.01008 0.00440
1689.96165 0.00415
1687.91321 0.00344
1685.86477 0.00249
1683.81633 0.00196
1681.76789 0.00239
1679.71945 0.00299
1677.67102 0.00299
1675.62258 0.00260
1673.57414 0.00237
1671.52570 0.00215
1669.47726 0.00202
1667.42882 0.00235
1665.38038 0.00261
1663.33195 0.00246
1661.28351 0.00248
1659.23507 0.00268
1657.18663 0.00242
1655.13819 0.00161
1653.08975 0.00111
1651.04132 0.00135
1648.99288 0.00151
1646.94444 0.00143
1644.89600 0.00179
1642.84756 0.00234
1640.79912 0.00249
1638.75069 0.00210
1636.70225 0.00160
1634.65381 0.00169
1632.60537 0.00230
1630.55693 0.00261
1628.50849 0.00250
1626.46006 0.00235
1624.41162 0.00224
1622.36318 0.00236
1620.31474 0.00260
1618.26630 0.00245
1616.21786 0.00242
1614.16943 0.00303
1612.12099 0.00358
1610.07255 0.00370
1608.02411 0.00380
1605.97567 0.00405
1603.92723 0.00426
1601.87880 0.00445
1599.83036 0.00468
1597.78192 0.00479
1595.73348 0.00477
1593.68504 0.00483
1591.63660 0.00498
1589.58817 0.00514
1587.53973 0.00528
1585.49129 0.00536
1583.44285 0.00536
1581.39441 0.00521
1579.34597 0.00458
1577.29754 0.00363
1575.24910 0.00351
1573.20066 0.00407
1571.15222 0.00397
1569.10378 0.00372
1567.05534 0.00404
1565.00691 0.00425
1562.95847 0.00379
1560.91003 0.00252
1558.86159 0.00158
1556.81315 0.00200
1554.76471 0.00296
1552.71628 0.00363
1550.66784 0.00395
1548.61940 0.00406
1546.57096 0.00370
1544.52252 0.00274
1542.47408 0.00179
1540.42565 0.00148
1538.37721 0.00225
1536.32877 0.00321
1534.28033 0.00342
1532.23189 0.00372
1530.18345 0.00423
1528.13501 0.00405
1526.08658 0.00352
1524.03814 0.00301
1521.98970 0.00261
1519.94126 0.00275
1517.89282 0.00319
1515.84438 0.00376
1513.79595 0.00439
1511.74751 0.00429
1509.69907 0.00321
1507.65063 0.00223
1505.60219 0.00291
1503.55375 0.00479
1501.50532 0.00572
1499.45688 0.00525
1497.40844 0.00486
1495.36000 0.00555
1493.31156 0.00618
1491.26312 0.00548
1489.21469 0.00487
1487.16625 0.00574
1485.11781 0.00717
1483.06937 0.00782
1481.02093 0.00774
1478.97249 0.00730
1476.92406 0.00622
1474.87562 0.00485
1472.82718 0.00433
1470.77874 0.00538
1468.73030 0.00663
1466.68186 0.00651
1464.63343 0.00616
1462.58499 0.00644
1460.53655 0.00577
1458.48811 0.00406
1456.43967 0.00372
1454.39123 0.00523
1452.34280 0.00666
1450.29436 0.00693
1448.24592 0.00674
1446.19748 0.00706
1444.14904 0.00766
1442.10060 0.00784
1440.05217 0.00726
1438.00373 0.00603
1435.95529 0.00557
1433.90685 0.00625
1431.85841 0.00666
1429.80997 0.00669
1427.76154 0.00698
1425.71310 0.00699
1423.66466 0.00661
1421.61622 0.00597
1419.56778 0.00521
1417.51934 0.00546
1415.47091 0.00666
1413.42247 0.00743
1411.37403 0.00759
1409.32559 0.00763
1407.27715 0.00742
1405.22871 0.00715
1403.18028 0.00728
1401.13184 0.00712
1399.08340 0.00646
1397.03496 0.00603
1394.98652 0.00617
1392.93808 0.00698
1390.88965 0.00758
1388.84121 0.00726
1386.79277 0.00706
1384.74433 0.00764
1382.69589 0.00811
1380.64745 0.00804
1378.59901 0.00771
1376.55058 0.00717
1374.50214 0.00681
1372.45370 0.00721
1370.40526 0.00780
1368.35682 0.00804
1366.30838 0.00798
1364.25995 0.00743
1362.21151 0.00712
1360.16307 0.00770
1358.11463 0.00837
1356.06619 0.00857
1354.01775 0.00860
1351.96932 0.00866
1349.92088 0.00864
1347.87244 0.00864
1345.82400 0.00866
1343.77556 0.00842
1341.72712 0.00769
1339.67869 0.00701
1337.63025 0.00716
1335.58181 0.00779
1333.53337 0.00818
1331.48493 0.00824
1329.43649 0.00819
1327.38806 0.00815
1325.33962 0.00810
1323.29118 0.00797
1321.24274 0.00768
1319.19430 0.00741
1317.14586 0.00738
1315.09743 0.00745
1313.04899 0.00750
1311.00055 0.00761
1308.95211 0.00769
1306.90367 0.00768
1304.85523 0.00765
1302.80680 0.00761
1300.75836 0.00753
1298.70992 0.00742
1296.66148 0.00731
1294.61304 0.00721
1292.56460 0.00710
1290.51617 0.00691
1288.46773 0.00671
1286.41929 0.00658
1284.37085 0.00649
1282.32241 0.00636
1280.27397 0.00621
1278.22554 0.00607
1276.17710 0.00593
1274.12866 0.00574
1272.08022 0.00552
1270.03178 0.00534
1267.98334 0.00520
1265.93491 0.00507
1263.88647 0.00488
1261.83803 0.00465
1259.78959 0.00446
1257.74115 0.00434
1255.69271 0.00424
1253.64428 0.00411
1251.59584 0.00398
1249.54740 0.00385
1247.49896 0.00371
1245.45052 0.00357
1243.40208 0.00344
1241.35364 0.00330
1239.30521 0.00317
1237.25677 0.00304
1235.20833 0.00293
1233.15989 0.00283
1231.11145 0.00273
1229.06301 0.00264
1227.01458 0.00256
1224.96614 0.00250
1222.91770 0.00246
1220.86926 0.00242
1218.82082 0.00238
1216.77238 0.00236
1214.72395 0.00234
1212.67551 0.00231
1210.62707 0.00230
1208.57863 0.00229
1206.53019 0.00229
1204.48175 0.00230
1202.43332 0.00231
1200.38488 0.00232
1198.33644 0.00231
1196.28800 0.00230
1194.23956 0.00229
1192.19112 0.00230
1190.14269 0.00232
1188.09425 0.00233
1186.04581 0.00233
1183.99737 0.00233
1181.94893 0.00233
1179.90049 0.00233
1177.85206 0.00233
1175.80362 0.00232
1173.75518 0.00231
1171.70674 0.00231
1169.65830 0.00232
1167.60986 0.00234
1165.56143 0.00234
1163.51299 0.00234
1161.46455 0.00234
1159.41611 0.00234
1157.36767 0.00235
1155.31923 0.00235
1153.27080 0.00236
1151.22236 0.00237
1149.17392 0.00238
1147.12548 0.00240
1145.07704 0.00243
1143.02860 0.00244
1140.98017 0.00246
1138.93173 0.00249
1136.88329 0.00249
1134.83485 0.00248
1132.78641 0.00247
1130.73797 0.00247
1128.68954 0.00247
1126.64110 0.00247
1124.59266 0.00246
1122.54422 0.00246
1120.49578 0.00246
1118.44734 0.00245
1116.39891 0.00244
1114.35047 0.00242
1112.30203 0.00241
1110.25359 0.00240
1108.20515 0.00239
1106.15671 0.00239
1104.10827 0.00239
1102.05984 0.00240
1100.01140 0.00239
1097.96296 0.00238
1095.91452 0.00237
1093.86608 0.00236
1091.81764 0.00235
1089.76921 0.00235
1087.72077 0.00236
1085.67233 0.00237
1083.62389 0.00239
1081.57545 0.00241
1079.52701 0.00244
1077.47858 0.00248
1075.43014 0.00251
1073.38170 0.00254
1071.33326 0.00258
1069.28482 0.00265
1067.23638 0.00269
1065.18795 0.00272
1063.13951 0.00277
1061.09107 0.00282
1059.04263 0.00287
1056.99419 0.00293
1054.94575 0.00300
1052.89732 0.00307
1050.84888 0.00314
1048.80044 0.00322
1046.75200 0.00328
1044.70356 0.00334
1042.65512 0.00339
1040.60669 0.00343
1038.55825 0.00346
1036.50981 0.00349
1034.46137 0.00351
1032.41293 0.00352
1030.36449 0.00352
1028.31606 0.00353
1026.26762 0.00355
1024.21918 0.00356
1022.17074 0.00357
1020.12230 0.00358
1018.07386 0.00359
1016.02543 0.00360
1013.97699 0.00361
1011.92855 0.00362
1009.88011 0.00363
1007.83167 0.00364
1005.78323 0.00364
1003.73480 0.00362
1001.68636 0.00360
999.63792 0.00356
997.58948 0.00350
995.54104 0.00345
993.49260 0.00340
991.44417 0.00336
989.39573 0.00334
987.34729 0.00333
985.29885 0.00332
983.25041 0.00331
981.20197 0.00329
979.15354 0.00327
977.10510 0.00327
975.05666 0.00326
973.00822 0.00323
970.95978 0.00320
968.91134 0.00317
966.86290 0.00315
964.81447 0.00312
962.76603 0.00307
960.71759 0.00302
958.66915 0.00295
956.62071 0.00288
954.57227 0.00282
952.52384 0.00278
950.47540 0.00274
948.42696 0.00271
946.37852 0.00267
944.33008 0.00263
942.28164 0.00260
940.23321 0.00256
938.18477 0.00251
936.13633 0.00248
934.08789 0.00245
932.03945 0.00241
929.99101 0.00238
927.94258 0.00236
925.89414 0.00238
923.84570 0.00240
921.79726 0.00242
919.74882 0.00242
917.70038 0.00239
915.65195 0.00234
913.60351 0.00231
911.55507 0.00228
909.50663 0.00227
907.45819 0.00226
905.40975 0.00227
903.36132 0.00226
901.31288 0.00225
899.26444 0.00223
897.21600 0.00219
895.16756 0.00216
893.11912 0.00213
891.07069 0.00212
889.02225 0.00212
886.97381 0.00213
884.92537 0.00216
882.87693 0.00217
880.82849 0.00218
878.78006 0.00218
876.73162 0.00216
874.68318 0.00211
872.63474 0.00205
870.58630 0.00200
868.53786 0.00196
866.48943 0.00191
864.44099 0.00186
862.39255 0.00183
860.34411 0.00179
858.29567 0.00176
856.24723 0.00172
854.19880 0.00167
852.15036 0.00163
850.10192 0.00159
848.05348 0.00155
846.00504 0.00150
843.95660 0.00146
841.90817 0.00141
839.85973 0.00137
837.81129 0.00134
835.76285 0.00132
833.71441 0.00131
831.66597 0.00128
829.61753 0.00126
827.56910 0.00125
825.52066 0.00124
823.47222 0.00122
821.42378 0.00121
819.37534 0.00120
817.32690 0.00119
815.27847 0.00117
813.23003 0.00116
811.18159 0.00116
809.13315 0.00115
807.08471 0.00113
805.03627 0.00111
802.98784 0.00110
800.93940 0.00108
798.89096 0.00106
796.84252 0.00103
794.79408 0.00101
792.74564 0.00099
790.69721 0.00097
788.64877 0.00097
786.60033 0.00096
784.55189 0.00095
782.50345 0.00094
780.45501 0.00093
778.40658 0.00093
776.35814 0.00091
774.30970 0.00090
772.26126 0.00088
770.21282 0.00086
768.16438 0.00085
766.11595 0.00086
764.06751 0.00085
762.01907 0.00083
759.97063 0.00081
757.92219 0.00079
755.87375 0.00079
753.82532 0.00078
751.77688 0.00078
749.72844 0.00077
747.68000 0.00075
745.63156 0.00073
743.58312 0.00072
741.53469 0.00072
739.48625 0.00070
737.43781 0.00070
735.38937 0.00070
733.34093 0.00069
731.29249 0.00070
729.24406 0.00070
727.19562 0.00070
725.14718 0.00069
723.09874 0.00066
721.05030 0.00065
719.00186 0.00065
716.95343 0.00065
714.90499 0.00064
712.85655 0.00063
710.80811 0.00061
708.75967 0.00060
706.71123 0.00059
704.66280 0.00057
702.61436 0.00054
700.56592 0.00052
698.51748 0.00052
696.46904 0.00052
694.42060 0.00050
692.37216 0.00047
690.32373 0.00044
688.27529 0.00043
686.22685 0.00042
684.17841 0.00041
682.12997 0.00039
680.08153 0.00038
678.03310 0.00038
675.98466 0.00037
673.93622 0.00036
671.88778 0.00032
669.83934 0.00024
667.79090 0.00022
665.74247 0.00028
663.69403 0.00032
661.64559 0.00031
659.59715 0.00029
657.54871 0.00029
655.50027 0.00028
653.45184 0.00026
651.40340 0.00025
649.35496 0.00026
647.30652 0.00027
645.25808 0.00027
643.20964 0.00024
641.16121 0.00023
639.11277 0.00023
637.06433 0.00024
635.01589 0.00024
632.96745 0.00023
630.91901 0.00022
628.87058 0.00020
626.82214 0.00018
624.77370 0.00016
622.72526 0.00016
620.67682 0.00016
618.62838 0.00015
616.57995 0.00015
614.53151 0.00015
612.48307 0.00015
610.43463 0.00014
608.38619 0.00013
606.33775 0.00013
604.28932 0.00013
602.24088 0.00012
600.19244 0.00011
598.14400 0.00011
