3996.50324 2.01409
3994.45480 2.01581
3992.40636 2.01736
3990.35792 2.01861
3988.30948 2.01951
3986.26104 2.01979
3984.21261 2.01981
3982.16417 2.01998
3980.11573 2.01972
3978.06729 2.01894
3976.01885 2.01983
3973.97041 2.02235
3971.92198 2.02385
3969.87354 2.02409
3967.82510 2.02407
3965.77666 2.02345
3963.72822 2.02177
3961.67978 2.02143
3959.63135 2.02290
3957.58291 2.02448
3955.53447 2.02635
3953.48603 2.02681
3951.43759 2.02657
3949.38915 2.02956
3947.34072 2.03397
3945.29228 2.03357
3943.24384 2.03144
3941.19540 2.03255
3939.14696 2.03311
3937.09852 2.03204
3935.05009 2.03013
3933.00165 2.02849
3930.95321 2.03004
3928.90477 2.03046
3926.85633 2.02653
3924.80789 2.02548
3922.75946 2.02844
3920.71102 2.02723
3918.66258 2.02484
3916.61414 2.02768
3914.56570 2.03024
3912.51726 2.02761
3910.46883 2.02335
3908.42039 2.01737
3906.37195 2.00877
3904.32351 2.00798
3902.27507 2.02060
3900.22663 2.03083
3898.17820 2.03113
3896.12976 2.02347
3894.08132 2.01337
3892.03288 2.01207
3889.98444 2.01801
3887.93600 2.01391
3885.88756 2.00973
3883.83913 2.01405
3881.79069 2.01569
3879.74225 2.02181
3877.69381 2.02255
3875.64537 2.01214
3873.59693 2.00557
3871.54850 2.00606
3869.50006 2.01439
3867.45162 2.01886
3865.40318 2.01432
3863.35474 2.01917
3861.30630 2.02492
3859.25787 2.01797
3857.20943 2.00328
3855.16099 1.98739
3853.11255 2.00112
3851.06411 2.02818
3849.01567 2.02643
3846.96724 2.01618
3844.91880 2.00845
3842.87036 2.00562
3840.82192 2.00593
3838.77348 2.01379
3836.72504 2.02621
3834.67661 2.02780
3832.62817 2.02544
3830.57973 2.02416
3828.53129 2.02087
3826.48285 2.01937
3824.43441 2.01603
3822.38598 2.00947
3820.33754 2.02035
3818.28910 2.03068
3816.24066 2.03293
3814.19222 2.03797
3812.14378 2.03321
3810.09535 2.02233
3808.04691 2.01731
3805.99847 2.02464
3803.95003 2.02666
3801.90159 2.02887
3799.85315 2.04120
3797.80472 2.04295
3795.75628 2.04404
3793.70784 2.04611
3791.65940 2.04406
3789.61096 2.04243
3787.56252 2.04219
3785.51409 2.04462
3783.46565 2.04764
3781.41721 2.04638
3779.36877 2.04947
3777.32033 2.05757
3775.27189 2.05826
3773.22346 2.05340
3771.17502 2.05147
3769.12658 2.05741
3767.07814 2.06244
3765.02970 2.06503
3762.98126 2.06585
3760.93283 2.06474
3758.88439 2.07124
3756.83595 2.07869
3754.78751 2.07546
3752.73907 2.06800
3750.69063 2.07420
3748.64219 2.08808
3746.59376 2.08917
3744.54532 2.09927
3742.49688 2.11588
3740.44844 2.11634
3738.40000 2.11022
3736.35156 2.11199
3734.30313 2.13161
3732.25469 2.15148
3730.20625 2.15744
3728.15781 2.15810
3726.10937 2.16506
3724.06093 2.17853
3722.01250 2.18988
3719.96406 2.19945
3717.91562 2.20813
3715.86718 2.21421
3713.81874 2.21988
3711.77030 2.23701
3709.72187 2.26529
3707.67343 2.28163
3705.62499 2.29018
3703.57655 2.29965
3701.52811 2.31618
3699.47967 2.33325
3697.43124 2.34545
3695.38280 2.35819
3693.33436 2.37006
3691.28592 2.38085
3689.23748 2.40207
3687.18904 2.42410
3685.14061 2.43418
3683.09217 2.44187
3681.04373 2.45143
3678.99529 2.46293
3676.94685 2.48166
3674.89841 2.50702
3672.84998 2.51600
3670.80154 2.52699
3668.75310 2.55292
3666.70466 2.56659
3664.65622 2.57313
3662.60778 2.58487
3660.55935 2.60025
3658.51091 2.61265
3656.46247 2.62127
3654.41403 2.62909
3652.36559 2.63314
3650.31715 2.63694
3648.26872 2.65429
3646.22028 2.67314
3644.17184 2.68694
3642.12340 2.69573
3640.07496 2.69849
3638.02652 2.70275
3635.97809 2.71154
3633.92965 2.71949
3631.88121 2.72361
3629.83277 2.72875
3627.78433 2.73309
3625.73589 2.72852
3623.68746 2.72881
3621.63902 2.73979
3619.59058 2.75373
3617.54214 2.75882
3615.49370 2.75647
3613.44526 2.75418
3611.39682 2.75652
3609.34839 2.75945
3607.29995 2.76511
3605.25151 2.77253
3603.20307 2.77365
3601.15463 2.77191
3599.10619 2.77213
3597.05776 2.77122
3595.00932 2.77171
3592.96088 2.77618
3590.91244 2.77752
3588.86400 2.77689
3586.81556 2.78263
3584.76713 2.79489
3582.71869 2.80414
3580.67025 2.80059
3578.62181 2.78903
3576.57337 2.78408
3574.52493 2.78470
3572.47650 2.78246
3570.42806 2.77437
3568.37962 2.76248
3566.33118 2.76303
3564.28274 2.77682
3562.23430 2.78354
3560.18587 2.78379
3558.13743 2.78269
3556.08899 2.78002
3554.04055 2.77723
3551.99211 2.77929
3549.94367 2.78610
3547.89524 2.79404
3545.84680 2.80279
3543.79836 2.80786
3541.74992 2.80430
3539.70148 2.79980
3537.65304 2.79870
3535.60461 2.79997
3533.55617 2.80462
3531.50773 2.80714
3529.45929 2.80565
3527.41085 2.80635
3525.36241 2.81030
3523.31398 2.81173
3521.26554 2.81053
3519.21710 2.81376
3517.16866 2.82127
3515.12022 2.82312
3513.07178 2.81371
3511.02335 2.80661
3508.97491 2.81531
3506.92647 2.82424
3504.87803 2.81878
3502.82959 2.81172
3500.78115 2.81384
3498.73272 2.81839
3496.68428 2.82139
3494.63584 2.82264
3492.58740 2.82472
3490.53896 2.83554
3488.49052 2.85225
3486.44209 2.85567
3484.39365 2.84390
3482.34521 2.83759
3480.29677 2.83819
3478.24833 2.83103
3476.19989 2.81781
3474.15146 2.80576
3472.10302 2.80078
3470.05458 2.80741
3468.00614 2.82262
3465.95770 2.83485
3463.90926 2.83338
3461.86082 2.82693
3459.81239 2.83022
3457.76395 2.83595
3455.71551 2.83534
3453.66707 2.83509
3451.61863 2.83678
3449.57019 2.84101
3447.52176 2.85022
3445.47332 2.85409
3443.42488 2.84520
3441.37644 2.82985
3439.32800 2.81726
3437.27956 2.81892
3435.23113 2.83671
3433.18269 2.85252
3431.13425 2.85208
3429.08581 2.84470
3427.03737 2.84185
3424.98893 2.84328
3422.94050 2.84798
3420.89206 2.85283
3418.84362 2.85371
3416.79518 2.85378
3414.74674 2.85380
3412.69830 2.85277
3410.64987 2.85322
3408.60143 2.85356
3406.55299 2.85130
3404.50455 2.84880
3402.45611 2.84303
3400.40767 2.83756
3398.35924 2.84283
3396.31080 2.84944
3394.26236 2.84720
3392.21392 2.84405
3390.16548 2.84411
3388.11704 2.84452
3386.06861 2.84463
3384.02017 2.84638
3381.97173 2.84645
3379.92329 2.84074
3377.87485 2.83604
3375.82641 2.83504
3373.77798 2.83311
3371.72954 2.83316
3369.68110 2.83585
3367.63266 2.83572
3365.58422 2.83681
3363.53578 2.84348
3361.48735 2.84913
3359.43891 2.84990
3357.39047 2.85087
3355.34203 2.85631
3353.29359 2.86113
3351.24515 2.85746
3349.19672 2.84980
3347.14828 2.84602
3345.09984 2.84281
3343.05140 2.84220
3341.00296 2.85046
3338.95452 2.85789
3336.90609 2.85489
3334.85765 2.84619
3332.80921 2.83997
3330.76077 2.84107
3328.71233 2.84647
3326.66389 2.84709
3324.61545 2.84157
3322.56702 2.83857
3320.51858 2.84131
3318.47014 2.84163
3316.42170 2.83718
3314.37326 2.83792
3312.32482 2.84112
3310.27639 2.83466
3308.22795 2.82914
3306.17951 2.83648
3304.13107 2.84398
3302.08263 2.84238
3300.03419 2.83851
3297.98576 2.83684
3295.93732 2.83564
3293.88888 2.83627
3291.84044 2.84028
3289.79200 2.83888
3287.74356 2.83195
3285.69513 2.83066
3283.64669 2.83321
3281.59825 2.83481
3279.54981 2.83576
3277.50137 2.83636
3275.45293 2.83986
3273.40450 2.84389
3271.35606 2.84137
3269.30762 2.83121
3267.25918 2.82014
3265.21074 2.81552
3263.16230 2.81608
3261.11387 2.81605
3259.06543 2.81441
3257.01699 2.81579
3254.96855 2.82032
3252.92011 2.82200
3250.87167 2.81991
3248.82324 2.82222
3246.77480 2.82872
3244.72636 2.82519
3242.67792 2.81484
3240.62948 2.81197
3238.58104 2.81404
3236.53261 2.81236
3234.48417 2.81002
3232.43573 2.81282
3230.38729 2.81480
3228.33885 2.81346
3226.29041 2.81333
3224.24198 2.81257
3222.19354 2.80949
3220.14510 2.80664
3218.09666 2.80435
3216.04822 2.80284
3213.99978 2.80417
3211.95135 2.80638
3209.90291 2.80879
3207.85447 2.80984
3205.80603 2.80353
3203.75759 2.79632
3201.70915 2.79572
3199.66072 2.79556
3197.61228 2.79299
3195.56384 2.79250
3193.51540 2.79455
3191.46696 2.79290
3189.41852 2.78749
3187.37008 2.78671
3185.32165 2.78699
3183.27321 2.78266
3181.22477 2.77935
3179.17633 2.77950
3177.12789 2.78251
3175.07945 2.78575
3173.03102 2.78428
3170.98258 2.78201
3168.93414 2.78316
3166.88570 2.78112
3164.83726 2.77371
3162.78882 2.76905
3160.74039 2.76798
3158.69195 2.76349
3156.64351 2.75970
3154.59507 2.76384
3152.54663 2.76783
3150.49819 2.76439
3148.44976 2.76032
3146.40132 2.76018
3144.35288 2.75706
3142.30444 2.74656
3140.25600 2.73920
3138.20756 2.74020
3136.15913 2.74183
3134.11069 2.74283
3132.06225 2.74425
3130.01381 2.74103
3127.96537 2.73555
3125.91693 2.73747
3123.86850 2.74539
3121.82006 2.74535
3119.77162 2.73466
3117.72318 2.72794
3115.67474 2.73100
3113.62630 2.73745
3111.57787 2.74210
3109.52943 2.73829
3107.48099 2.72841
3105.43255 2.72607
3103.38411 2.73021
3101.33567 2.73086
3099.28724 2.72914
3097.23880 2.72525
3095.19036 2.72136
3093.14192 2.72222
3091.09348 2.72214
3089.04504 2.71930
3086.99661 2.71851
3084.94817 2.72066
3082.89973 2.71974
3080.85129 2.71394
3078.80285 2.71013
3076.75441 2.70880
3074.70598 2.70765
3072.65754 2.70579
3070.60910 2.70256
3068.56066 2.70186
3066.51222 2.70631
3064.46378 2.70881
3062.41535 2.70307
3060.36691 2.69485
3058.31847 2.68888
3056.27003 2.68413
3054.22159 2.68158
3052.17315 2.68243
3050.12471 2.68536
3048.07628 2.68642
3046.02784 2.68273
3043.97940 2.67778
3041.93096 2.67662
3039.88252 2.67873
3037.83408 2.67844
3035.78565 2.67389
3033.73721 2.66872
3031.68877 2.66752
3029.64033 2.67162
3027.59189 2.67345
3025.54345 2.66853
3023.49502 2.66179
3021.44658 2.65640
3019.39814 2.65244
3017.34970 2.64937
3015.30126 2.64619
3013.25282 2.64453
3011.20439 2.64449
3009.15595 2.64293
3007.10751 2.64148
3005.05907 2.64180
3003.01063 2.64144
3000.96219 2.64117
2998.91376 2.64163
2996.86532 2.64026
2994.81688 2.63757
2992.76844 2.63551
2990.72000 2.63637
2988.67156 2.64050
2986.62313 2.64398
2984.57469 2.64592
2982.52625 2.64814
2980.47781 2.65118
2978.42937 2.65525
2976.38093 2.66041
2974.33250 2.66673
2972.28406 2.67626
2970.23562 2.68724
2968.18718 2.69544
2966.13874 2.70455
2964.09030 2.71698
2962.04187 2.72998
2959.99343 2.74141
2957.94499 2.74678
2955.89655 2.74540
2953.84811 2.74540
2951.79967 2.74801
2949.75124 2.74273
2947.70280 2.73249
2945.65436 2.73041
2943.60592 2.73527
2941.55748 2.74172
2939.50904 2.75079
2937.46061 2.75952
2935.41217 2.76531
2933.36373 2.77326
2931.31529 2.78305
2929.26685 2.79049
2927.21841 2.79707
2925.16998 2.80102
2923.12154 2.79677
2921.07310 2.78465
2919.02466 2.77247
2916.97622 2.76225
2914.92778 2.74855
2912.87934 2.73302
2910.83091 2.72426
2908.78247 2.72318
2906.73403 2.72083
2904.68559 2.71380
2902.63715 2.70457
2900.58871 2.69280
2898.54028 2.67968
2896.49184 2.66945
2894.44340 2.66262
2892.39496 2.65782
2890.34652 2.65315
2888.29808 2.64449
2886.24965 2.63554
2884.20121 2.63182
2882.15277 2.63020
2880.10433 2.63049
2878.05589 2.63515
2876.00745 2.63929
2873.95902 2.64300
2871.91058 2.65008
2869.86214 2.65437
2867.81370 2.65370
2865.76526 2.65363
2863.71682 2.65793
2861.66839 2.66753
2859.61995 2.67700
2857.57151 2.68286
2855.52307 2.68895
2853.47463 2.69649
2851.42619 2.70010
2849.37776 2.68933
2847.32932 2.66296
2845.28088 2.63214
2843.23244 2.60399
2841.18400 2.58002
2839.13556 2.56050
2837.08713 2.54488
2835.03869 2.53070
2832.99025 2.51587
2830.94181 2.50165
2828.89337 2.48962
2826.84493 2.48057
2824.79650 2.47428
2822.74806 2.46986
2820.69962 2.46659
2818.65118 2.46317
2816.60274 2.45912
2814.55430 2.45528
2812.50587 2.45177
2810.45743 2.44828
2808.40899 2.44422
2806.36055 2.43912
2804.31211 2.43446
2802.26367 2.43165
2800.21524 2.42840
2798.16680 2.42283
2796.11836 2.41759
2794.06992 2.41524
2792.02148 2.41578
2789.97304 2.41652
2787.92461 2.41272
2785.87617 2.40489
2783.82773 2.40003
2781.77929 2.39979
2779.73085 2.39924
2777.68241 2.39658
2775.63397 2.39443
2773.58554 2.39438
2771.53710 2.39219
2769.48866 2.38628
2767.44022 2.38211
2765.39178 2.38065
2763.34334 2.37934
2761.29491 2.37770
2759.24647 2.37587
2757.19803 2.37419
2755.14959 2.37255
2753.10115 2.36997
2751.05271 2.36634
2749.00428 2.36350
2746.95584 2.36243
2744.90740 2.36168
2742.85896 2.35971
2740.81052 2.35800
2738.76208 2.35813
2736.71365 2.35822
2734.66521 2.35674
2732.61677 2.35473
2730.56833 2.35357
2728.51989 2.35335
2726.47145 2.35339
2724.42302 2.35298
2722.37458 2.35088
2720.32614 2.34736
2718.27770 2.34503
2716.22926 2.34436
2714.18082 2.34264
2712.13239 2.33971
2710.08395 2.33767
2708.03551 2.33618
2705.98707 2.33466
2703.93863 2.33401
2701.89019 2.33293
2699.84176 2.32950
2697.79332 2.32645
2695.74488 2.32602
2693.69644 2.32516
2691.64800 2.32336
2689.59956 2.32288
2687.55113 2.32218
2685.50269 2.32092
2683.45425 2.32138
2681.40581 2.32201
2679.35737 2.32074
2677.30893 2.31953
2675.26050 2.31994
2673.21206 2.32083
2671.16362 2.32008
2669.11518 2.31702
2667.06674 2.31455
2665.01830 2.31424
2662.96987 2.31369
2660.92143 2.31185
2658.87299 2.31001
2656.82455 2.30939
2654.77611 2.30922
2652.72767 2.30758
2650.67924 2.30492
2648.63080 2.30411
2646.58236 2.30525
2644.53392 2.30554
2642.48548 2.30413
2640.43704 2.30253
2638.38860 2.30297
2636.34017 2.30513
2634.29173 2.30664
2632.24329 2.30762
2630.19485 2.30882
2628.14641 2.30998
2626.09797 2.31141
2624.04954 2.31250
2622.00110 2.31265
2619.95266 2.31323
2617.90422 2.31478
2615.85578 2.31599
2613.80734 2.31668
2611.75891 2.31831
2609.71047 2.32139
2607.66203 2.32466
2605.61359 2.32698
2603.56515 2.32901
2601.51671 2.33111
2599.46828 2.33329
2597.41984 2.33526
2595.37140 2.33616
2593.32296 2.33715
2591.27452 2.33943
2589.22608 2.34207
2587.17765 2.34370
2585.12921 2.34496
2583.08077 2.34840
2581.03233 2.35487
2578.98389 2.36127
2576.93545 2.36476
2574.88702 2.36721
2572.83858 2.37136
2570.79014 2.37739
2568.74170 2.38405
2566.69326 2.39018
2564.64482 2.39490
2562.59639 2.39699
2560.54795 2.39433
2558.49951 2.38658
2556.45107 2.37697
2554.40263 2.36783
2552.35419 2.35988
2550.30576 2.35486
2548.25732 2.35277
2546.20888 2.35055
2544.16044 2.34729
2542.11200 2.34523
2540.06356 2.34566
2538.01513 2.34777
2535.96669 2.35021
2533.91825 2.35342
2531.86981 2.35868
2529.82137 2.36525
2527.77293 2.37193
2525.72450 2.37681
2523.67606 2.37930
2521.62762 2.38089
2519.57918 2.38117
2517.53074 2.37950
2515.48230 2.37657
2513.43387 2.37358
2511.38543 2.37088
2509.33699 2.36805
2507.28855 2.36439
2505.24011 2.35903
2503.19167 2.35269
2501.14324 2.34681
2499.09480 2.34089
2497.04636 2.33363
2494.99792 2.32660
2492.94948 2.32122
2490.90104 2.31606
2488.85260 2.31102
2486.80417 2.30767
2484.75573 2.30595
2482.70729 2.30469
2480.65885 2.30248
2478.61041 2.29852
2476.56197 2.29389
2474.51354 2.29034
2472.46510 2.28991
2470.41666 2.29189
2468.36822 2.29258
2466.31978 2.29138
2464.27134 2.28956
2462.22291 2.28802
2460.17447 2.28728
2458.12603 2.28627
2456.07759 2.28524
2454.02915 2.28461
2451.98071 2.28323
2449.93228 2.28262
2447.88384 2.28472
2445.83540 2.28706
2443.78696 2.28721
2441.73852 2.28620
2439.69008 2.28616
2437.64165 2.28742
2435.59321 2.28790
2433.54477 2.28689
2431.49633 2.28525
2429.44789 2.28372
2427.39945 2.28324
2425.35102 2.28369
2423.30258 2.28477
2421.25414 2.28553
2419.20570 2.28479
2417.15726 2.28425
2415.10882 2.28499
2413.06039 2.28570
2411.01195 2.28611
2408.96351 2.28607
2406.91507 2.28568
2404.86663 2.28662
2402.81819 2.28889
2400.76976 2.29068
2398.72132 2.29151
2396.67288 2.29264
2394.62444 2.29410
2392.57600 2.29407
2390.52756 2.29360
2388.47913 2.29564
2386.43069 2.29825
2384.38225 2.29784
2382.33381 2.29597
2380.28537 2.29587
2378.23693 2.29700
2376.18850 2.29622
2374.14006 2.29388
2372.09162 2.29119
2370.04318 2.28762
2367.99474 2.28809
2365.94630 2.29330
2363.89787 2.29724
2361.84943 2.29972
2359.80099 2.30752
2357.75255 2.31868
2355.70411 2.32473
2353.65567 2.33567
2351.60723 2.34892
2349.55880 2.35121
2347.51036 2.34538
2345.46192 2.34117
2343.41348 2.34528
2341.36504 2.35161
2339.31660 2.35645
2337.26817 2.36225
2335.21973 2.36529
2333.17129 2.36529
2331.12285 2.36852
2329.07441 2.36776
2327.02597 2.36027
2324.97754 2.36069
2322.92910 2.36893
2320.88066 2.37510
2318.83222 2.37793
2316.78378 2.38029
2314.73534 2.38293
2312.68691 2.38470
2310.63847 2.38676
2308.59003 2.39017
2306.54159 2.39347
2304.49315 2.39441
2302.44471 2.39374
2300.39628 2.39556
2298.34784 2.40029
2296.29940 2.40412
2294.25096 2.40526
2292.20252 2.40542
2290.15408 2.40599
2288.10565 2.40752
2286.05721 2.41037
2284.00877 2.41383
2281.96033 2.41743
2279.91189 2.42069
2277.86345 2.42236
2275.81502 2.42204
2273.76658 2.42154
2271.71814 2.42346
2269.66970 2.42638
2267.62126 2.42732
2265.57282 2.42863
2263.52439 2.43190
2261.47595 2.43377
2259.42751 2.43444
2257.37907 2.43699
2255.33063 2.44061
2253.28219 2.44363
2251.23376 2.44473
2249.18532 2.44415
2247.13688 2.44534
2245.08844 2.44921
2243.04000 2.45275
2240.99156 2.45415
2238.94313 2.45484
2236.89469 2.45579
2234.84625 2.45671
2232.79781 2.45724
2230.74937 2.45746
2228.70093 2.45864
2226.65250 2.46098
2224.60406 2.46265
2222.55562 2.46352
2220.50718 2.46598
2218.45874 2.46957
2216.41030 2.47216
2214.36186 2.47454
2212.31343 2.47640
2210.26499 2.47745
2208.21655 2.48047
2206.16811 2.48554
2204.11967 2.48910
2202.07123 2.49076
2200.02280 2.49428
2197.97436 2.49954
2195.92592 2.50305
2193.87748 2.50519
2191.82904 2.50763
2189.78060 2.51013
2187.73217 2.51310
2185.68373 2.51775
2183.63529 2.52358
2181.58685 2.52989
2179.53841 2.53581
2177.48997 2.54065
2175.44154 2.54519
2173.39310 2.54939
2171.34466 2.55362
2169.29622 2.55839
2167.24778 2.56353
2165.19934 2.56958
2163.15091 2.57669
2161.10247 2.58364
2159.05403 2.58998
2157.00559 2.59639
2154.95715 2.60175
2152.90871 2.60598
2150.86028 2.61220
2148.81184 2.61879
2146.76340 2.62158
2144.71496 2.62396
2142.66652 2.62940
2140.61808 2.63420
2138.56965 2.63491
2136.52121 2.63482
2134.47277 2.63734
2132.42433 2.63974
2130.37589 2.63995
2128.32745 2.64018
2126.27902 2.64307
2124.23058 2.64940
2122.18214 2.65675
2120.13370 2.66280
2118.08526 2.66725
2116.03682 2.66880
2113.98839 2.66858
2111.93995 2.66923
2109.89151 2.66817
2107.84307 2.66404
2105.79463 2.66119
2103.74619 2.66118
2101.69776 2.66221
2099.64932 2.66474
2097.60088 2.66764
2095.55244 2.66858
2093.50400 2.66862
2091.45556 2.66941
2089.40713 2.67164
2087.35869 2.67267
2085.31025 2.67040
2083.26181 2.67041
2081.21337 2.67426
2079.16493 2.67643
2077.11649 2.67647
2075.06806 2.67570
2073.01962 2.67325
2070.97118 2.67195
2068.92274 2.67505
2066.87430 2.68025
2064.82586 2.68459
2062.77743 2.68788
2060.72899 2.69023
2058.68055 2.68995
2056.63211 2.68617
2054.58367 2.68066
2052.53523 2.67699
2050.48680 2.67804
2048.43836 2.67919
2046.38992 2.67629
2044.34148 2.67357
2042.29304 2.67300
2040.24460 2.67192
2038.19617 2.67160
2036.14773 2.67245
2034.09929 2.67137
2032.05085 2.66937
2030.00241 2.66836
2027.95397 2.66835
2025.90554 2.66894
2023.85710 2.66821
2021.80866 2.66595
2019.76022 2.66567
2017.71178 2.66808
2015.66334 2.67025
2013.61491 2.67170
2011.56647 2.67193
2009.51803 2.66931
2007.46959 2.66606
2005.42115 2.66616
2003.37271 2.66791
2001.32428 2.66926
1999.27584 2.67105
1997.22740 2.67167
1995.17896 2.67163
1993.13052 2.67395
1991.08208 2.67885
1989.03365 2.68462
1986.98521 2.69055
1984.93677 2.69626
1982.88833 2.69980
1980.83989 2.69830
1978.79145 2.69459
1976.74302 2.69414
1974.69458 2.69491
1972.64614 2.69414
1970.59770 2.69439
1968.54926 2.69635
1966.50082 2.69774
1964.45239 2.69566
1962.40395 2.69163
1960.35551 2.68989
1958.30707 2.68758
1956.25863 2.68316
1954.21019 2.67967
1952.16176 2.67693
1950.11332 2.67564
1948.06488 2.67534
1946.01644 2.67217
1943.96800 2.66702
1941.91956 2.66376
1939.87112 2.65952
1937.82269 2.65286
1935.77425 2.64696
1933.72581 2.64383
1931.67737 2.64226
1929.62893 2.63971
1927.58049 2.63772
1925.53206 2.63791
1923.48362 2.63739
1921.43518 2.63214
1919.38674 2.62616
1917.33830 2.62642
1915.28986 2.62889
1913.24143 2.62658
1911.19299 2.62223
1909.14455 2.62316
1907.09611 2.62761
1905.04767 2.62822
1902.99923 2.62739
1900.95080 2.63088
1898.90236 2.63606
1896.85392 2.63807
1894.80548 2.63780
1892.75704 2.63575
1890.70860 2.63379
1888.66017 2.63637
1886.61173 2.63988
1884.56329 2.64012
1882.51485 2.63871
1880.46641 2.63794
1878.41797 2.63871
1876.36954 2.63974
1874.32110 2.64054
1872.27266 2.64069
1870.22422 2.64037
1868.17578 2.64361
1866.12734 2.64976
1864.07891 2.65511
1862.03047 2.65879
1859.98203 2.65812
1857.93359 2.65572
1855.88515 2.65537
1853.83671 2.65597
1851.78828 2.65820
1849.73984 2.66074
1847.69140 2.66111
1845.64296 2.66232
1843.59452 2.66793
1841.54608 2.67179
1839.49765 2.67215
1837.44921 2.67511
1835.40077 2.68137
1833.35233 2.68484
1831.30389 2.68563
1829.25545 2.69083
1827.20702 2.69608
1825.15858 2.69741
1823.11014 2.69909
1821.06170 2.69992
1819.01326 2.70079
1816.96482 2.70506
1814.91639 2.70993
1812.86795 2.71204
1810.81951 2.71669
1808.77107 2.72431
1806.72263 2.72822
1804.67419 2.72895
1802.62575 2.72895
1800.57732 2.73279
1798.52888 2.74258
1796.48044 2.74882
1794.43200 2.74633
1792.38356 2.74382
1790.33512 2.75082
1788.28669 2.75864
1786.23825 2.76486
1784.18981 2.77123
1782.14137 2.77266
1780.09293 2.77257
1778.04449 2.77425
1775.99606 2.77071
1773.94762 2.76570
1771.89918 2.77145
1769.85074 2.78573
1767.80230 2.79909
1765.75386 2.80572
1763.70543 2.80440
1761.65699 2.80699
1759.60855 2.81387
1757.56011 2.81515
1755.51167 2.81315
1753.46323 2.80747
1751.41480 2.80442
1749.36636 2.81473
1747.31792 2.82760
1745.26948 2.83829
1743.22104 2.84549
1741.17260 2.84761
1739.12417 2.85581
1737.07573 2.86198
1735.02729 2.85987
1732.97885 2.86853
1730.93041 2.88371
1728.88197 2.89585
1726.83354 2.90070
1724.78510 2.89866
1722.73666 2.90037
1720.68822 2.90090
1718.63978 2.90040
1716.59134 2.92601
1714.54291 2.95632
1712.49447 2.96521
1710.44603 2.96555
1708.39759 2.97002
1706.34915 2.98837
1704.30071 2.99816
1702.25228 2.99120
1700.20384 2.99950
1698.15540 3.01641
1696.10696 3.01828
1694.05852 3.01751
1692.01008 3.01800
1689.96165 3.02337
1687.91321 3.03182
1685.86477 3.04077
1683.81633 3.05118
1681.76789 3.05068
1679.71945 3.04042
1677.67102 3.02806
1675.62258 3.03495
1673.57414 3.05949
1671.52570 3.06359
1669.47726 3.05266
1667.42882 3.04397
1665.38038 3.03366
1663.33195 3.02878
1661.28351 3.03922
1659.23507 3.04448
1657.18663 3.03724
1655.13819 3.03215
1653.08975 3.03108
1651.04132 3.01290
1648.99288 2.99262
1646.94444 2.99105
1644.89600 3.01091
1642.84756 3.01562
1640.79912 3.01224
1638.75069 3.00894
1636.70225 3.00652
1634.65381 3.00862
1632.60537 3.01131
1630.55693 3.00861
1628.50849 3.00122
1626.46006 2.99697
1624.41162 2.99967
1622.36318 3.00654
1620.31474 3.00431
1618.26630 2.99381
1616.21786 2.99680
1614.16943 3.00941
1612.12099 3.00997
1610.07255 3.00465
1608.02411 2.99876
1605.97567 2.98921
1603.92723 2.98243
1601.87880 2.98617
1599.83036 2.99065
1597.78192 2.98948
1595.73348 2.98569
1593.68504 2.98165
1591.63660 2.98414
1589.58817 2.98989
1587.53973 2.99110
1585.49129 2.98975
1583.44285 2.98617
1581.39441 2.97760
1579.34597 2.96756
1577.29754 2.96371
1575.24910 2.96756
1573.20066 2.96634
1571.15222 2.95872
1569.10378 2.95384
1567.05534 2.95856
1565.00691 2.96388
1562.95847 2.96443
1560.91003 2.96053
1558.86159 2.96112
1556.81315 2.96507
1554.76471 2.95445
1552.71628 2.93913
1550.66784 2.92743
1548.61940 2.92230
1546.57096 2.92262
1544.52252 2.92409
1542.47408 2.92489
1540.42565 2.91908
1538.37721 2.89854
1536.32877 2.88417
1534.28033 2.87684
1532.23189 2.87225
1530.18345 2.86399
1528.13501 2.85171
1526.08658 2.83673
1524.03814 2.82726
1521.98970 2.83489
1519.94126 2.84898
1517.89282 2.85104
1515.84438 2.85280
1513.79595 2.85838
1511.74751 2.86427
1509.69907 2.86735
1507.65063 2.87115
1505.60219 2.88143
1503.55375 2.87773
1501.50532 2.86777
1499.45688 2.85999
1497.40844 2.86277
1495.36000 2.86904
1493.31156 2.86243
1491.26312 2.84992
1489.21469 2.84667
1487.16625 2.85756
1485.11781 2.87096
1483.06937 2.88059
1481.02093 2.88338
1478.97249 2.88048
1476.92406 2.87864
1474.87562 2.88344
1472.82718 2.89636
1470.77874 2.90942
1468.73030 2.91242
1466.68186 2.90778
1464.63343 2.89798
1462.58499 2.88521
1460.53655 2.87083
1458.48811 2.85842
1456.43967 2.85941
1454.39123 2.85964
1452.34280 2.85274
1450.29436 2.84840
1448.24592 2.85339
1446.19748 2.86192
1444.14904 2.86492
1442.10060 2.86570
1440.05217 2.86737
1438.00373 2.86793
1435.95529 2.86622
1433.90685 2.86543
1431.85841 2.86149
1429.80997 2.85698
1427.76154 2.86012
1425.71310 2.86317
1423.66466 2.86250
1421.61622 2.86214
1419.56778 2.86455
1417.51934 2.87538
1415.47091 2.88504
1413.42247 2.88466
1411.37403 2.87889
1409.32559 2.87993
1407.27715 2.88717
1405.22871 2.88907
1403.18028 2.88485
1401.13184 2.88279
1399.08340 2.88383
1397.03496 2.88305
1394.98652 2.87868
1392.93808 2.87275
1390.88965 2.86949
1388.84121 2.86992
1386.79277 2.87387
1384.74433 2.88041
1382.69589 2.88649
1380.64745 2.89343
1378.59901 2.89721
1376.55058 2.89108
1374.50214 2.88066
1372.45370 2.87446
1370.40526 2.87211
1368.35682 2.87061
1366.30838 2.87091
1364.25995 2.87283
1362.21151 2.87135
1360.16307 2.86511
1358.11463 2.85678
1356.06619 2.85021
1354.01775 2.84931
1351.96932 2.84989
1349.92088 2.85006
1347.87244 2.85364
1345.82400 2.85626
1343.77556 2.85320
1341.72712 2.84864
1339.67869 2.84875
1337.63025 2.85528
1335.58181 2.86148
1333.53337 2.86377
1331.48493 2.86562
1329.43649 2.87051
1327.38806 2.87277
1325.33962 2.86880
1323.29118 2.86736
1321.24274 2.87080
1319.19430 2.87612
1317.14586 2.87998
1315.09743 2.87657
1313.04899 2.87246
1311.00055 2.87468
1308.95211 2.87724
1306.90367 2.87811
1304.85523 2.88181
1302.80680 2.88594
1300.75836 2.88493
1298.70992 2.88185
1296.66148 2.88228
1294.61304 2.88524
1292.56460 2.88654
1290.51617 2.88755
1288.46773 2.89159
1286.41929 2.89506
1284.37085 2.89650
1282.32241 2.89983
1280.27397 2.90758
1278.22554 2.91857
1276.17710 2.92656
1274.12866 2.92801
1272.08022 2.92760
1270.03178 2.92900
1267.98334 2.93281
1265.93491 2.93806
1263.88647 2.93976
1261.83803 2.93922
1259.78959 2.94130
1257.74115 2.94429
1255.69271 2.94299
1253.64428 2.93562
1251.59584 2.92766
1249.54740 2.92149
1247.49896 2.91531
1245.45052 2.91191
1243.40208 2.91367
1241.35364 2.91352
1239.30521 2.90790
1237.25677 2.90341
1235.20833 2.90235
1233.15989 2.89944
1231.11145 2.89284
1229.06301 2.88800
1227.01458 2.88507
1224.96614 2.88104
1222.91770 2.87599
1220.86926 2.86889
1218.82082 2.85943
1216.77238 2.84981
1214.72395 2.84087
1212.67551 2.83041
1210.62707 2.82096
1208.57863 2.81379
1206.53019 2.80409
1204.48175 2.79377
1202.43332 2.78684
1200.38488 2.77954
1198.33644 2.77004
1196.28800 2.76231
1194.23956 2.75528
1192.19112 2.74482
1190.14269 2.73550
1188.09425 2.73328
1186.04581 2.73347
1183.99737 2.73273
1181.94893 2.73193
1179.90049 2.72731
1177.85206 2.72213
1175.80362 2.72242
1173.75518 2.72381
1171.70674 2.72149
1169.65830 2.71897
1167.60986 2.71998
1165.56143 2.72027
1163.51299 2.71692
1161.46455 2.71467
1159.41611 2.71552
1157.36767 2.71614
1155.31923 2.71558
1153.27080 2.71498
1151.22236 2.71412
1149.17392 2.71344
1147.12548 2.71251
1145.07704 2.71125
1143.02860 2.71179
1140.98017 2.71595
1138.93173 2.72219
1136.88329 2.72751
1134.83485 2.73295
1132.78641 2.73794
1130.73797 2.74069
1128.68954 2.74172
1126.64110 2.74197
1124.59266 2.74490
1122.54422 2.75155
1120.49578 2.75687
1118.44734 2.75658
1116.39891 2.75478
1114.35047 2.75519
1112.30203 2.75416
1110.25359 2.75517
1108.20515 2.76280
1106.15671 2.76758
1104.10827 2.76666
1102.05984 2.76961
1100.01140 2.77718
1097.96296 2.78319
1095.91452 2.78673
1093.86608 2.79252
1091.81764 2.80112
1089.76921 2.80429
1087.72077 2.79947
1085.67233 2.79385
1083.62389 2.78643
1081.57545 2.77276
1079.52701 2.75535
1077.47858 2.73658
1075.43014 2.71833
1073.38170 2.70146
1071.33326 2.68484
1069.28482 2.66560
1067.23638 2.64172
1065.18795 2.61555
1063.13951 2.58671
1061.09107 2.55631
1059.04263 2.53014
1056.99419 2.50638
1054.94575 2.48126
1052.89732 2.45795
1050.84888 2.43935
1048.80044 2.42297
1046.75200 2.40502
1044.70356 2.38706
1042.65512 2.37284
1040.60669 2.36310
1038.55825 2.35664
1036.50981 2.35227
1034.46137 2.34833
1032.41293 2.34411
1030.36449 2.34126
1028.31606 2.33915
1026.26762 2.33589
1024.21918 2.33254
1022.17074 2.33127
1020.12230 2.33222
1018.07386 2.33320
1016.02543 2.33298
1013.97699 2.33159
1011.92855 2.32843
1009.88011 2.32326
1007.83167 2.31748
1005.78323 2.31296
1003.73480 2.31010
1001.68636 2.30817
999.63792 2.30833
997.58948 2.31248
995.54104 2.31982
993.49260 2.32779
991.44417 2.33446
989.39573 2.34000
987.34729 2.34599
985.29885 2.35344
983.25041 2.36091
981.20197 2.36766
979.15354 2.37535
977.10510 2.38409
975.05666 2.39408
973.00822 2.40505
970.95978 2.41419
968.91134 2.42206
966.86290 2.43147
964.81447 2.44196
962.76603 2.45261
960.71759 2.46375
958.66915 2.47579
956.62071 2.48797
954.57227 2.49923
952.52384 2.50926
950.47540 2.51788
948.42696 2.52594
946.37852 2.53228
944.33008 2.53786
942.28164 2.54726
940.23321 2.55817
938.18477 2.56590
936.13633 2.57151
934.08789 2.57711
932.03945 2.58584
929.99101 2.59779
927.94258 2.60598
925.89414 2.61097
923.84570 2.62051
921.79726 2.63116
919.74882 2.63798
917.70038 2.64480
915.65195 2.64990
913.60351 2.64967
911.55507 2.64854
909.50663 2.65203
907.45819 2.66135
905.40975 2.66888
903.36132 2.66672
901.31288 2.66273
899.26444 2.66686
897.21600 2.67483
895.16756 2.67963
893.11912 2.68192
891.07069 2.68208
889.02225 2.67674
886.97381 2.66951
884.92537 2.67009
882.87693 2.67886
880.82849 2.68843
878.78006 2.69894
876.73162 2.71428
874.68318 2.72749
872.63474 2.73345
870.58630 2.73729
868.53786 2.74160
866.48943 2.75003
864.44099 2.76305
862.39255 2.77270
860.34411 2.77944
858.29567 2.79055
856.24723 2.80306
854.19880 2.81147
852.15036 2.81893
850.10192 2.82476
848.05348 2.81901
846.00504 2.80613
843.95660 2.80235
841.90817 2.80608
839.85973 2.80924
837.81129 2.81653
835.76285 2.82979
833.71441 2.84058
831.66597 2.84852
829.61753 2.85623
827.56910 2.86079
825.52066 2.87016
823.47222 2.88092
821.42378 2.87839
819.37534 2.87350
817.32690 2.87708
815.27847 2.88638
813.23003 2.89826
811.18159 2.90420
809.13315 2.89937
807.08471 2.89136
805.03627 2.89240
802.98784 2.90612
800.93940 2.92115
798.89096 2.91826
796.84252 2.90843
794.79408 2.92425
792.74564 2.96203
790.69721 2.99614
788.64877 3.00791
786.60033 2.99290
784.55189 2.96883
782.50345 2.95198
780.45501 2.94881
778.40658 2.95842
776.35814 2.95951
774.30970 2.94087
772.26126 2.94207
770.21282 2.97416
768.16438 2.99959
766.11595 3.01700
764.06751 3.03864
762.01907 3.04475
759.97063 3.03276
757.92219 3.01724
755.87375 2.99855
753.82532 2.98396
751.77688 2.98003
749.72844 2.98993
747.68000 3.00587
745.63156 3.01189
743.58312 3.02151
741.53469 3.03370
739.48625 3.02937
737.43781 3.02318
735.38937 3.04369
733.34093 3.07283
731.29249 3.05125
729.24406 2.99757
727.19562 2.96730
725.14718 2.97224
723.09874 2.98710
721.05030 2.97254
719.00186 2.94527
716.95343 2.94048
714.90499 2.94985
712.85655 2.96464
710.80811 2.97915
708.75967 2.96562
706.71123 2.93108
704.66280 2.91038
702.61436 2.89819
700.56592 2.88677
698.51748 2.87722
696.46904 2.86329
694.42060 2.86562
692.37216 2.88682
690.32373 2.89124
688.27529 2.87262
686.22685 2.85954
684.17841 2.86745
682.12997 2.87467
680.08153 2.87151
678.03310 2.88160
675.98466 2.90093
673.93622 2.92905
671.88778 2.97304
669.83934 3.02996
667.79090 3.02400
665.74247 2.91844
663.69403 2.83912
661.64559 2.78524
659.59715 2.76229
657.54871 2.78068
655.50027 2.80673
653.45184 2.80295
651.40340 2.78910
649.35496 2.79161
647.30652 2.78981
645.25808 2.78729
643.20964 2.81665
641.16121 2.84248
639.11277 2.81064
637.06433 2.77293
635.01589 2.79370
632.96745 2.84375
630.91901 2.86064
628.87058 2.82867
626.82214 2.77400
624.77370 2.76169
622.72526 2.81551
620.67682 2.86860
618.62838 2.84447
616.57995 2.84104
614.53151 2.90057
612.48307 2.83874
610.43463 2.68689
608.38619 2.63549
606.33775 2.71519
604.28932 2.78818
602.24088 2.75334
600.19244 2.75135
598.14400 2.89406
