3996.50324 0.00666
3994.45480 0.00661
3992.40636 0.00660
3990.35792 0.00661
3988.30948 0.00664
3986.26104 0.00669
3984.21261 0.00671
3982.16417 0.00669
3980.11573 0.00668
3978.06729 0.00670
3976.01885 0.00670
3973.97041 0.00667
3971.92198 0.00666
3969.87354 0.00665
3967.82510 0.00664
3965.77666 0.00664
3963.72822 0.00664
3961.67978 0.00660
3959.63135 0.00657
3957.58291 0.00658
3955.53447 0.00660
3953.48603 0.00660
3951.43759 0.00664
3949.38915 0.00665
3947.34072 0.00660
3945.29228 0.00657
3943.24384 0.00653
3941.19540 0.00649
3939.14696 0.00653
3937.09852 0.00661
3935.05009 0.00669
3933.00165 0.00673
3930.95321 0.00670
3928.90477 0.00666
3926.85633 0.00670
3924.80789 0.00672
3922.75946 0.00668
3920.71102 0.00669
3918.66258 0.00667
3916.61414 0.00658
3914.56570 0.00659
3912.51726 0.00668
3910.46883 0.00672
3908.42039 0.00677
3906.37195 0.00686
3904.32351 0.00686
3902.27507 0.00672
3900.22663 0.00662
3898.17820 0.00660
3896.12976 0.00670
3894.08132 0.00686
3892.03288 0.00683
3889.98444 0.00665
3887.93600 0.00671
3885.88756 0.00683
3883.83913 0.00678
3881.79069 0.00679
3879.74225 0.00675
3877.69381 0.00674
3875.64537 0.00686
3873.59693 0.00692
3871.54850 0.00696
3869.50006 0.00689
3867.45162 0.00683
3865.40318 0.00691
3863.35474 0.00683
3861.30630 0.00666
3859.25787 0.00672
3857.20943 0.00698
3855.16099 0.00723
3853.11255 0.00691
3851.06411 0.00651
3849.01567 0.00659
3846.96724 0.00675
3844.91880 0.00688
3842.87036 0.00692
3840.82192 0.00689
3838.77348 0.00676
3836.72504 0.00660
3834.67661 0.00658
3832.62817 0.00662
3830.57973 0.00664
3828.53129 0.00671
3826.48285 0.00676
3824.43441 0.00680
3822.38598 0.00686
3820.33754 0.00666
3818.28910 0.00657
3816.24066 0.00661
3814.19222 0.00651
3812.14378 0.00654
3810.09535 0.00670
3808.04691 0.00677
3805.99847 0.00663
3803.95003 0.00665
3801.90159 0.00667
3799.85315 0.00643
3797.80472 0.00638
3795.75628 0.00641
3793.70784 0.00642
3791.65940 0.00644
3789.61096 0.00645
3787.56252 0.00650
3785.51409 0.00650
3783.46565 0.00645
3781.41721 0.00649
3779.36877 0.00648
3777.32033 0.00637
3775.27189 0.00636
3773.22346 0.00642
3771.17502 0.00648
3769.12658 0.00642
3767.07814 0.00629
3765.02970 0.00618
3762.98126 0.00613
3760.93283 0.00617
3758.88439 0.00610
3756.83595 0.00601
3754.78751 0.00611
3752.73907 0.00627
3750.69063 0.00616
3748.64219 0.00591
3746.59376 0.00592
3744.54532 0.00583
3742.49688 0.00570
3740.44844 0.00577
3738.40000 0.00590
3736.35156 0.00587
3734.30313 0.00562
3732.25469 0.00539
3730.20625 0.00533
3728.15781 0.00537
3726.10937 0.00536
3724.06093 0.00521
3722.01250 0.00502
3719.96406 0.00491
3717.91562 0.00489
3715.86718 0.00491
3713.81874 0.00488
3711.77030 0.00466
3709.72187 0.00441
3707.67343 0.00441
3705.62499 0.00443
3703.57655 0.00438
3701.52811 0.00428
3699.47967 0.00417
3697.43124 0.00408
3695.38280 0.00403
3693.33436 0.00401
3691.28592 0.00401
3689.23748 0.00393
3687.18904 0.00380
3685.14061 0.00373
3683.09217 0.00368
3681.04373 0.00362
3678.99529 0.00357
3676.94685 0.00355
3674.89841 0.00348
3672.84998 0.00340
3670.80154 0.00334
3668.75310 0.00327
3666.70466 0.00326
3664.65622 0.00328
3662.60778 0.00328
3660.55935 0.00325
3658.51091 0.00321
3656.46247 0.00318
3654.41403 0.00316
3652.36559 0.00317
3650.31715 0.00315
3648.26872 0.00303
3646.22028 0.00302
3644.17184 0.00302
3642.12340 0.00299
3640.07496 0.00296
3638.02652 0.00297
3635.97809 0.00297
3633.92965 0.00295
3631.88121 0.00292
3629.83277 0.00290
3627.78433 0.00288
3625.73589 0.00291
3623.68746 0.00293
3621.63902 0.00293
3619.59058 0.00291
3617.54214 0.00289
3615.49370 0.00287
3613.44526 0.00288
3611.39682 0.00289
3609.34839 0.00288
3607.29995 0.00284
3605.25151 0.00283
3603.20307 0.00281
3601.15463 0.00277
3599.10619 0.00277
3597.05776 0.00280
3595.00932 0.00279
3592.96088 0.00276
3590.91244 0.00275
3588.86400 0.00275
3586.81556 0.00275
3584.76713 0.00277
3582.71869 0.00281
3580.67025 0.00284
3578.62181 0.00281
3576.57337 0.00279
3574.52493 0.00281
3572.47650 0.00281
3570.42806 0.00280
3568.37962 0.00279
3566.33118 0.00280
3564.28274 0.00281
3562.23430 0.00281
3560.18587 0.00278
3558.13743 0.00275
3556.08899 0.00275
3554.04055 0.00276
3551.99211 0.00274
3549.94367 0.00268
3547.89524 0.00265
3545.84680 0.00267
3543.79836 0.00270
3541.74992 0.00272
3539.70148 0.00274
3537.65304 0.00277
3535.60461 0.00279
3533.55617 0.00277
3531.50773 0.00275
3529.45929 0.00271
3527.41085 0.00267
3525.36241 0.00268
3523.31398 0.00270
3521.26554 0.00271
3519.21710 0.00273
3517.16866 0.00273
3515.12022 0.00270
3513.07178 0.00268
3511.02335 0.00268
3508.97491 0.00272
3506.92647 0.00275
3504.87803 0.00277
3502.82959 0.00276
3500.78115 0.00275
3498.73272 0.00273
3496.68428 0.00269
3494.63584 0.00263
3492.58740 0.00259
3490.53896 0.00260
3488.49052 0.00263
3486.44209 0.00264
3484.39365 0.00262
3482.34521 0.00262
3480.29677 0.00264
3478.24833 0.00266
3476.19989 0.00267
3474.15146 0.00267
3472.10302 0.00266
3470.05458 0.00266
3468.00614 0.00263
3465.95770 0.00259
3463.90926 0.00260
3461.86082 0.00263
3459.81239 0.00265
3457.76395 0.00265
3455.71551 0.00265
3453.66707 0.00264
3451.61863 0.00259
3449.57019 0.00255
3447.52176 0.00257
3445.47332 0.00261
3443.42488 0.00262
3441.37644 0.00260
3439.32800 0.00258
3437.27956 0.00254
3435.23113 0.00253
3433.18269 0.00255
3431.13425 0.00255
3429.08581 0.00251
3427.03737 0.00248
3424.98893 0.00252
3422.94050 0.00254
3420.89206 0.00251
3418.84362 0.00251
3416.79518 0.00255
3414.74674 0.00255
3412.69830 0.00251
3410.64987 0.00249
3408.60143 0.00249
3406.55299 0.00249
3404.50455 0.00251
3402.45611 0.00253
3400.40767 0.00253
3398.35924 0.00253
3396.31080 0.00253
3394.26236 0.00251
3392.21392 0.00251
3390.16548 0.00251
3388.11704 0.00252
3386.06861 0.00253
3384.02017 0.00255
3381.97173 0.00254
3379.92329 0.00250
3377.87485 0.00248
3375.82641 0.00250
3373.77798 0.00253
3371.72954 0.00256
3369.68110 0.00255
3367.63266 0.00252
3365.58422 0.00252
3363.53578 0.00253
3361.48735 0.00251
3359.43891 0.00251
3357.39047 0.00255
3355.34203 0.00258
3353.29359 0.00258
3351.24515 0.00257
3349.19672 0.00254
3347.14828 0.00253
3345.09984 0.00256
3343.05140 0.00258
3341.00296 0.00257
3338.95452 0.00256
3336.90609 0.00256
3334.85765 0.00255
3332.80921 0.00254
3330.76077 0.00254
3328.71233 0.00256
3326.66389 0.00261
3324.61545 0.00264
3322.56702 0.00265
3320.51858 0.00263
3318.47014 0.00265
3316.42170 0.00268
3314.37326 0.00271
3312.32482 0.00269
3310.27639 0.00266
3308.22795 0.00265
3306.17951 0.00268
3304.13107 0.00273
3302.08263 0.00277
3300.03419 0.00278
3297.98576 0.00276
3295.93732 0.00272
3293.88888 0.00271
3291.84044 0.00275
3289.79200 0.00280
3287.74356 0.00281
3285.69513 0.00278
3283.64669 0.00277
3281.59825 0.00279
3279.54981 0.00280
3277.50137 0.00282
3275.45293 0.00285
3273.40450 0.00287
3271.35606 0.00285
3269.30762 0.00284
3267.25918 0.00284
3265.21074 0.00284
3263.16230 0.00281
3261.11387 0.00279
3259.06543 0.00279
3257.01699 0.00281
3254.96855 0.00283
3252.92011 0.00285
3250.87167 0.00288
3248.82324 0.00289
3246.77480 0.00289
3244.72636 0.00289
3242.67792 0.00288
3240.62948 0.00287
3238.58104 0.00287
3236.53261 0.00289
3234.48417 0.00289
3232.43573 0.00289
3230.38729 0.00290
3228.33885 0.00290
3226.29041 0.00290
3224.24198 0.00289
3222.19354 0.00288
3220.14510 0.00289
3218.09666 0.00292
3216.04822 0.00293
3213.99978 0.00294
3211.95135 0.00295
3209.90291 0.00295
3207.85447 0.00294
3205.80603 0.00292
3203.75759 0.00291
3201.70915 0.00291
3199.66072 0.00290
3197.61228 0.00288
3195.56384 0.00288
3193.51540 0.00288
3191.46696 0.00288
3189.41852 0.00289
3187.37008 0.00292
3185.32165 0.00294
3183.27321 0.00297
3181.22477 0.00296
3179.17633 0.00292
3177.12789 0.00290
3175.07945 0.00293
3173.03102 0.00297
3170.98258 0.00298
3168.93414 0.00296
3166.88570 0.00295
3164.83726 0.00297
3162.78882 0.00297
3160.74039 0.00295
3158.69195 0.00292
3156.64351 0.00293
3154.59507 0.00293
3152.54663 0.00293
3150.49819 0.00295
3148.44976 0.00297
3146.40132 0.00298
3144.35288 0.00297
3142.30444 0.00298
3140.25600 0.00301
3138.20756 0.00303
3136.15913 0.00301
3134.11069 0.00298
3132.06225 0.00298
3130.01381 0.00299
3127.96537 0.00298
3125.91693 0.00298
3123.86850 0.00299
3121.82006 0.00298
3119.77162 0.00296
3117.72318 0.00296
3115.67474 0.00300
3113.62630 0.00302
3111.57787 0.00300
3109.52943 0.00297
3107.48099 0.00297
3105.43255 0.00297
3103.38411 0.00297
3101.33567 0.00297
3099.28724 0.00299
3097.23880 0.00302
3095.19036 0.00304
3093.14192 0.00303
3091.09348 0.00304
3089.04504 0.00306
3086.99661 0.00309
3084.94817 0.00309
3082.89973 0.00306
3080.85129 0.00305
3078.80285 0.00306
3076.75441 0.00305
3074.70598 0.00304
3072.65754 0.00303
3070.60910 0.00304
3068.56066 0.00307
3066.51222 0.00308
3064.46378 0.00310
3062.41535 0.00312
3060.36691 0.00315
3058.31847 0.00315
3056.27003 0.00313
3054.22159 0.00312
3052.17315 0.00315
3050.12471 0.00317
3048.07628 0.00317
3046.02784 0.00317
3043.97940 0.00317
3041.93096 0.00316
3039.88252 0.00319
3037.83408 0.00323
3035.78565 0.00324
3033.73721 0.00324
3031.68877 0.00325
3029.64033 0.00326
3027.59189 0.00326
3025.54345 0.00328
3023.49502 0.00332
3021.44658 0.00333
3019.39814 0.00333
3017.34970 0.00333
3015.30126 0.00334
3013.25282 0.00337
3011.20439 0.00340
3009.15595 0.00341
3007.10751 0.00343
3005.05907 0.00345
3003.01063 0.00346
3000.96219 0.00347
2998.91376 0.00348
2996.86532 0.00348
2994.81688 0.00349
2992.76844 0.00350
2990.72000 0.00351
2988.67156 0.00351
2986.62313 0.00352
2984.57469 0.00353
2982.52625 0.00353
2980.47781 0.00351
2978.42937 0.00349
2976.38093 0.00347
2974.33250 0.00346
2972.28406 0.00344
2970.23562 0.00340
2968.18718 0.00338
2966.13874 0.00338
2964.09030 0.00337
2962.04187 0.00333
2959.99343 0.00329
2957.94499 0.00326
2955.89655 0.00325
2953.84811 0.00324
2951.79967 0.00326
2949.75124 0.00328
2947.70280 0.00330
2945.65436 0.00331
2943.60592 0.00329
2941.55748 0.00326
2939.50904 0.00324
2937.46061 0.00323
2935.41217 0.00322
2933.36373 0.00318
2931.31529 0.00312
2929.26685 0.00307
2927.21841 0.00304
2925.16998 0.00304
2923.12154 0.00306
2921.07310 0.00309
2919.02466 0.00311
2916.97622 0.00311
2914.92778 0.00313
2912.87934 0.00318
2910.83091 0.00321
2908.78247 0.00324
2906.73403 0.00327
2904.68559 0.00331
2902.63715 0.00337
2900.58871 0.00342
2898.54028 0.00344
2896.49184 0.00344
2894.44340 0.00346
2892.39496 0.00348
2890.34652 0.00351
2888.29808 0.00355
2886.24965 0.00357
2884.20121 0.00360
2882.15277 0.00362
2880.10433 0.00362
2878.05589 0.00361
2876.00745 0.00359
2873.95902 0.00355
2871.91058 0.00354
2869.86214 0.00354
2867.81370 0.00355
2865.76526 0.00355
2863.71682 0.00353
2861.66839 0.00348
2859.61995 0.00343
2857.57151 0.00339
2855.52307 0.00335
2853.47463 0.00334
2851.42619 0.00335
2849.37776 0.00338
2847.32932 0.00344
2845.28088 0.00354
2843.23244 0.00364
2841.18400 0.00373
2839.13556 0.00384
2837.08713 0.00395
2835.03869 0.00403
2832.99025 0.00409
2830.94181 0.00413
2828.89337 0.00419
2826.84493 0.00423
2824.79650 0.00426
2822.74806 0.00427
2820.69962 0.00430
2818.65118 0.00433
2816.60274 0.00437
2814.55430 0.00441
2812.50587 0.00444
2810.45743 0.00445
2808.40899 0.00447
2806.36055 0.00448
2804.31211 0.00449
2802.26367 0.00449
2800.21524 0.00450
2798.16680 0.00454
2796.11836 0.00458
2794.06992 0.00460
2792.02148 0.00461
2789.97304 0.00463
2787.92461 0.00464
2785.87617 0.00467
2783.82773 0.00469
2781.77929 0.00468
2779.73085 0.00468
2777.68241 0.00471
2775.63397 0.00475
2773.58554 0.00477
2771.53710 0.00476
2769.48866 0.00478
2767.44022 0.00483
2765.39178 0.00486
2763.34334 0.00487
2761.29491 0.00487
2759.24647 0.00489
2757.19803 0.00492
2755.14959 0.00496
2753.10115 0.00495
2751.05271 0.00494
2749.00428 0.00495
2746.95584 0.00496
2744.90740 0.00496
2742.85896 0.00498
2740.81052 0.00499
2738.76208 0.00500
2736.71365 0.00500
2734.66521 0.00501
2732.61677 0.00502
2730.56833 0.00503
2728.51989 0.00504
2726.47145 0.00505
2724.42302 0.00507
2722.37458 0.00510
2720.32614 0.00514
2718.27770 0.00516
2716.22926 0.00516
2714.18082 0.00515
2712.13239 0.00515
2710.08395 0.00516
2708.03551 0.00520
2705.98707 0.00524
2703.93863 0.00527
2701.89019 0.00529
2699.84176 0.00530
2697.79332 0.00529
2695.74488 0.00528
2693.69644 0.00528
2691.64800 0.00531
2689.59956 0.00534
2687.55113 0.00532
2685.50269 0.00530
2683.45425 0.00531
2681.40581 0.00534
2679.35737 0.00536
2677.30893 0.00537
2675.26050 0.00538
2673.21206 0.00539
2671.16362 0.00538
2669.11518 0.00538
2667.06674 0.00539
2665.01830 0.00540
2662.96987 0.00540
2660.92143 0.00541
2658.87299 0.00544
2656.82455 0.00545
2654.77611 0.00544
2652.72767 0.00544
2650.67924 0.00544
2648.63080 0.00543
2646.58236 0.00543
2644.53392 0.00545
2642.48548 0.00546
2640.43704 0.00546
2638.38860 0.00545
2636.34017 0.00544
2634.29173 0.00544
2632.24329 0.00546
2630.19485 0.00548
2628.14641 0.00547
2626.09797 0.00547
2624.04954 0.00548
2622.00110 0.00549
2619.95266 0.00549
2617.90422 0.00549
2615.85578 0.00548
2613.80734 0.00545
2611.75891 0.00542
2609.71047 0.00542
2607.66203 0.00541
2605.61359 0.00539
2603.56515 0.00538
2601.51671 0.00537
2599.46828 0.00537
2597.41984 0.00537
2595.37140 0.00537
2593.32296 0.00538
2591.27452 0.00538
2589.22608 0.00536
2587.17765 0.00533
2585.12921 0.00529
2583.08077 0.00523
2581.03233 0.00518
2578.98389 0.00512
2576.93545 0.00509
2574.88702 0.00507
2572.83858 0.00505
2570.79014 0.00500
2568.74170 0.00491
2566.69326 0.00481
2564.64482 0.00477
2562.59639 0.00477
2560.54795 0.00481
2558.49951 0.00488
2556.45107 0.00497
2554.40263 0.00505
2552.35419 0.00513
2550.30576 0.00520
2548.25732 0.00524
2546.20888 0.00526
2544.16044 0.00531
2542.11200 0.00536
2540.06356 0.00537
2538.01513 0.00537
2535.96669 0.00534
2533.91825 0.00529
2531.86981 0.00525
2529.82137 0.00522
2527.77293 0.00518
2525.72450 0.00514
2523.67606 0.00512
2521.62762 0.00510
2519.57918 0.00509
2517.53074 0.00506
2515.48230 0.00505
2513.43387 0.00508
2511.38543 0.00514
2509.33699 0.00518
2507.28855 0.00522
2505.24011 0.00527
2503.19167 0.00532
2501.14324 0.00538
2499.09480 0.00542
2497.04636 0.00544
2494.99792 0.00548
2492.94948 0.00552
2490.90104 0.00555
2488.85260 0.00557
2486.80417 0.00559
2484.75573 0.00561
2482.70729 0.00563
2480.65885 0.00564
2478.61041 0.00562
2476.56197 0.00561
2474.51354 0.00561
2472.46510 0.00564
2470.41666 0.00567
2468.36822 0.00569
2466.31978 0.00568
2464.27134 0.00567
2462.22291 0.00566
2460.17447 0.00567
2458.12603 0.00569
2456.07759 0.00571
2454.02915 0.00571
2451.98071 0.00570
2449.93228 0.00569
2447.88384 0.00568
2445.83540 0.00568
2443.78696 0.00568
2441.73852 0.00568
2439.69008 0.00567
2437.64165 0.00565
2435.59321 0.00565
2433.54477 0.00565
2431.49633 0.00564
2429.44789 0.00565
2427.39945 0.00566
2425.35102 0.00567
2423.30258 0.00567
2421.25414 0.00567
2419.20570 0.00565
2417.15726 0.00562
2415.10882 0.00561
2413.06039 0.00561
2411.01195 0.00560
2408.96351 0.00560
2406.91507 0.00559
2404.86663 0.00557
2402.81819 0.00554
2400.76976 0.00553
2398.72132 0.00554
2396.67288 0.00555
2394.62444 0.00557
2392.57600 0.00557
2390.52756 0.00554
2388.47913 0.00551
2386.43069 0.00552
2384.38225 0.00555
2382.33381 0.00559
2380.28537 0.00562
2378.23693 0.00562
2376.18850 0.00565
2374.14006 0.00573
2372.09162 0.00582
2370.04318 0.00591
2367.99474 0.00597
2365.94630 0.00595
2363.89787 0.00586
2361.84943 0.00572
2359.80099 0.00549
2357.75255 0.00531
2355.70411 0.00528
2353.65567 0.00525
2351.60723 0.00521
2349.55880 0.00524
2347.51036 0.00533
2345.46192 0.00538
2343.41348 0.00529
2341.36504 0.00519
2339.31660 0.00516
2337.26817 0.00519
2335.21973 0.00522
2333.17129 0.00520
2331.12285 0.00512
2329.07441 0.00503
2327.02597 0.00496
2324.97754 0.00492
2322.92910 0.00493
2320.88066 0.00494
2318.83222 0.00485
2316.78378 0.00476
2314.73534 0.00471
2312.68691 0.00470
2310.63847 0.00473
2308.59003 0.00474
2306.54159 0.00472
2304.49315 0.00469
2302.44471 0.00466
2300.39628 0.00463
2298.34784 0.00461
2296.29940 0.00461
2294.25096 0.00461
2292.20252 0.00460
2290.15408 0.00459
2288.10565 0.00459
2286.05721 0.00458
2284.00877 0.00456
2281.96033 0.00454
2279.91189 0.00452
2277.86345 0.00453
2275.81502 0.00453
2273.76658 0.00452
2271.71814 0.00451
2269.66970 0.00450
2267.62126 0.00448
2265.57282 0.00444
2263.52439 0.00442
2261.47595 0.00442
2259.42751 0.00442
2257.37907 0.00443
2255.33063 0.00442
2253.28219 0.00441
2251.23376 0.00441
2249.18532 0.00440
2247.13688 0.00437
2245.08844 0.00435
2243.04000 0.00434
2240.99156 0.00435
2238.94313 0.00434
2236.89469 0.00431
2234.84625 0.00429
2232.79781 0.00429
2230.74937 0.00428
2228.70093 0.00426
2226.65250 0.00425
2224.60406 0.00426
2222.55562 0.00426
2220.50718 0.00426
2218.45874 0.00424
2216.41030 0.00423
2214.36186 0.00422
2212.31343 0.00418
2210.26499 0.00412
2208.21655 0.00409
2206.16811 0.00408
2204.11967 0.00405
2202.07123 0.00403
2200.02280 0.00400
2197.97436 0.00398
2195.92592 0.00395
2193.87748 0.00391
2191.82904 0.00388
2189.78060 0.00387
2187.73217 0.00385
2185.68373 0.00382
2183.63529 0.00378
2181.58685 0.00373
2179.53841 0.00369
2177.48997 0.00365
2175.44154 0.00360
2173.39310 0.00355
2171.34466 0.00350
2169.29622 0.00345
2167.24778 0.00340
2165.19934 0.00336
2163.15091 0.00337
2161.10247 0.00337
2159.05403 0.00333
2157.00559 0.00329
2154.95715 0.00326
2152.90871 0.00322
2150.86028 0.00318
2148.81184 0.00317
2146.76340 0.00317
2144.71496 0.00316
2142.66652 0.00315
2140.61808 0.00312
2138.56965 0.00308
2136.52121 0.00306
2134.47277 0.00303
2132.42433 0.00301
2130.37589 0.00299
2128.32745 0.00298
2126.27902 0.00297
2124.23058 0.00295
2122.18214 0.00293
2120.13370 0.00290
2118.08526 0.00288
2116.03682 0.00287
2113.98839 0.00288
2111.93995 0.00290
2109.89151 0.00292
2107.84307 0.00291
2105.79463 0.00289
2103.74619 0.00289
2101.69776 0.00289
2099.64932 0.00287
2097.60088 0.00285
2095.55244 0.00283
2093.50400 0.00284
2091.45556 0.00284
2089.40713 0.00282
2087.35869 0.00281
2085.31025 0.00282
2083.26181 0.00284
2081.21337 0.00285
2079.16493 0.00284
2077.11649 0.00284
2075.06806 0.00283
2073.01962 0.00281
2070.97118 0.00279
2068.92274 0.00276
2066.87430 0.00273
2064.82586 0.00275
2062.77743 0.00279
2060.72899 0.00279
2058.68055 0.00278
2056.63211 0.00279
2054.58367 0.00278
2052.53523 0.00276
2050.48680 0.00273
2048.43836 0.00272
2046.38992 0.00272
2044.34148 0.00273
2042.29304 0.00275
2040.24460 0.00275
2038.19617 0.00275
2036.14773 0.00275
2034.09929 0.00275
2032.05085 0.00274
2030.00241 0.00272
2027.95397 0.00271
2025.90554 0.00270
2023.85710 0.00269
2021.80866 0.00269
2019.76022 0.00270
2017.71178 0.00270
2015.66334 0.00267
2013.61491 0.00265
2011.56647 0.00264
2009.51803 0.00264
2007.46959 0.00264
2005.42115 0.00263
2003.37271 0.00262
2001.32428 0.00261
1999.27584 0.00258
1997.22740 0.00257
1995.17896 0.00259
1993.13052 0.00259
1991.08208 0.00255
1989.03365 0.00251
1986.98521 0.00249
1984.93677 0.00249
1982.88833 0.00248
1980.83989 0.00249
1978.79145 0.00250
1976.74302 0.00249
1974.69458 0.00249
1972.64614 0.00249
1970.59770 0.00250
1968.54926 0.00252
1966.50082 0.00255
1964.45239 0.00256
1962.40395 0.00256
1960.35551 0.00257
1958.30707 0.00259
1956.25863 0.00259
1954.21019 0.00258
1952.16176 0.00259
1950.11332 0.00261
1948.06488 0.00262
1946.01644 0.00262
1943.96800 0.00263
1941.91956 0.00266
1939.87112 0.00268
1937.82269 0.00269
1935.77425 0.00269
1933.72581 0.00273
1931.67737 0.00276
1929.62893 0.00277
1927.58049 0.00277
1925.53206 0.00277
1923.48362 0.00277
1921.43518 0.00279
1919.38674 0.00282
1917.33830 0.00284
1915.28986 0.00283
1913.24143 0.00283
1911.19299 0.00283
1909.14455 0.00283
1907.09611 0.00281
1905.04767 0.00279
1902.99923 0.00279
1900.95080 0.00280
1898.90236 0.00282
1896.85392 0.00282
1894.80548 0.00281
1892.75704 0.00280
1890.70860 0.00280
1888.66017 0.00281
1886.61173 0.00283
1884.56329 0.00283
1882.51485 0.00283
1880.46641 0.00282
1878.41797 0.00283
1876.36954 0.00286
1874.32110 0.00288
1872.27266 0.00290
1870.22422 0.00291
1868.17578 0.00290
1866.12734 0.00289
1864.07891 0.00290
1862.03047 0.00292
1859.98203 0.00291
1857.93359 0.00289
1855.88515 0.00290
1853.83671 0.00291
1851.78828 0.00291
1849.73984 0.00290
1847.69140 0.00290
1845.64296 0.00292
1843.59452 0.00294
1841.54608 0.00293
1839.49765 0.00294
1837.44921 0.00293
1835.40077 0.00290
1833.35233 0.00288
1831.30389 0.00289
1829.25545 0.00289
1827.20702 0.00286
1825.15858 0.00284
1823.11014 0.00282
1821.06170 0.00281
1819.01326 0.00280
1816.96482 0.00280
1814.91639 0.00278
1812.86795 0.00276
1810.81951 0.00274
1808.77107 0.00272
1806.72263 0.00271
1804.67419 0.00270
1802.62575 0.00270
1800.57732 0.00268
1798.52888 0.00262
1796.48044 0.00257
1794.43200 0.00257
1792.38356 0.00256
1790.33512 0.00250
1788.28669 0.00244
1786.23825 0.00239
1784.18981 0.00236
1782.14137 0.00232
1780.09293 0.00227
1778.04449 0.00224
1775.99606 0.00224
1773.94762 0.00223
1771.89918 0.00216
1769.85074 0.00206
1767.80230 0.00200
1765.75386 0.00199
1763.70543 0.00198
1761.65699 0.00197
1759.60855 0.00193
1757.56011 0.00188
1755.51167 0.00185
1753.46323 0.00184
1751.41480 0.00184
1749.36636 0.00183
1747.31792 0.00180
1745.26948 0.00176
1743.22104 0.00175
1741.17260 0.00174
1739.12417 0.00170
1737.07573 0.00167
1735.02729 0.00167
1732.97885 0.00166
1730.93041 0.00163
1728.88197 0.00159
1726.83354 0.00157
1724.78510 0.00157
1722.73666 0.00157
1720.68822 0.00154
1718.63978 0.00151
1716.59134 0.00149
1714.54291 0.00147
1712.49447 0.00149
1710.44603 0.00151
1708.39759 0.00153
1706.34915 0.00151
1704.30071 0.00149
1702.25228 0.00149
1700.20384 0.00152
1698.15540 0.00153
1696.10696 0.00150
1694.05852 0.00147
1692.01008 0.00147
1689.96165 0.00148
1687.91321 0.00149
1685.86477 0.00149
1683.81633 0.00146
1681.76789 0.00145
1679.71945 0.00146
1677.67102 0.00147
1675.62258 0.00146
1673.57414 0.00144
1671.52570 0.00144
1669.47726 0.00143
1667.42882 0.00142
1665.38038 0.00143
1663.33195 0.00143
1661.28351 0.00142
1659.23507 0.00140
1657.18663 0.00139
1655.13819 0.00137
1653.08975 0.00136
1651.04132 0.00140
1648.99288 0.00141
1646.94444 0.00144
1644.89600 0.00145
1642.84756 0.00143
1640.79912 0.00142
1638.75069 0.00142
1636.70225 0.00140
1634.65381 0.00136
1632.60537 0.00136
1630.55693 0.00137
1628.50849 0.00137
1626.46006 0.00137
1624.41162 0.00136
1622.36318 0.00135
1620.31474 0.00136
1618.26630 0.00139
1616.21786 0.00140
1614.16943 0.00138
1612.12099 0.00138
1610.07255 0.00140
1608.02411 0.00143
1605.97567 0.00145
1603.92723 0.00143
1601.87880 0.00142
1599.83036 0.00143
1597.78192 0.00146
1595.73348 0.00147
1593.68504 0.00147
1591.63660 0.00147
1589.58817 0.00146
1587.53973 0.00144
1585.49129 0.00143
1583.44285 0.00144
1581.39441 0.00144
1579.34597 0.00143
1577.29754 0.00141
1575.24910 0.00140
1573.20066 0.00142
1571.15222 0.00143
1569.10378 0.00141
1567.05534 0.00139
1565.00691 0.00138
1562.95847 0.00139
1560.91003 0.00142
1558.86159 0.00142
1556.81315 0.00135
1554.76471 0.00131
1552.71628 0.00129
1550.66784 0.00129
1548.61940 0.00130
1546.57096 0.00129
1544.52252 0.00126
1542.47408 0.00118
1540.42565 0.00110
1538.37721 0.00113
1536.32877 0.00117
1534.28033 0.00120
1532.23189 0.00118
1530.18345 0.00116
1528.13501 0.00114
1526.08658 0.00113
1524.03814 0.00111
1521.98970 0.00109
1519.94126 0.00113
1517.89282 0.00114
1515.84438 0.00112
1513.79595 0.00111
1511.74751 0.00111
1509.69907 0.00109
1507.65063 0.00105
1505.60219 0.00099
1503.55375 0.00097
1501.50532 0.00098
1499.45688 0.00098
1497.40844 0.00097
1495.36000 0.00099
1493.31156 0.00101
1491.26312 0.00102
1489.21469 0.00100
1487.16625 0.00099
1485.11781 0.00100
1483.06937 0.00101
1481.02093 0.00103
1478.97249 0.00104
1476.92406 0.00103
1474.87562 0.00102
1472.82718 0.00101
1470.77874 0.00099
1468.73030 0.00099
1466.68186 0.00098
1464.63343 0.00097
1462.58499 0.00098
1460.53655 0.00098
1458.48811 0.00096
1456.43967 0.00092
1454.39123 0.00093
1452.34280 0.00095
1450.29436 0.00095
1448.24592 0.00096
1446.19748 0.00098
1444.14904 0.00097
1442.10060 0.00095
1440.05217 0.00094
1438.00373 0.00093
1435.95529 0.00092
1433.90685 0.00089
1431.85841 0.00089
1429.80997 0.00089
1427.76154 0.00090
1425.71310 0.00091
1423.66466 0.00090
1421.61622 0.00090
1419.56778 0.00090
1417.51934 0.00089
1415.47091 0.00089
1413.42247 0.00090
1411.37403 0.00090
1409.32559 0.00090
1407.27715 0.00089
1405.22871 0.00090
1403.18028 0.00090
1401.13184 0.00089
1399.08340 0.00087
1397.03496 0.00084
1394.98652 0.00084
1392.93808 0.00085
1390.88965 0.00087
1388.84121 0.00089
1386.79277 0.00089
1384.74433 0.00086
1382.69589 0.00084
1380.64745 0.00081
1378.59901 0.00079
1376.55058 0.00078
1374.50214 0.00076
1372.45370 0.00073
1370.40526 0.00072
1368.35682 0.00072
1366.30838 0.00072
1364.25995 0.00070
1362.21151 0.00068
1360.16307 0.00068
1358.11463 0.00069
1356.06619 0.00068
1354.01775 0.00066
1351.96932 0.00063
1349.92088 0.00062
1347.87244 0.00062
1345.82400 0.00062
1343.77556 0.00061
1341.72712 0.00060
1339.67869 0.00058
1337.63025 0.00057
1335.58181 0.00058
1333.53337 0.00058
1331.48493 0.00056
1329.43649 0.00054
1327.38806 0.00053
1325.33962 0.00052
1323.29118 0.00051
1321.24274 0.00050
1319.19430 0.00050
1317.14586 0.00052
1315.09743 0.00053
1313.04899 0.00052
1311.00055 0.00050
1308.95211 0.00049
1306.90367 0.00048
1304.85523 0.00046
1302.80680 0.00045
1300.75836 0.00043
1298.70992 0.00043
1296.66148 0.00043
1294.61304 0.00043
1292.56460 0.00043
1290.51617 0.00041
1288.46773 0.00040
1286.41929 0.00038
1284.37085 0.00036
1282.32241 0.00035
1280.27397 0.00035
1278.22554 0.00033
1276.17710 0.00031
1274.12866 0.00028
1272.08022 0.00026
1270.03178 0.00025
1267.98334 0.00024
1265.93491 0.00022
1263.88647 0.00021
1261.83803 0.00021
1259.78959 0.00021
1257.74115 0.00019
1255.69271 0.00019
1253.64428 0.00019
1251.59584 0.00022
1249.54740 0.00023
1247.49896 0.00022
1245.45052 0.00020
1243.40208 0.00018
1241.35364 0.00018
1239.30521 0.00018
1237.25677 0.00018
1235.20833 0.00019
1233.15989 0.00019
1231.11145 0.00019
1229.06301 0.00019
1227.01458 0.00020
1224.96614 0.00022
1222.91770 0.00022
1220.86926 0.00022
1218.82082 0.00022
1216.77238 0.00023
1214.72395 0.00025
1212.67551 0.00027
1210.62707 0.00028
1208.57863 0.00029
1206.53019 0.00032
1204.48175 0.00035
1202.43332 0.00037
1200.38488 0.00038
1198.33644 0.00040
1196.28800 0.00045
1194.23956 0.00051
1192.19112 0.00057
1190.14269 0.00063
1188.09425 0.00069
1186.04581 0.00077
1183.99737 0.00084
1181.94893 0.00091
1179.90049 0.00096
1177.85206 0.00100
1175.80362 0.00105
1173.75518 0.00110
1171.70674 0.00115
1169.65830 0.00121
1167.60986 0.00126
1165.56143 0.00131
1163.51299 0.00135
1161.46455 0.00142
1159.41611 0.00147
1157.36767 0.00151
1155.31923 0.00154
1153.27080 0.00155
1151.22236 0.00156
1149.17392 0.00157
1147.12548 0.00160
1145.07704 0.00161
1143.02860 0.00162
1140.98017 0.00161
1138.93173 0.00162
1136.88329 0.00162
1134.83485 0.00161
1132.78641 0.00161
1130.73797 0.00161
1128.68954 0.00159
1126.64110 0.00158
1124.59266 0.00158
1122.54422 0.00160
1120.49578 0.00162
1118.44734 0.00165
1116.39891 0.00167
1114.35047 0.00168
1112.30203 0.00169
1110.25359 0.00172
1108.20515 0.00173
1106.15671 0.00171
1104.10827 0.00170
1102.05984 0.00167
1100.01140 0.00163
1097.96296 0.00162
1095.91452 0.00163
1093.86608 0.00163
1091.81764 0.00162
1089.76921 0.00162
1087.72077 0.00165
1085.67233 0.00171
1083.62389 0.00177
1081.57545 0.00182
1079.52701 0.00190
1077.47858 0.00201
1075.43014 0.00211
1073.38170 0.00222
1071.33326 0.00237
1069.28482 0.00259
1067.23638 0.00283
1065.18795 0.00307
1063.13951 0.00331
1061.09107 0.00355
1059.04263 0.00380
1056.99419 0.00409
1054.94575 0.00440
1052.89732 0.00470
1050.84888 0.00501
1048.80044 0.00531
1046.75200 0.00557
1044.70356 0.00581
1042.65512 0.00603
1040.60669 0.00621
1038.55825 0.00633
1036.50981 0.00642
1034.46137 0.00648
1032.41293 0.00655
1030.36449 0.00660
1028.31606 0.00664
1026.26762 0.00668
1024.21918 0.00673
1022.17074 0.00677
1020.12230 0.00679
1018.07386 0.00680
1016.02543 0.00678
1013.97699 0.00676
1011.92855 0.00673
1009.88011 0.00670
1007.83167 0.00665
1005.78323 0.00658
1003.73480 0.00647
1001.68636 0.00632
999.63792 0.00616
997.58948 0.00601
995.54104 0.00589
993.49260 0.00576
991.44417 0.00565
989.39573 0.00560
987.34729 0.00557
985.29885 0.00550
983.25041 0.00540
981.20197 0.00531
979.15354 0.00522
977.10510 0.00514
975.05666 0.00507
973.00822 0.00500
970.95978 0.00489
968.91134 0.00477
966.86290 0.00467
964.81447 0.00456
962.76603 0.00443
960.71759 0.00429
958.66915 0.00416
956.62071 0.00404
954.57227 0.00389
952.52384 0.00374
950.47540 0.00363
948.42696 0.00355
946.37852 0.00345
944.33008 0.00335
942.28164 0.00325
940.23321 0.00317
938.18477 0.00309
936.13633 0.00302
934.08789 0.00294
932.03945 0.00286
929.99101 0.00283
927.94258 0.00283
925.89414 0.00283
923.84570 0.00282
921.79726 0.00281
919.74882 0.00281
917.70038 0.00282
915.65195 0.00279
913.60351 0.00275
911.55507 0.00270
909.50663 0.00268
907.45819 0.00270
905.40975 0.00270
903.36132 0.00264
901.31288 0.00257
899.26444 0.00251
897.21600 0.00245
895.16756 0.00238
893.11912 0.00232
891.07069 0.00232
889.02225 0.00233
886.97381 0.00234
884.92537 0.00236
882.87693 0.00238
880.82849 0.00241
878.78006 0.00248
876.73162 0.00255
874.68318 0.00258
872.63474 0.00261
870.58630 0.00264
868.53786 0.00269
866.48943 0.00272
864.44099 0.00270
862.39255 0.00265
860.34411 0.00260
858.29567 0.00251
856.24723 0.00238
854.19880 0.00227
852.15036 0.00217
850.10192 0.00207
848.05348 0.00197
846.00504 0.00186
843.95660 0.00176
841.90817 0.00168
839.85973 0.00161
837.81129 0.00152
835.76285 0.00141
833.71441 0.00135
831.66597 0.00135
829.61753 0.00138
827.56910 0.00142
825.52066 0.00140
823.47222 0.00134
821.42378 0.00132
819.37534 0.00133
817.32690 0.00132
815.27847 0.00127
813.23003 0.00123
811.18159 0.00123
809.13315 0.00120
807.08471 0.00118
805.03627 0.00119
802.98784 0.00119
800.93940 0.00117
798.89096 0.00115
796.84252 0.00113
794.79408 0.00115
792.74564 0.00119
790.69721 0.00121
788.64877 0.00117
786.60033 0.00111
784.55189 0.00108
782.50345 0.00110
780.45501 0.00111
778.40658 0.00109
776.35814 0.00107
774.30970 0.00106
772.26126 0.00099
770.21282 0.00088
768.16438 0.00083
766.11595 0.00083
764.06751 0.00082
762.01907 0.00077
759.97063 0.00067
757.92219 0.00060
755.87375 0.00062
753.82532 0.00070
751.77688 0.00075
749.72844 0.00070
747.68000 0.00059
745.63156 0.00051
743.58312 0.00047
741.53469 0.00047
739.48625 0.00055
737.43781 0.00070
735.38937 0.00083
733.34093 0.00089
731.29249 0.00089
729.24406 0.00084
727.19562 0.00079
725.14718 0.00076
723.09874 0.00075
721.05030 0.00079
719.00186 0.00087
716.95343 0.00089
714.90499 0.00087
712.85655 0.00089
710.80811 0.00093
708.75967 0.00095
706.71123 0.00096
704.66280 0.00099
702.61436 0.00107
700.56592 0.00113
698.51748 0.00114
696.46904 0.00121
694.42060 0.00133
692.37216 0.00129
690.32373 0.00107
688.27529 0.00096
686.22685 0.00102
684.17841 0.00104
682.12997 0.00096
680.08153 0.00075
678.03310 0.00063
675.98466 0.00076
673.93622 0.00096
671.88778 0.00103
669.83934 0.00096
667.79090 0.00077
665.74247 0.00065
663.69403 0.00071
661.64559 0.00087
659.59715 0.00094
657.54871 0.00089
655.50027 0.00096
653.45184 0.00101
651.40340 0.00088
649.35496 0.00090
647.30652 0.00106
645.25808 0.00113
643.20964 0.00118
641.16121 0.00120
639.11277 0.00107
637.06433 0.00108
635.01589 0.00118
632.96745 0.00097
630.91901 0.00079
628.87058 0.00093
626.82214 0.00095
624.77370 0.00080
622.72526 0.00071
620.67682 0.00041
618.62838 0.00001
616.57995 -0.00001
614.53151 0.00035
612.48307 0.00066
610.43463 0.00077
608.38619 0.00084
606.33775 0.00112
604.28932 0.00165
602.24088 0.00177
600.19244 0.00128
598.14400 0.00104
