3996.50324 0.01628
3994.45480 0.01624
3992.40636 0.01621
3990.35792 0.01619
3988.30948 0.01613
3986.26104 0.01611
3984.21261 0.01614
3982.16417 0.01617
3980.11573 0.01618
3978.06729 0.01619
3976.01885 0.01618
3973.97041 0.01613
3971.92198 0.01607
3969.87354 0.01603
3967.82510 0.01603
3965.77666 0.01607
3963.72822 0.01610
3961.67978 0.01606
3959.63135 0.01600
3957.58291 0.01601
3955.53447 0.01604
3953.48603 0.01608
3951.43759 0.01613
3949.38915 0.01605
3947.34072 0.01593
3945.29228 0.01597
3943.24384 0.01598
3941.19540 0.01582
3939.14696 0.01582
3937.09852 0.01599
3935.05009 0.01617
3933.00165 0.01624
3930.95321 0.01604
3928.90477 0.01590
3926.85633 0.01603
3924.80789 0.01608
3922.75946 0.01600
3920.71102 0.01609
3918.66258 0.01614
3916.61414 0.01594
3914.56570 0.01584
3912.51726 0.01597
3910.46883 0.01613
3908.42039 0.01637
3906.37195 0.01670
3904.32351 0.01670
3902.27507 0.01626
3900.22663 0.01592
3898.17820 0.01580
3896.12976 0.01599
3894.08132 0.01642
3892.03288 0.01647
3889.98444 0.01612
3887.93600 0.01625
3885.88756 0.01649
3883.83913 0.01639
3881.79069 0.01640
3879.74225 0.01617
3877.69381 0.01615
3875.64537 0.01656
3873.59693 0.01675
3871.54850 0.01666
3869.50006 0.01627
3867.45162 0.01609
3865.40318 0.01634
3863.35474 0.01624
3861.30630 0.01604
3859.25787 0.01630
3857.20943 0.01689
3855.16099 0.01750
3853.11255 0.01666
3851.06411 0.01548
3849.01567 0.01563
3846.96724 0.01614
3844.91880 0.01656
3842.87036 0.01671
3840.82192 0.01678
3838.77348 0.01665
3836.72504 0.01617
3834.67661 0.01596
3832.62817 0.01597
3830.57973 0.01598
3828.53129 0.01610
3826.48285 0.01620
3824.43441 0.01639
3822.38598 0.01668
3820.33754 0.01626
3818.28910 0.01591
3816.24066 0.01582
3814.19222 0.01552
3812.14378 0.01567
3810.09535 0.01612
3808.04691 0.01633
3805.99847 0.01607
3803.95003 0.01609
3801.90159 0.01607
3799.85315 0.01554
3797.80472 0.01546
3795.75628 0.01547
3793.70784 0.01548
3791.65940 0.01564
3789.61096 0.01575
3787.56252 0.01578
3785.51409 0.01570
3783.46565 0.01554
3781.41721 0.01559
3779.36877 0.01549
3777.32033 0.01519
3775.27189 0.01517
3773.22346 0.01537
3771.17502 0.01547
3769.12658 0.01523
3767.07814 0.01496
3765.02970 0.01483
3762.98126 0.01485
3760.93283 0.01501
3758.88439 0.01487
3756.83595 0.01463
3754.78751 0.01485
3752.73907 0.01515
3750.69063 0.01455
3748.64219 0.01385
3746.59376 0.01406
3744.54532 0.01395
3742.49688 0.01345
3740.44844 0.01356
3738.40000 0.01393
3736.35156 0.01393
3734.30313 0.01324
3732.25469 0.01269
3730.20625 0.01261
3728.15781 0.01271
3726.10937 0.01266
3724.06093 0.01235
3722.01250 0.01201
3719.96406 0.01172
3717.91562 0.01151
3715.86718 0.01142
3713.81874 0.01139
3711.77030 0.01105
3709.72187 0.01037
3707.67343 0.01005
3705.62499 0.00998
3703.57655 0.00994
3701.52811 0.00973
3699.47967 0.00943
3697.43124 0.00924
3695.38280 0.00913
3693.33436 0.00908
3691.28592 0.00901
3689.23748 0.00872
3687.18904 0.00836
3685.14061 0.00821
3683.09217 0.00816
3681.04373 0.00811
3678.99529 0.00805
3676.94685 0.00795
3674.89841 0.00771
3672.84998 0.00756
3670.80154 0.00751
3668.75310 0.00739
3666.70466 0.00725
3664.65622 0.00715
3662.60778 0.00708
3660.55935 0.00704
3658.51091 0.00699
3656.46247 0.00689
3654.41403 0.00679
3652.36559 0.00675
3650.31715 0.00673
3648.26872 0.00657
3646.22028 0.00640
3644.17184 0.00632
3642.12340 0.00630
3640.07496 0.00631
3638.02652 0.00633
3635.97809 0.00635
3633.92965 0.00634
3631.88121 0.00630
3629.83277 0.00623
3627.78433 0.00611
3625.73589 0.00605
3623.68746 0.00603
3621.63902 0.00602
3619.59058 0.00599
3617.54214 0.00597
3615.49370 0.00600
3613.44526 0.00601
3611.39682 0.00601
3609.34839 0.00602
3607.29995 0.00601
3605.25151 0.00599
3603.20307 0.00598
3601.15463 0.00599
3599.10619 0.00600
3597.05776 0.00599
3595.00932 0.00596
3592.96088 0.00594
3590.91244 0.00593
3588.86400 0.00591
3586.81556 0.00590
3584.76713 0.00591
3582.71869 0.00593
3580.67025 0.00593
3578.62181 0.00591
3576.57337 0.00590
3574.52493 0.00589
3572.47650 0.00588
3570.42806 0.00587
3568.37962 0.00588
3566.33118 0.00591
3564.28274 0.00587
3562.23430 0.00583
3560.18587 0.00585
3558.13743 0.00588
3556.08899 0.00587
3554.04055 0.00585
3551.99211 0.00583
3549.94367 0.00580
3547.89524 0.00580
3545.84680 0.00581
3543.79836 0.00578
3541.74992 0.00574
3539.70148 0.00574
3537.65304 0.00577
3535.60461 0.00575
3533.55617 0.00571
3531.50773 0.00574
3529.45929 0.00579
3527.41085 0.00580
3525.36241 0.00577
3523.31398 0.00574
3521.26554 0.00571
3519.21710 0.00568
3517.16866 0.00566
3515.12022 0.00567
3513.07178 0.00568
3511.02335 0.00567
3508.97491 0.00567
3506.92647 0.00569
3504.87803 0.00572
3502.82959 0.00574
3500.78115 0.00572
3498.73272 0.00568
3496.68428 0.00568
3494.63584 0.00570
3492.58740 0.00568
3490.53896 0.00566
3488.49052 0.00565
3486.44209 0.00564
3484.39365 0.00564
3482.34521 0.00562
3480.29677 0.00561
3478.24833 0.00562
3476.19989 0.00563
3474.15146 0.00563
3472.10302 0.00562
3470.05458 0.00559
3468.00614 0.00556
3465.95770 0.00557
3463.90926 0.00561
3461.86082 0.00562
3459.81239 0.00562
3457.76395 0.00561
3455.71551 0.00559
3453.66707 0.00555
3451.61863 0.00553
3449.57019 0.00556
3447.52176 0.00560
3445.47332 0.00561
3443.42488 0.00558
3441.37644 0.00556
3439.32800 0.00555
3437.27956 0.00554
3435.23113 0.00554
3433.18269 0.00555
3431.13425 0.00552
3429.08581 0.00546
3427.03737 0.00545
3424.98893 0.00547
3422.94050 0.00546
3420.89206 0.00542
3418.84362 0.00540
3416.79518 0.00538
3414.74674 0.00539
3412.69830 0.00545
3410.64987 0.00548
3408.60143 0.00545
3406.55299 0.00542
3404.50455 0.00544
3402.45611 0.00547
3400.40767 0.00547
3398.35924 0.00546
3396.31080 0.00547
3394.26236 0.00547
3392.21392 0.00544
3390.16548 0.00544
3388.11704 0.00545
3386.06861 0.00545
3384.02017 0.00544
3381.97173 0.00543
3379.92329 0.00543
3377.87485 0.00545
3375.82641 0.00549
3373.77798 0.00550
3371.72954 0.00550
3369.68110 0.00552
3367.63266 0.00554
3365.58422 0.00554
3363.53578 0.00553
3361.48735 0.00553
3359.43891 0.00556
3357.39047 0.00559
3355.34203 0.00558
3353.29359 0.00557
3351.24515 0.00558
3349.19672 0.00560
3347.14828 0.00561
3345.09984 0.00561
3343.05140 0.00564
3341.00296 0.00566
3338.95452 0.00567
3336.90609 0.00567
3334.85765 0.00570
3332.80921 0.00575
3330.76077 0.00578
3328.71233 0.00580
3326.66389 0.00582
3324.61545 0.00581
3322.56702 0.00581
3320.51858 0.00582
3318.47014 0.00584
3316.42170 0.00587
3314.37326 0.00592
3312.32482 0.00595
3310.27639 0.00595
3308.22795 0.00594
3306.17951 0.00595
3304.13107 0.00598
3302.08263 0.00601
3300.03419 0.00602
3297.98576 0.00603
3295.93732 0.00605
3293.88888 0.00607
3291.84044 0.00609
3289.79200 0.00608
3287.74356 0.00606
3285.69513 0.00607
3283.64669 0.00609
3281.59825 0.00610
3279.54981 0.00610
3277.50137 0.00612
3275.45293 0.00613
3273.40450 0.00610
3271.35606 0.00609
3269.30762 0.00609
3267.25918 0.00609
3265.21074 0.00612
3263.16230 0.00614
3261.11387 0.00613
3259.06543 0.00609
3257.01699 0.00608
3254.96855 0.00611
3252.92011 0.00614
3250.87167 0.00616
3248.82324 0.00619
3246.77480 0.00617
3244.72636 0.00615
3242.67792 0.00616
3240.62948 0.00618
3238.58104 0.00620
3236.53261 0.00622
3234.48417 0.00622
3232.43573 0.00620
3230.38729 0.00620
3228.33885 0.00620
3226.29041 0.00618
3224.24198 0.00617
3222.19354 0.00620
3220.14510 0.00625
3218.09666 0.00628
3216.04822 0.00628
3213.99978 0.00628
3211.95135 0.00629
3209.90291 0.00627
3207.85447 0.00625
3205.80603 0.00626
3203.75759 0.00629
3201.70915 0.00632
3199.66072 0.00632
3197.61228 0.00632
3195.56384 0.00633
3193.51540 0.00633
3191.46696 0.00632
3189.41852 0.00633
3187.37008 0.00635
3185.32165 0.00636
3183.27321 0.00637
3181.22477 0.00637
3179.17633 0.00637
3177.12789 0.00638
3175.07945 0.00639
3173.03102 0.00640
3170.98258 0.00642
3168.93414 0.00644
3166.88570 0.00645
3164.83726 0.00645
3162.78882 0.00643
3160.74039 0.00644
3158.69195 0.00646
3156.64351 0.00645
3154.59507 0.00644
3152.54663 0.00644
3150.49819 0.00642
3148.44976 0.00641
3146.40132 0.00644
3144.35288 0.00647
3142.30444 0.00648
3140.25600 0.00647
3138.20756 0.00645
3136.15913 0.00644
3134.11069 0.00646
3132.06225 0.00648
3130.01381 0.00648
3127.96537 0.00647
3125.91693 0.00648
3123.86850 0.00648
3121.82006 0.00646
3119.77162 0.00644
3117.72318 0.00644
3115.67474 0.00646
3113.62630 0.00649
3111.57787 0.00650
3109.52943 0.00650
3107.48099 0.00649
3105.43255 0.00648
3103.38411 0.00648
3101.33567 0.00650
3099.28724 0.00653
3097.23880 0.00656
3095.19036 0.00657
3093.14192 0.00657
3091.09348 0.00656
3089.04504 0.00654
3086.99661 0.00657
3084.94817 0.00662
3082.89973 0.00661
3080.85129 0.00658
3078.80285 0.00658
3076.75441 0.00661
3074.70598 0.00664
3072.65754 0.00665
3070.60910 0.00667
3068.56066 0.00669
3066.51222 0.00670
3064.46378 0.00671
3062.41535 0.00671
3060.36691 0.00672
3058.31847 0.00674
3056.27003 0.00677
3054.22159 0.00679
3052.17315 0.00677
3050.12471 0.00677
3048.07628 0.00679
3046.02784 0.00683
3043.97940 0.00687
3041.93096 0.00690
3039.88252 0.00692
3037.83408 0.00694
3035.78565 0.00697
3033.73721 0.00700
3031.68877 0.00705
3029.64033 0.00708
3027.59189 0.00708
3025.54345 0.00707
3023.49502 0.00708
3021.44658 0.00710
3019.39814 0.00713
3017.34970 0.00717
3015.30126 0.00720
3013.25282 0.00721
3011.20439 0.00722
3009.15595 0.00722
3007.10751 0.00723
3005.05907 0.00727
3003.01063 0.00733
3000.96219 0.00736
2998.91376 0.00739
2996.86532 0.00741
2994.81688 0.00742
2992.76844 0.00742
2990.72000 0.00742
2988.67156 0.00740
2986.62313 0.00739
2984.57469 0.00738
2982.52625 0.00740
2980.47781 0.00742
2978.42937 0.00739
2976.38093 0.00733
2974.33250 0.00730
2972.28406 0.00725
2970.23562 0.00717
2968.18718 0.00709
2966.13874 0.00701
2964.09030 0.00693
2962.04187 0.00687
2959.99343 0.00682
2957.94499 0.00677
2955.89655 0.00672
2953.84811 0.00671
2951.79967 0.00673
2949.75124 0.00675
2947.70280 0.00679
2945.65436 0.00685
2943.60592 0.00687
2941.55748 0.00683
2939.50904 0.00674
2937.46061 0.00665
2935.41217 0.00657
2933.36373 0.00648
2931.31529 0.00639
2929.26685 0.00630
2927.21841 0.00624
2925.16998 0.00621
2923.12154 0.00623
2921.07310 0.00627
2919.02466 0.00634
2916.97622 0.00643
2914.92778 0.00650
2912.87934 0.00657
2910.83091 0.00665
2908.78247 0.00672
2906.73403 0.00679
2904.68559 0.00686
2902.63715 0.00691
2900.58871 0.00698
2898.54028 0.00705
2896.49184 0.00712
2894.44340 0.00721
2892.39496 0.00728
2890.34652 0.00734
2888.29808 0.00743
2886.24965 0.00755
2884.20121 0.00761
2882.15277 0.00764
2880.10433 0.00765
2878.05589 0.00762
2876.00745 0.00757
2873.95902 0.00752
2871.91058 0.00748
2869.86214 0.00744
2867.81370 0.00743
2865.76526 0.00742
2863.71682 0.00737
2861.66839 0.00727
2859.61995 0.00717
2857.57151 0.00707
2855.52307 0.00698
2853.47463 0.00694
2851.42619 0.00696
2849.37776 0.00706
2847.32932 0.00724
2845.28088 0.00747
2843.23244 0.00774
2841.18400 0.00799
2839.13556 0.00823
2837.08713 0.00848
2835.03869 0.00871
2832.99025 0.00889
2830.94181 0.00905
2828.89337 0.00919
2826.84493 0.00931
2824.79650 0.00940
2822.74806 0.00949
2820.69962 0.00961
2818.65118 0.00971
2816.60274 0.00980
2814.55430 0.00986
2812.50587 0.00990
2810.45743 0.00994
2808.40899 0.01000
2806.36055 0.01007
2804.31211 0.01012
2802.26367 0.01015
2800.21524 0.01019
2798.16680 0.01024
2796.11836 0.01031
2794.06992 0.01039
2792.02148 0.01044
2789.97304 0.01049
2787.92461 0.01054
2785.87617 0.01060
2783.82773 0.01067
2781.77929 0.01072
2779.73085 0.01074
2777.68241 0.01076
2775.63397 0.01081
2773.58554 0.01085
2771.53710 0.01090
2769.48866 0.01096
2767.44022 0.01101
2765.39178 0.01104
2763.34334 0.01109
2761.29491 0.01114
2759.24647 0.01116
2757.19803 0.01118
2755.14959 0.01122
2753.10115 0.01125
2751.05271 0.01128
2749.00428 0.01133
2746.95584 0.01139
2744.90740 0.01140
2742.85896 0.01142
2740.81052 0.01149
2738.76208 0.01155
2736.71365 0.01158
2734.66521 0.01160
2732.61677 0.01161
2730.56833 0.01163
2728.51989 0.01165
2726.47145 0.01167
2724.42302 0.01174
2722.37458 0.01181
2720.32614 0.01185
2718.27770 0.01186
2716.22926 0.01189
2714.18082 0.01195
2712.13239 0.01200
2710.08395 0.01203
2708.03551 0.01205
2705.98707 0.01207
2703.93863 0.01210
2701.89019 0.01214
2699.84176 0.01216
2697.79332 0.01218
2695.74488 0.01220
2693.69644 0.01223
2691.64800 0.01227
2689.59956 0.01230
2687.55113 0.01231
2685.50269 0.01231
2683.45425 0.01231
2681.40581 0.01233
2679.35737 0.01235
2677.30893 0.01235
2675.26050 0.01236
2673.21206 0.01237
2671.16362 0.01237
2669.11518 0.01239
2667.06674 0.01243
2665.01830 0.01246
2662.96987 0.01247
2660.92143 0.01247
2658.87299 0.01248
2656.82455 0.01249
2654.77611 0.01249
2652.72767 0.01250
2650.67924 0.01253
2648.63080 0.01256
2646.58236 0.01257
2644.53392 0.01259
2642.48548 0.01260
2640.43704 0.01258
2638.38860 0.01258
2636.34017 0.01259
2634.29173 0.01258
2632.24329 0.01258
2630.19485 0.01257
2628.14641 0.01256
2626.09797 0.01258
2624.04954 0.01259
2622.00110 0.01258
2619.95266 0.01256
2617.90422 0.01253
2615.85578 0.01248
2613.80734 0.01247
2611.75891 0.01247
2609.71047 0.01245
2607.66203 0.01240
2605.61359 0.01234
2603.56515 0.01231
2601.51671 0.01228
2599.46828 0.01227
2597.41984 0.01224
2595.37140 0.01221
2593.32296 0.01218
2591.27452 0.01212
2589.22608 0.01203
2587.17765 0.01197
2585.12921 0.01193
2583.08077 0.01188
2581.03233 0.01176
2578.98389 0.01162
2576.93545 0.01150
2574.88702 0.01143
2572.83858 0.01136
2570.79014 0.01124
2568.74170 0.01108
2566.69326 0.01091
2564.64482 0.01077
2562.59639 0.01072
2560.54795 0.01079
2558.49951 0.01097
2556.45107 0.01117
2554.40263 0.01138
2552.35419 0.01156
2550.30576 0.01169
2548.25732 0.01178
2546.20888 0.01185
2544.16044 0.01191
2542.11200 0.01197
2540.06356 0.01201
2538.01513 0.01201
2535.96669 0.01199
2533.91825 0.01196
2531.86981 0.01185
2529.82137 0.01169
2527.77293 0.01152
2525.72450 0.01140
2523.67606 0.01132
2521.62762 0.01127
2519.57918 0.01126
2517.53074 0.01130
2515.48230 0.01136
2513.43387 0.01143
2511.38543 0.01151
2509.33699 0.01160
2507.28855 0.01170
2505.24011 0.01181
2503.19167 0.01193
2501.14324 0.01205
2499.09480 0.01217
2497.04636 0.01230
2494.99792 0.01242
2492.94948 0.01253
2490.90104 0.01262
2488.85260 0.01268
2486.80417 0.01274
2484.75573 0.01280
2482.70729 0.01286
2480.65885 0.01291
2478.61041 0.01295
2476.56197 0.01298
2474.51354 0.01302
2472.46510 0.01304
2470.41666 0.01306
2468.36822 0.01308
2466.31978 0.01309
2464.27134 0.01309
2462.22291 0.01310
2460.17447 0.01309
2458.12603 0.01308
2456.07759 0.01309
2454.02915 0.01312
2451.98071 0.01313
2449.93228 0.01312
2447.88384 0.01311
2445.83540 0.01310
2443.78696 0.01309
2441.73852 0.01311
2439.69008 0.01314
2437.64165 0.01314
2435.59321 0.01314
2433.54477 0.01314
2431.49633 0.01313
2429.44789 0.01313
2427.39945 0.01314
2425.35102 0.01314
2423.30258 0.01311
2421.25414 0.01308
2419.20570 0.01306
2417.15726 0.01305
2415.10882 0.01303
2413.06039 0.01302
2411.01195 0.01302
2408.96351 0.01302
2406.91507 0.01301
2404.86663 0.01302
2402.81819 0.01302
2400.76976 0.01298
2398.72132 0.01294
2396.67288 0.01294
2394.62444 0.01293
2392.57600 0.01292
2390.52756 0.01289
2388.47913 0.01285
2386.43069 0.01285
2384.38225 0.01289
2382.33381 0.01295
2380.28537 0.01300
2378.23693 0.01308
2376.18850 0.01317
2374.14006 0.01324
2372.09162 0.01330
2370.04318 0.01330
2367.99474 0.01327
2365.94630 0.01331
2363.89787 0.01338
2361.84943 0.01335
2359.80099 0.01312
2357.75255 0.01280
2355.70411 0.01247
2353.65567 0.01214
2351.60723 0.01195
2349.55880 0.01200
2347.51036 0.01221
2345.46192 0.01240
2343.41348 0.01239
2341.36504 0.01227
2339.31660 0.01216
2337.26817 0.01209
2335.21973 0.01198
2333.17129 0.01182
2331.12285 0.01164
2329.07441 0.01145
2327.02597 0.01132
2324.97754 0.01128
2322.92910 0.01127
2320.88066 0.01121
2318.83222 0.01115
2316.78378 0.01111
2314.73534 0.01107
2312.68691 0.01097
2310.63847 0.01088
2308.59003 0.01081
2306.54159 0.01075
2304.49315 0.01073
2302.44471 0.01072
2300.39628 0.01065
2298.34784 0.01057
2296.29940 0.01052
2294.25096 0.01049
2292.20252 0.01048
2290.15408 0.01045
2288.10565 0.01041
2286.05721 0.01037
2284.00877 0.01034
2281.96033 0.01030
2279.91189 0.01026
2277.86345 0.01023
2275.81502 0.01020
2273.76658 0.01016
2271.71814 0.01013
2269.66970 0.01010
2267.62126 0.01009
2265.57282 0.01007
2263.52439 0.01003
2261.47595 0.01000
2259.42751 0.00999
2257.37907 0.00997
2255.33063 0.00994
2253.28219 0.00990
2251.23376 0.00987
2249.18532 0.00981
2247.13688 0.00976
2245.08844 0.00972
2243.04000 0.00970
2240.99156 0.00967
2238.94313 0.00965
2236.89469 0.00962
2234.84625 0.00960
2232.79781 0.00959
2230.74937 0.00956
2228.70093 0.00952
2226.65250 0.00948
2224.60406 0.00945
2222.55562 0.00942
2220.50718 0.00938
2218.45874 0.00933
2216.41030 0.00928
2214.36186 0.00922
2212.31343 0.00916
2210.26499 0.00911
2208.21655 0.00905
2206.16811 0.00897
2204.11967 0.00889
2202.07123 0.00883
2200.02280 0.00877
2197.97436 0.00871
2195.92592 0.00864
2193.87748 0.00858
2191.82904 0.00850
2189.78060 0.00841
2187.73217 0.00834
2185.68373 0.00827
2183.63529 0.00818
2181.58685 0.00806
2179.53841 0.00794
2177.48997 0.00784
2175.44154 0.00773
2173.39310 0.00763
2171.34466 0.00753
2169.29622 0.00743
2167.24778 0.00733
2165.19934 0.00723
2163.15091 0.00716
2161.10247 0.00711
2159.05403 0.00704
2157.00559 0.00697
2154.95715 0.00691
2152.90871 0.00685
2150.86028 0.00682
2148.81184 0.00679
2146.76340 0.00677
2144.71496 0.00673
2142.66652 0.00668
2140.61808 0.00665
2138.56965 0.00662
2136.52121 0.00660
2134.47277 0.00657
2132.42433 0.00653
2130.37589 0.00650
2128.32745 0.00648
2126.27902 0.00646
2124.23058 0.00645
2122.18214 0.00642
2120.13370 0.00639
2118.08526 0.00637
2116.03682 0.00635
2113.98839 0.00632
2111.93995 0.00630
2109.89151 0.00631
2107.84307 0.00633
2105.79463 0.00633
2103.74619 0.00633
2101.69776 0.00632
2099.64932 0.00631
2097.60088 0.00630
2095.55244 0.00627
2093.50400 0.00626
2091.45556 0.00625
2089.40713 0.00623
2087.35869 0.00620
2085.31025 0.00617
2083.26181 0.00617
2081.21337 0.00617
2079.16493 0.00617
2077.11649 0.00615
2075.06806 0.00614
2073.01962 0.00613
2070.97118 0.00612
2068.92274 0.00612
2066.87430 0.00612
2064.82586 0.00609
2062.77743 0.00607
2060.72899 0.00607
2058.68055 0.00609
2056.63211 0.00610
2054.58367 0.00610
2052.53523 0.00609
2050.48680 0.00608
2048.43836 0.00608
2046.38992 0.00609
2044.34148 0.00610
2042.29304 0.00610
2040.24460 0.00609
2038.19617 0.00609
2036.14773 0.00610
2034.09929 0.00610
2032.05085 0.00610
2030.00241 0.00611
2027.95397 0.00612
2025.90554 0.00611
2023.85710 0.00609
2021.80866 0.00607
2019.76022 0.00607
2017.71178 0.00605
2015.66334 0.00602
2013.61491 0.00602
2011.56647 0.00603
2009.51803 0.00602
2007.46959 0.00601
2005.42115 0.00600
2003.37271 0.00600
2001.32428 0.00598
1999.27584 0.00596
1997.22740 0.00593
1995.17896 0.00588
1993.13052 0.00583
1991.08208 0.00580
1989.03365 0.00577
1986.98521 0.00572
1984.93677 0.00567
1982.88833 0.00564
1980.83989 0.00562
1978.79145 0.00560
1976.74302 0.00558
1974.69458 0.00559
1972.64614 0.00561
1970.59770 0.00564
1968.54926 0.00568
1966.50082 0.00570
1964.45239 0.00571
1962.40395 0.00574
1960.35551 0.00577
1958.30707 0.00580
1956.25863 0.00583
1954.21019 0.00586
1952.16176 0.00589
1950.11332 0.00592
1948.06488 0.00596
1946.01644 0.00601
1943.96800 0.00606
1941.91956 0.00610
1939.87112 0.00615
1937.82269 0.00620
1935.77425 0.00624
1933.72581 0.00629
1931.67737 0.00634
1929.62893 0.00638
1927.58049 0.00640
1925.53206 0.00645
1923.48362 0.00650
1921.43518 0.00653
1919.38674 0.00656
1917.33830 0.00659
1915.28986 0.00662
1913.24143 0.00664
1911.19299 0.00666
1909.14455 0.00666
1907.09611 0.00665
1905.04767 0.00665
1902.99923 0.00665
1900.95080 0.00665
1898.90236 0.00662
1896.85392 0.00659
1894.80548 0.00658
1892.75704 0.00658
1890.70860 0.00657
1888.66017 0.00656
1886.61173 0.00656
1884.56329 0.00658
1882.51485 0.00661
1880.46641 0.00660
1878.41797 0.00658
1876.36954 0.00655
1874.32110 0.00656
1872.27266 0.00658
1870.22422 0.00659
1868.17578 0.00656
1866.12734 0.00652
1864.07891 0.00652
1862.03047 0.00653
1859.98203 0.00652
1857.93359 0.00650
1855.88515 0.00649
1853.83671 0.00647
1851.78828 0.00647
1849.73984 0.00648
1847.69140 0.00651
1845.64296 0.00653
1843.59452 0.00647
1841.54608 0.00639
1839.49765 0.00637
1837.44921 0.00636
1835.40077 0.00636
1833.35233 0.00640
1831.30389 0.00643
1829.25545 0.00638
1827.20702 0.00632
1825.15858 0.00629
1823.11014 0.00624
1821.06170 0.00620
1819.01326 0.00618
1816.96482 0.00618
1814.91639 0.00617
1812.86795 0.00615
1810.81951 0.00610
1808.77107 0.00603
1806.72263 0.00596
1804.67419 0.00590
1802.62575 0.00587
1800.57732 0.00583
1798.52888 0.00577
1796.48044 0.00572
1794.43200 0.00568
1792.38356 0.00562
1790.33512 0.00552
1788.28669 0.00547
1786.23825 0.00544
1784.18981 0.00537
1782.14137 0.00530
1780.09293 0.00523
1778.04449 0.00515
1775.99606 0.00511
1773.94762 0.00510
1771.89918 0.00504
1769.85074 0.00490
1767.80230 0.00477
1765.75386 0.00468
1763.70543 0.00463
1761.65699 0.00455
1759.60855 0.00447
1757.56011 0.00441
1755.51167 0.00435
1753.46323 0.00432
1751.41480 0.00430
1749.36636 0.00422
1747.31792 0.00415
1745.26948 0.00408
1743.22104 0.00400
1741.17260 0.00393
1739.12417 0.00388
1737.07573 0.00387
1735.02729 0.00386
1732.97885 0.00375
1730.93041 0.00366
1728.88197 0.00360
1726.83354 0.00357
1724.78510 0.00356
1722.73666 0.00357
1720.68822 0.00358
1718.63978 0.00357
1716.59134 0.00351
1714.54291 0.00343
1712.49447 0.00340
1710.44603 0.00339
1708.39759 0.00339
1706.34915 0.00339
1704.30071 0.00338
1702.25228 0.00338
1700.20384 0.00340
1698.15540 0.00336
1696.10696 0.00328
1694.05852 0.00324
1692.01008 0.00324
1689.96165 0.00323
1687.91321 0.00322
1685.86477 0.00321
1683.81633 0.00319
1681.76789 0.00321
1679.71945 0.00323
1677.67102 0.00323
1675.62258 0.00319
1673.57414 0.00313
1671.52570 0.00310
1669.47726 0.00308
1667.42882 0.00307
1665.38038 0.00308
1663.33195 0.00310
1661.28351 0.00313
1659.23507 0.00313
1657.18663 0.00312
1655.13819 0.00309
1653.08975 0.00307
1651.04132 0.00307
1648.99288 0.00307
1646.94444 0.00304
1644.89600 0.00300
1642.84756 0.00300
1640.79912 0.00303
1638.75069 0.00308
1636.70225 0.00314
1634.65381 0.00310
1632.60537 0.00306
1630.55693 0.00307
1628.50849 0.00308
1626.46006 0.00306
1624.41162 0.00306
1622.36318 0.00308
1620.31474 0.00312
1618.26630 0.00315
1616.21786 0.00317
1614.16943 0.00317
1612.12099 0.00314
1610.07255 0.00313
1608.02411 0.00312
1605.97567 0.00314
1603.92723 0.00316
1601.87880 0.00318
1599.83036 0.00321
1597.78192 0.00324
1595.73348 0.00326
1593.68504 0.00327
1591.63660 0.00326
1589.58817 0.00324
1587.53973 0.00322
1585.49129 0.00321
1583.44285 0.00319
1581.39441 0.00318
1579.34597 0.00318
1577.29754 0.00318
1575.24910 0.00319
1573.20066 0.00321
1571.15222 0.00321
1569.10378 0.00317
1567.05534 0.00313
1565.00691 0.00315
1562.95847 0.00318
1560.91003 0.00320
1558.86159 0.00316
1556.81315 0.00312
1554.76471 0.00313
1552.71628 0.00313
1550.66784 0.00311
1548.61940 0.00310
1546.57096 0.00309
1544.52252 0.00308
1542.47408 0.00310
1540.42565 0.00311
1538.37721 0.00303
1536.32877 0.00298
1534.28033 0.00297
1532.23189 0.00296
1530.18345 0.00297
1528.13501 0.00297
1526.08658 0.00296
1524.03814 0.00293
1521.98970 0.00289
1519.94126 0.00288
1517.89282 0.00290
1515.84438 0.00288
1513.79595 0.00284
1511.74751 0.00285
1509.69907 0.00287
1507.65063 0.00284
1505.60219 0.00277
1503.55375 0.00279
1501.50532 0.00284
1499.45688 0.00286
1497.40844 0.00286
1495.36000 0.00283
1493.31156 0.00281
1491.26312 0.00279
1489.21469 0.00276
1487.16625 0.00271
1485.11781 0.00270
1483.06937 0.00270
1481.02093 0.00267
1478.97249 0.00265
1476.92406 0.00265
1474.87562 0.00264
1472.82718 0.00260
1470.77874 0.00256
1468.73030 0.00256
1466.68186 0.00256
1464.63343 0.00256
1462.58499 0.00256
1460.53655 0.00258
1458.48811 0.00261
1456.43967 0.00254
1454.39123 0.00247
1452.34280 0.00246
1450.29436 0.00247
1448.24592 0.00247
1446.19748 0.00245
1444.14904 0.00244
1442.10060 0.00243
1440.05217 0.00242
1438.00373 0.00241
1435.95529 0.00239
1433.90685 0.00237
1431.85841 0.00235
1429.80997 0.00234
1427.76154 0.00234
1425.71310 0.00235
1423.66466 0.00235
1421.61622 0.00234
1419.56778 0.00230
1417.51934 0.00226
1415.47091 0.00224
1413.42247 0.00222
1411.37403 0.00221
1409.32559 0.00220
1407.27715 0.00219
1405.22871 0.00217
1403.18028 0.00213
1401.13184 0.00211
1399.08340 0.00207
1397.03496 0.00204
1394.98652 0.00204
1392.93808 0.00203
1390.88965 0.00202
1388.84121 0.00199
1386.79277 0.00193
1384.74433 0.00190
1382.69589 0.00189
1380.64745 0.00188
1378.59901 0.00186
1376.55058 0.00183
1374.50214 0.00180
1372.45370 0.00179
1370.40526 0.00179
1368.35682 0.00177
1366.30838 0.00176
1364.25995 0.00174
1362.21151 0.00173
1360.16307 0.00171
1358.11463 0.00169
1356.06619 0.00168
1354.01775 0.00167
1351.96932 0.00168
1349.92088 0.00168
1347.87244 0.00166
1345.82400 0.00163
1343.77556 0.00164
1341.72712 0.00164
1339.67869 0.00163
1337.63025 0.00160
1335.58181 0.00157
1333.53337 0.00155
1331.48493 0.00154
1329.43649 0.00153
1327.38806 0.00151
1325.33962 0.00150
1323.29118 0.00149
1321.24274 0.00146
1319.19430 0.00143
1317.14586 0.00140
1315.09743 0.00139
1313.04899 0.00139
1311.00055 0.00139
1308.95211 0.00138
1306.90367 0.00136
1304.85523 0.00134
1302.80680 0.00130
1300.75836 0.00126
1298.70992 0.00122
1296.66148 0.00118
1294.61304 0.00116
1292.56460 0.00112
1290.51617 0.00109
1288.46773 0.00107
1286.41929 0.00104
1284.37085 0.00100
1282.32241 0.00097
1280.27397 0.00093
1278.22554 0.00088
1276.17710 0.00085
1274.12866 0.00084
1272.08022 0.00082
1270.03178 0.00080
1267.98334 0.00078
1265.93491 0.00076
1263.88647 0.00075
1261.83803 0.00073
1259.78959 0.00071
1257.74115 0.00068
1255.69271 0.00067
1253.64428 0.00067
1251.59584 0.00067
1249.54740 0.00065
1247.49896 0.00062
1245.45052 0.00059
1243.40208 0.00058
1241.35364 0.00059
1239.30521 0.00059
1237.25677 0.00058
1235.20833 0.00057
1233.15989 0.00058
1231.11145 0.00060
1229.06301 0.00061
1227.01458 0.00059
1224.96614 0.00058
1222.91770 0.00058
1220.86926 0.00058
1218.82082 0.00057
1216.77238 0.00057
1214.72395 0.00059
1212.67551 0.00062
1210.62707 0.00067
1208.57863 0.00070
1206.53019 0.00073
1204.48175 0.00077
1202.43332 0.00083
1200.38488 0.00089
1198.33644 0.00095
1196.28800 0.00105
1194.23956 0.00117
1192.19112 0.00132
1190.14269 0.00147
1188.09425 0.00164
1186.04581 0.00183
1183.99737 0.00204
1181.94893 0.00224
1179.90049 0.00242
1177.85206 0.00260
1175.80362 0.00276
1173.75518 0.00289
1171.70674 0.00301
1169.65830 0.00315
1167.60986 0.00328
1165.56143 0.00341
1163.51299 0.00355
1161.46455 0.00368
1159.41611 0.00379
1157.36767 0.00391
1155.31923 0.00403
1153.27080 0.00413
1151.22236 0.00423
1149.17392 0.00434
1147.12548 0.00443
1145.07704 0.00452
1143.02860 0.00460
1140.98017 0.00467
1138.93173 0.00474
1136.88329 0.00479
1134.83485 0.00482
1132.78641 0.00484
1130.73797 0.00487
1128.68954 0.00491
1126.64110 0.00498
1124.59266 0.00505
1122.54422 0.00511
1120.49578 0.00517
1118.44734 0.00524
1116.39891 0.00528
1114.35047 0.00532
1112.30203 0.00536
1110.25359 0.00539
1108.20515 0.00541
1106.15671 0.00544
1104.10827 0.00545
1102.05984 0.00544
1100.01140 0.00543
1097.96296 0.00545
1095.91452 0.00548
1093.86608 0.00551
1091.81764 0.00555
1089.76921 0.00560
1087.72077 0.00570
1085.67233 0.00586
1083.62389 0.00605
1081.57545 0.00626
1079.52701 0.00652
1077.47858 0.00681
1075.43014 0.00715
1073.38170 0.00752
1071.33326 0.00794
1069.28482 0.00841
1067.23638 0.00893
1065.18795 0.00952
1063.13951 0.01016
1061.09107 0.01085
1059.04263 0.01160
1056.99419 0.01237
1054.94575 0.01317
1052.89732 0.01398
1050.84888 0.01478
1048.80044 0.01558
1046.75200 0.01635
1044.70356 0.01705
1042.65512 0.01769
1040.60669 0.01828
1038.55825 0.01880
1036.50981 0.01920
1034.46137 0.01952
1032.41293 0.01978
1030.36449 0.02001
1028.31606 0.02024
1026.26762 0.02046
1024.21918 0.02068
1022.17074 0.02090
1020.12230 0.02108
1018.07386 0.02123
1016.02543 0.02136
1013.97699 0.02144
1011.92855 0.02144
1009.88011 0.02135
1007.83167 0.02118
1005.78323 0.02095
1003.73480 0.02065
1001.68636 0.02027
999.63792 0.01986
997.58948 0.01946
995.54104 0.01909
993.49260 0.01878
991.44417 0.01852
989.39573 0.01830
987.34729 0.01815
985.29885 0.01804
983.25041 0.01794
981.20197 0.01784
979.15354 0.01769
977.10510 0.01746
975.05666 0.01716
973.00822 0.01684
970.95978 0.01652
968.91134 0.01621
966.86290 0.01591
964.81447 0.01556
962.76603 0.01519
960.71759 0.01478
958.66915 0.01436
956.62071 0.01393
954.57227 0.01354
952.52384 0.01321
950.47540 0.01294
948.42696 0.01267
946.37852 0.01234
944.33008 0.01195
942.28164 0.01154
940.23321 0.01117
938.18477 0.01084
936.13633 0.01059
934.08789 0.01044
932.03945 0.01044
929.99101 0.01056
927.94258 0.01073
925.89414 0.01085
923.84570 0.01090
921.79726 0.01091
919.74882 0.01093
917.70038 0.01092
915.65195 0.01087
913.60351 0.01076
911.55507 0.01063
909.50663 0.01050
907.45819 0.01039
905.40975 0.01026
903.36132 0.01015
901.31288 0.01006
899.26444 0.01000
897.21600 0.00993
895.16756 0.00985
893.11912 0.00978
891.07069 0.00972
889.02225 0.00964
886.97381 0.00956
884.92537 0.00950
882.87693 0.00942
880.82849 0.00932
878.78006 0.00922
876.73162 0.00912
874.68318 0.00903
872.63474 0.00894
870.58630 0.00881
868.53786 0.00867
866.48943 0.00857
864.44099 0.00850
862.39255 0.00841
860.34411 0.00825
858.29567 0.00805
856.24723 0.00784
854.19880 0.00757
852.15036 0.00726
850.10192 0.00694
848.05348 0.00668
846.00504 0.00643
843.95660 0.00617
841.90817 0.00594
839.85973 0.00573
837.81129 0.00554
835.76285 0.00540
833.71441 0.00529
831.66597 0.00521
829.61753 0.00514
827.56910 0.00508
825.52066 0.00499
823.47222 0.00485
821.42378 0.00472
819.37534 0.00461
817.32690 0.00453
815.27847 0.00449
813.23003 0.00446
811.18159 0.00442
809.13315 0.00440
807.08471 0.00441
805.03627 0.00437
802.98784 0.00433
800.93940 0.00434
798.89096 0.00435
796.84252 0.00434
794.79408 0.00430
792.74564 0.00424
790.69721 0.00421
788.64877 0.00418
786.60033 0.00414
784.55189 0.00408
782.50345 0.00404
780.45501 0.00399
778.40658 0.00390
776.35814 0.00382
774.30970 0.00374
772.26126 0.00363
770.21282 0.00351
768.16438 0.00343
766.11595 0.00331
764.06751 0.00309
762.01907 0.00285
759.97063 0.00270
757.92219 0.00264
755.87375 0.00258
753.82532 0.00251
751.77688 0.00248
749.72844 0.00245
747.68000 0.00238
745.63156 0.00228
743.58312 0.00222
741.53469 0.00220
739.48625 0.00222
737.43781 0.00237
735.38937 0.00261
733.34093 0.00277
731.29249 0.00283
729.24406 0.00292
727.19562 0.00303
725.14718 0.00305
723.09874 0.00301
721.05030 0.00300
719.00186 0.00297
716.95343 0.00293
714.90499 0.00294
712.85655 0.00300
710.80811 0.00311
708.75967 0.00322
706.71123 0.00337
704.66280 0.00357
702.61436 0.00373
700.56592 0.00378
698.51748 0.00376
696.46904 0.00382
694.42060 0.00392
692.37216 0.00385
690.32373 0.00372
688.27529 0.00367
686.22685 0.00357
684.17841 0.00335
682.12997 0.00309
680.08153 0.00298
678.03310 0.00302
675.98466 0.00298
673.93622 0.00281
671.88778 0.00273
669.83934 0.00291
667.79090 0.00302
665.74247 0.00287
663.69403 0.00297
661.64559 0.00318
659.59715 0.00318
657.54871 0.00307
655.50027 0.00306
653.45184 0.00308
651.40340 0.00311
649.35496 0.00313
647.30652 0.00314
645.25808 0.00323
643.20964 0.00334
641.16121 0.00336
639.11277 0.00332
637.06433 0.00327
635.01589 0.00333
632.96745 0.00330
630.91901 0.00290
628.87058 0.00232
626.82214 0.00204
624.77370 0.00237
622.72526 0.00309
620.67682 0.00339
618.62838 0.00306
616.57995 0.00279
614.53151 0.00304
612.48307 0.00339
610.43463 0.00310
608.38619 0.00250
606.33775 0.00234
604.28932 0.00238
602.24088 0.00244
600.19244 0.00281
598.14400 0.00314
