3996.50324 0.00175 0.00353
3994.45480 0.00173 0.00350
3992.40636 0.00173 0.00348
3990.35792 0.00172 0.00348
3988.30948 0.00173 0.00351
3986.26104 0.00174 0.00354
3984.21261 0.00174 0.00352
3982.16417 0.00174 0.00351
3980.11573 0.00174 0.00351
3978.06729 0.00173 0.00350
3976.01885 0.00170 0.00345
3973.97041 0.00167 0.00341
3971.92198 0.00167 0.00341
3969.87354 0.00169 0.00344
3967.82510 0.00170 0.00347
3965.77666 0.00172 0.00350
3963.72822 0.00171 0.00346
3961.67978 0.00167 0.00341
3959.63135 0.00166 0.00341
3957.58291 0.00166 0.00342
3955.53447 0.00167 0.00343
3953.48603 0.00167 0.00340
3951.43759 0.00162 0.00327
3949.38915 0.00154 0.00313
3947.34072 0.00152 0.00313
3945.29228 0.00153 0.00316
3943.24384 0.00152 0.00312
3941.19540 0.00152 0.00318
3939.14696 0.00160 0.00336
3937.09852 0.00166 0.00343
3935.05009 0.00164 0.00330
3933.00165 0.00153 0.00304
3930.95321 0.00144 0.00295
3928.90477 0.00149 0.00308
3926.85633 0.00155 0.00313
3924.80789 0.00151 0.00303
3922.75946 0.00149 0.00303
3920.71102 0.00149 0.00304
3918.66258 0.00145 0.00294
3916.61414 0.00144 0.00296
3914.56570 0.00155 0.00323
3912.51726 0.00169 0.00349
3910.46883 0.00175 0.00355
3908.42039 0.00170 0.00336
3906.37195 0.00149 0.00285
3904.32351 0.00120 0.00228
3902.27507 0.00104 0.00207
3900.22663 0.00106 0.00220
3898.17820 0.00123 0.00260
3896.12976 0.00145 0.00303
3894.08132 0.00151 0.00303
3892.03288 0.00138 0.00275
3889.98444 0.00136 0.00278
3887.93600 0.00142 0.00284
3885.88756 0.00135 0.00262
3883.83913 0.00127 0.00252
3881.79069 0.00126 0.00253
3879.74225 0.00129 0.00265
3877.69381 0.00142 0.00294
3875.64537 0.00145 0.00291
3873.59693 0.00131 0.00256
3871.54850 0.00115 0.00224
3869.50006 0.00107 0.00216
3867.45162 0.00113 0.00233
3865.40318 0.00118 0.00235
3863.35474 0.00117 0.00235
3861.30630 0.00127 0.00263
3859.25787 0.00141 0.00286
3857.20943 0.00133 0.00256
3855.16099 0.00101 0.00184
3853.11255 0.00074 0.00145
3851.06411 0.00085 0.00189
3849.01567 0.00125 0.00272
3846.96724 0.00152 0.00314
3844.91880 0.00150 0.00297
3842.87036 0.00130 0.00255
3840.82192 0.00108 0.00213
3838.77348 0.00092 0.00184
3836.72504 0.00091 0.00191
3834.67661 0.00105 0.00224
3832.62817 0.00121 0.00254
3830.57973 0.00133 0.00278
3828.53129 0.00140 0.00290
3826.48285 0.00139 0.00284
3824.43441 0.00131 0.00263
3822.38598 0.00113 0.00218
3820.33754 0.00097 0.00193
3818.28910 0.00100 0.00205
3816.24066 0.00108 0.00225
3814.19222 0.00124 0.00269
3812.14378 0.00152 0.00323
3810.09535 0.00161 0.00324
3808.04691 0.00143 0.00279
3805.99847 0.00124 0.00247
3803.95003 0.00115 0.00230
3801.90159 0.00103 0.00204
3799.85315 0.00101 0.00211
3797.80472 0.00115 0.00243
3795.75628 0.00131 0.00277
3793.70784 0.00151 0.00318
3791.65940 0.00168 0.00348
3789.61096 0.00172 0.00352
3787.56252 0.00167 0.00338
3785.51409 0.00157 0.00318
3783.46565 0.00151 0.00311
3781.41721 0.00147 0.00301
3779.36877 0.00140 0.00289
3777.32033 0.00144 0.00307
3775.27189 0.00158 0.00335
3773.22346 0.00160 0.00327
3771.17502 0.00144 0.00287
3769.12658 0.00127 0.00260
3767.07814 0.00124 0.00262
3765.02970 0.00129 0.00274
3762.98126 0.00135 0.00283
3760.93283 0.00129 0.00265
3758.88439 0.00115 0.00238
3756.83595 0.00110 0.00233
3754.78751 0.00107 0.00217
3752.73907 0.00087 0.00167
3750.69063 0.00063 0.00127
3748.64219 0.00058 0.00132
3746.59376 0.00064 0.00139
3744.54532 0.00064 0.00139
3742.49688 0.00071 0.00164
3740.44844 0.00083 0.00191
3738.40000 0.00082 0.00174
3736.35156 0.00065 0.00134
3734.30313 0.00054 0.00120
3732.25469 0.00060 0.00147
3730.20625 0.00078 0.00186
3728.15781 0.00088 0.00200
3726.10937 0.00085 0.00188
3724.06093 0.00078 0.00179
3722.01250 0.00076 0.00184
3719.96406 0.00080 0.00199
3717.91562 0.00087 0.00215
3715.86718 0.00089 0.00211
3713.81874 0.00077 0.00174
3711.77030 0.00058 0.00136
3709.72187 0.00051 0.00140
3707.67343 0.00063 0.00174
3705.62499 0.00074 0.00195
3703.57655 0.00073 0.00186
3701.52811 0.00066 0.00175
3699.47967 0.00065 0.00184
3697.43124 0.00067 0.00194
3695.38280 0.00066 0.00188
3693.33436 0.00059 0.00163
3691.28592 0.00048 0.00126
3689.23748 0.00038 0.00109
3687.18904 0.00040 0.00132
3685.14061 0.00049 0.00167
3683.09217 0.00056 0.00180
3681.04373 0.00054 0.00165
3678.99529 0.00045 0.00134
3676.94685 0.00034 0.00098
3674.89841 0.00027 0.00088
3672.84998 0.00027 0.00099
3670.80154 0.00028 0.00101
3668.75310 0.00028 0.00114
3666.70466 0.00034 0.00149
3664.65622 0.00043 0.00173
3662.60778 0.00047 0.00177
3660.55935 0.00044 0.00169
3658.51091 0.00039 0.00150
3656.46247 0.00034 0.00134
3654.41403 0.00030 0.00129
3652.36559 0.00027 0.00108
3650.31715 0.00019 0.00076
3648.26872 0.00014 0.00070
3646.22028 0.00017 0.00098
3644.17184 0.00025 0.00129
3642.12340 0.00031 0.00142
3640.07496 0.00032 0.00144
3638.02652 0.00033 0.00143
3635.97809 0.00031 0.00137
3633.92965 0.00028 0.00126
3631.88121 0.00024 0.00106
3629.83277 0.00019 0.00083
3627.78433 0.00016 0.00085
3625.73589 0.00020 0.00110
3623.68746 0.00025 0.00123
3621.63902 0.00025 0.00111
3619.59058 0.00021 0.00094
3617.54214 0.00019 0.00094
3615.49370 0.00020 0.00098
3613.44526 0.00021 0.00098
3611.39682 0.00022 0.00099
3609.34839 0.00021 0.00098
3607.29995 0.00021 0.00105
3605.25151 0.00023 0.00119
3603.20307 0.00026 0.00123
3601.15463 0.00026 0.00116
3599.10619 0.00025 0.00112
3597.05776 0.00024 0.00111
3595.00932 0.00023 0.00111
3592.96088 0.00023 0.00115
3590.91244 0.00024 0.00114
3588.86400 0.00022 0.00100
3586.81556 0.00019 0.00095
3584.76713 0.00020 0.00112
3582.71869 0.00024 0.00128
3580.67025 0.00027 0.00132
3578.62181 0.00027 0.00132
3576.57337 0.00027 0.00131
3574.52493 0.00028 0.00132
3572.47650 0.00029 0.00131
3570.42806 0.00025 0.00117
3568.37962 0.00021 0.00095
3566.33118 0.00020 0.00088
3564.28274 0.00022 0.00103
3562.23430 0.00024 0.00119
3560.18587 0.00026 0.00128
3558.13743 0.00027 0.00134
3556.08899 0.00028 0.00134
3554.04055 0.00028 0.00128
3551.99211 0.00027 0.00125
3549.94367 0.00026 0.00125
3547.89524 0.00024 0.00120
3545.84680 0.00022 0.00114
3543.79836 0.00022 0.00121
3541.74992 0.00025 0.00132
3539.70148 0.00027 0.00136
3537.65304 0.00027 0.00134
3535.60461 0.00027 0.00134
3533.55617 0.00028 0.00134
3531.50773 0.00029 0.00130
3529.45929 0.00028 0.00124
3527.41085 0.00025 0.00121
3525.36241 0.00023 0.00121
3523.31398 0.00023 0.00125
3521.26554 0.00024 0.00131
3519.21710 0.00025 0.00137
3517.16866 0.00026 0.00140
3515.12022 0.00026 0.00141
3513.07178 0.00027 0.00138
3511.02335 0.00027 0.00134
3508.97491 0.00026 0.00133
3506.92647 0.00026 0.00134
3504.87803 0.00026 0.00130
3502.82959 0.00024 0.00127
3500.78115 0.00024 0.00131
3498.73272 0.00025 0.00136
3496.68428 0.00026 0.00137
3494.63584 0.00026 0.00139
3492.58740 0.00027 0.00141
3490.53896 0.00028 0.00140
3488.49052 0.00028 0.00137
3486.44209 0.00027 0.00136
3484.39365 0.00027 0.00136
3482.34521 0.00026 0.00134
3480.29677 0.00025 0.00136
3478.24833 0.00025 0.00140
3476.19989 0.00027 0.00141
3474.15146 0.00028 0.00140
3472.10302 0.00027 0.00142
3470.05458 0.00026 0.00142
3468.00614 0.00025 0.00142
3465.95770 0.00026 0.00141
3463.90926 0.00027 0.00140
3461.86082 0.00026 0.00140
3459.81239 0.00026 0.00141
3457.76395 0.00027 0.00144
3455.71551 0.00027 0.00146
3453.66707 0.00027 0.00146
3451.61863 0.00026 0.00145
3449.57019 0.00025 0.00140
3447.52176 0.00025 0.00135
3445.47332 0.00025 0.00136
3443.42488 0.00026 0.00141
3441.37644 0.00028 0.00143
3439.32800 0.00028 0.00145
3437.27956 0.00028 0.00146
3435.23113 0.00027 0.00147
3433.18269 0.00027 0.00147
3431.13425 0.00028 0.00148
3429.08581 0.00027 0.00148
3427.03737 0.00027 0.00149
3424.98893 0.00027 0.00148
3422.94050 0.00028 0.00145
3420.89206 0.00028 0.00144
3418.84362 0.00027 0.00147
3416.79518 0.00026 0.00150
3414.74674 0.00026 0.00151
3412.69830 0.00027 0.00150
3410.64987 0.00028 0.00151
3408.60143 0.00029 0.00152
3406.55299 0.00029 0.00153
3404.50455 0.00028 0.00152
3402.45611 0.00027 0.00151
3400.40767 0.00027 0.00150
3398.35924 0.00027 0.00149
3396.31080 0.00027 0.00150
3394.26236 0.00026 0.00150
3392.21392 0.00025 0.00149
3390.16548 0.00025 0.00150
3388.11704 0.00026 0.00151
3386.06861 0.00028 0.00151
3384.02017 0.00029 0.00152
3381.97173 0.00029 0.00154
3379.92329 0.00029 0.00154
3377.87485 0.00028 0.00153
3375.82641 0.00028 0.00153
3373.77798 0.00027 0.00154
3371.72954 0.00027 0.00154
3369.68110 0.00026 0.00153
3367.63266 0.00026 0.00152
3365.58422 0.00027 0.00152
3363.53578 0.00027 0.00153
3361.48735 0.00028 0.00154
3359.43891 0.00028 0.00155
3357.39047 0.00029 0.00155
3355.34203 0.00028 0.00155
3353.29359 0.00028 0.00155
3351.24515 0.00027 0.00156
3349.19672 0.00028 0.00157
3347.14828 0.00029 0.00158
3345.09984 0.00028 0.00158
3343.05140 0.00028 0.00158
3341.00296 0.00029 0.00159
3338.95452 0.00030 0.00158
3336.90609 0.00029 0.00157
3334.85765 0.00028 0.00158
3332.80921 0.00029 0.00158
3330.76077 0.00030 0.00159
3328.71233 0.00030 0.00161
3326.66389 0.00030 0.00161
3324.61545 0.00029 0.00161
3322.56702 0.00029 0.00161
3320.51858 0.00030 0.00161
3318.47014 0.00030 0.00161
3316.42170 0.00029 0.00161
3314.37326 0.00028 0.00160
3312.32482 0.00028 0.00161
3310.27639 0.00028 0.00161
3308.22795 0.00028 0.00162
3306.17951 0.00028 0.00162
3304.13107 0.00027 0.00162
3302.08263 0.00028 0.00162
3300.03419 0.00029 0.00162
3297.98576 0.00029 0.00162
3295.93732 0.00030 0.00162
3293.88888 0.00031 0.00161
3291.84044 0.00031 0.00160
3289.79200 0.00031 0.00160
3287.74356 0.00030 0.00162
3285.69513 0.00031 0.00163
3283.64669 0.00032 0.00162
3281.59825 0.00031 0.00161
3279.54981 0.00030 0.00161
3277.50137 0.00029 0.00161
3275.45293 0.00029 0.00161
3273.40450 0.00029 0.00163
3271.35606 0.00030 0.00166
3269.30762 0.00031 0.00166
3267.25918 0.00031 0.00165
3265.21074 0.00031 0.00165
3263.16230 0.00030 0.00165
3261.11387 0.00030 0.00165
3259.06543 0.00031 0.00166
3257.01699 0.00030 0.00165
3254.96855 0.00030 0.00165
3252.92011 0.00031 0.00166
3250.87167 0.00031 0.00167
3248.82324 0.00031 0.00166
3246.77480 0.00032 0.00165
3244.72636 0.00032 0.00164
3242.67792 0.00033 0.00165
3240.62948 0.00034 0.00167
3238.58104 0.00033 0.00167
3236.53261 0.00031 0.00168
3234.48417 0.00031 0.00168
3232.43573 0.00031 0.00168
3230.38729 0.00033 0.00168
3228.33885 0.00033 0.00168
3226.29041 0.00033 0.00170
3224.24198 0.00033 0.00171
3222.19354 0.00033 0.00171
3220.14510 0.00034 0.00170
3218.09666 0.00035 0.00171
3216.04822 0.00035 0.00172
3213.99978 0.00034 0.00173
3211.95135 0.00033 0.00174
3209.90291 0.00033 0.00175
3207.85447 0.00033 0.00177
3205.80603 0.00032 0.00179
3203.75759 0.00032 0.00180
3201.70915 0.00032 0.00180
3199.66072 0.00033 0.00179
3197.61228 0.00034 0.00179
3195.56384 0.00035 0.00180
3193.51540 0.00035 0.00180
3191.46696 0.00036 0.00180
3189.41852 0.00037 0.00181
3187.37008 0.00037 0.00183
3185.32165 0.00036 0.00184
3183.27321 0.00036 0.00185
3181.22477 0.00036 0.00186
3179.17633 0.00036 0.00186
3177.12789 0.00037 0.00187
3175.07945 0.00038 0.00188
3173.03102 0.00038 0.00189
3170.98258 0.00038 0.00190
3168.93414 0.00038 0.00191
3166.88570 0.00037 0.00192
3164.83726 0.00037 0.00193
3162.78882 0.00036 0.00193
3160.74039 0.00037 0.00194
3158.69195 0.00038 0.00195
3156.64351 0.00038 0.00195
3154.59507 0.00039 0.00196
3152.54663 0.00039 0.00197
3150.49819 0.00039 0.00198
3148.44976 0.00039 0.00198
3146.40132 0.00040 0.00199
3144.35288 0.00041 0.00201
3142.30444 0.00041 0.00203
3140.25600 0.00041 0.00205
3138.20756 0.00041 0.00206
3136.15913 0.00040 0.00205
3134.11069 0.00040 0.00205
3132.06225 0.00041 0.00205
3130.01381 0.00041 0.00206
3127.96537 0.00041 0.00206
3125.91693 0.00040 0.00206
3123.86850 0.00039 0.00206
3121.82006 0.00040 0.00207
3119.77162 0.00041 0.00208
3117.72318 0.00043 0.00208
3115.67474 0.00044 0.00210
3113.62630 0.00044 0.00212
3111.57787 0.00044 0.00213
3109.52943 0.00044 0.00214
3107.48099 0.00044 0.00216
3105.43255 0.00044 0.00218
3103.38411 0.00044 0.00217
3101.33567 0.00045 0.00216
3099.28724 0.00046 0.00216
3097.23880 0.00046 0.00217
3095.19036 0.00046 0.00219
3093.14192 0.00046 0.00221
3091.09348 0.00046 0.00223
3089.04504 0.00046 0.00224
3086.99661 0.00047 0.00225
3084.94817 0.00047 0.00225
3082.89973 0.00047 0.00226
3080.85129 0.00046 0.00227
3078.80285 0.00044 0.00228
3076.75441 0.00044 0.00230
3074.70598 0.00045 0.00232
3072.65754 0.00046 0.00234
3070.60910 0.00047 0.00235
3068.56066 0.00048 0.00234
3066.51222 0.00049 0.00232
3064.46378 0.00049 0.00232
3062.41535 0.00048 0.00235
3060.36691 0.00048 0.00237
3058.31847 0.00049 0.00237
3056.27003 0.00049 0.00238
3054.22159 0.00050 0.00240
3052.17315 0.00051 0.00241
3050.12471 0.00051 0.00240
3048.07628 0.00052 0.00241
3046.02784 0.00051 0.00244
3043.97940 0.00051 0.00247
3041.93096 0.00052 0.00248
3039.88252 0.00053 0.00249
3037.83408 0.00053 0.00248
3035.78565 0.00052 0.00245
3033.73721 0.00052 0.00243
3031.68877 0.00052 0.00244
3029.64033 0.00051 0.00246
3027.59189 0.00053 0.00249
3025.54345 0.00055 0.00250
3023.49502 0.00056 0.00251
3021.44658 0.00057 0.00251
3019.39814 0.00057 0.00251
3017.34970 0.00057 0.00252
3015.30126 0.00057 0.00252
3013.25282 0.00056 0.00252
3011.20439 0.00055 0.00252
3009.15595 0.00055 0.00254
3007.10751 0.00057 0.00255
3005.05907 0.00058 0.00256
3003.01063 0.00058 0.00257
3000.96219 0.00059 0.00258
2998.91376 0.00059 0.00259
2996.86532 0.00059 0.00259
2994.81688 0.00059 0.00259
2992.76844 0.00058 0.00260
2990.72000 0.00057 0.00260
2988.67156 0.00056 0.00260
2986.62313 0.00056 0.00260
2984.57469 0.00055 0.00260
2982.52625 0.00054 0.00259
2980.47781 0.00055 0.00259
2978.42937 0.00056 0.00258
2976.38093 0.00056 0.00256
2974.33250 0.00054 0.00253
2972.28406 0.00051 0.00251
2970.23562 0.00048 0.00249
2968.18718 0.00047 0.00245
2966.13874 0.00045 0.00241
2964.09030 0.00044 0.00238
2962.04187 0.00042 0.00236
2959.99343 0.00041 0.00236
2957.94499 0.00040 0.00235
2955.89655 0.00039 0.00234
2953.84811 0.00039 0.00233
2951.79967 0.00040 0.00233
2949.75124 0.00041 0.00236
2947.70280 0.00042 0.00239
2945.65436 0.00043 0.00241
2943.60592 0.00043 0.00240
2941.55748 0.00043 0.00240
2939.50904 0.00042 0.00238
2937.46061 0.00040 0.00235
2935.41217 0.00039 0.00231
2933.36373 0.00038 0.00227
2931.31529 0.00037 0.00224
2929.26685 0.00037 0.00221
2927.21841 0.00036 0.00219
2925.16998 0.00034 0.00218
2923.12154 0.00033 0.00217
2921.07310 0.00033 0.00218
2919.02466 0.00035 0.00220
2916.97622 0.00037 0.00222
2914.92778 0.00038 0.00224
2912.87934 0.00038 0.00228
2910.83091 0.00039 0.00232
2908.78247 0.00039 0.00235
2906.73403 0.00040 0.00237
2904.68559 0.00042 0.00240
2902.63715 0.00044 0.00242
2900.58871 0.00045 0.00245
2898.54028 0.00047 0.00247
2896.49184 0.00049 0.00249
2894.44340 0.00050 0.00252
2892.39496 0.00049 0.00255
2890.34652 0.00048 0.00257
2888.29808 0.00049 0.00260
2886.24965 0.00052 0.00262
2884.20121 0.00055 0.00263
2882.15277 0.00056 0.00265
2880.10433 0.00055 0.00265
2878.05589 0.00056 0.00265
2876.00745 0.00056 0.00265
2873.95902 0.00055 0.00264
2871.91058 0.00054 0.00262
2869.86214 0.00054 0.00262
2867.81370 0.00054 0.00262
2865.76526 0.00053 0.00262
2863.71682 0.00053 0.00262
2861.66839 0.00053 0.00260
2859.61995 0.00052 0.00258
2857.57151 0.00049 0.00255
2855.52307 0.00046 0.00252
2853.47463 0.00044 0.00250
2851.42619 0.00044 0.00252
2849.37776 0.00047 0.00256
2847.32932 0.00050 0.00260
2845.28088 0.00054 0.00267
2843.23244 0.00059 0.00276
2841.18400 0.00064 0.00284
2839.13556 0.00069 0.00291
2837.08713 0.00075 0.00298
2835.03869 0.00081 0.00306
2832.99025 0.00086 0.00313
2830.94181 0.00090 0.00318
2828.89337 0.00093 0.00324
2826.84493 0.00096 0.00328
2824.79650 0.00097 0.00332
2822.74806 0.00100 0.00334
2820.69962 0.00103 0.00337
2818.65118 0.00105 0.00340
2816.60274 0.00106 0.00343
2814.55430 0.00108 0.00346
2812.50587 0.00109 0.00348
2810.45743 0.00111 0.00351
2808.40899 0.00112 0.00355
2806.36055 0.00114 0.00357
2804.31211 0.00117 0.00359
2802.26367 0.00121 0.00361
2800.21524 0.00123 0.00362
2798.16680 0.00124 0.00365
2796.11836 0.00124 0.00367
2794.06992 0.00125 0.00369
2792.02148 0.00127 0.00370
2789.97304 0.00129 0.00373
2787.92461 0.00130 0.00376
2785.87617 0.00131 0.00378
2783.82773 0.00133 0.00378
2781.77929 0.00134 0.00379
2779.73085 0.00137 0.00382
2777.68241 0.00138 0.00385
2775.63397 0.00139 0.00388
2773.58554 0.00140 0.00392
2771.53710 0.00140 0.00394
2769.48866 0.00140 0.00394
2767.44022 0.00141 0.00395
2765.39178 0.00143 0.00397
2763.34334 0.00145 0.00400
2761.29491 0.00146 0.00401
2759.24647 0.00148 0.00402
2757.19803 0.00148 0.00404
2755.14959 0.00149 0.00405
2753.10115 0.00150 0.00407
2751.05271 0.00151 0.00408
2749.00428 0.00152 0.00409
2746.95584 0.00153 0.00411
2744.90740 0.00155 0.00412
2742.85896 0.00157 0.00413
2740.81052 0.00157 0.00413
2738.76208 0.00158 0.00414
2736.71365 0.00158 0.00415
2734.66521 0.00158 0.00417
2732.61677 0.00158 0.00418
2730.56833 0.00157 0.00418
2728.51989 0.00157 0.00418
2726.47145 0.00158 0.00421
2724.42302 0.00160 0.00424
2722.37458 0.00161 0.00426
2720.32614 0.00161 0.00427
2718.27770 0.00162 0.00427
2716.22926 0.00165 0.00428
2714.18082 0.00167 0.00429
2712.13239 0.00167 0.00431
2710.08395 0.00168 0.00432
2708.03551 0.00169 0.00433
2705.98707 0.00171 0.00435
2703.93863 0.00171 0.00436
2701.89019 0.00171 0.00437
2699.84176 0.00171 0.00439
2697.79332 0.00172 0.00440
2695.74488 0.00173 0.00442
2693.69644 0.00174 0.00443
2691.64800 0.00173 0.00444
2689.59956 0.00174 0.00443
2687.55113 0.00176 0.00444
2685.50269 0.00178 0.00444
2683.45425 0.00178 0.00446
2681.40581 0.00177 0.00448
2679.35737 0.00177 0.00450
2677.30893 0.00179 0.00451
2675.26050 0.00180 0.00451
2673.21206 0.00180 0.00452
2671.16362 0.00180 0.00453
2669.11518 0.00180 0.00453
2667.06674 0.00181 0.00454
2665.01830 0.00180 0.00455
2662.96987 0.00181 0.00455
2660.92143 0.00182 0.00455
2658.87299 0.00183 0.00456
2656.82455 0.00183 0.00458
2654.77611 0.00183 0.00459
2652.72767 0.00184 0.00460
2650.67924 0.00185 0.00460
2648.63080 0.00186 0.00461
2646.58236 0.00186 0.00461
2644.53392 0.00186 0.00462
2642.48548 0.00186 0.00463
2640.43704 0.00187 0.00463
2638.38860 0.00187 0.00462
2636.34017 0.00187 0.00461
2634.29173 0.00186 0.00461
2632.24329 0.00186 0.00462
2630.19485 0.00185 0.00462
2628.14641 0.00185 0.00462
2626.09797 0.00184 0.00463
2624.04954 0.00183 0.00463
2622.00110 0.00182 0.00463
2619.95266 0.00182 0.00462
2617.90422 0.00181 0.00461
2615.85578 0.00180 0.00461
2613.80734 0.00179 0.00461
2611.75891 0.00178 0.00460
2609.71047 0.00177 0.00459
2607.66203 0.00178 0.00458
2605.61359 0.00179 0.00458
2603.56515 0.00178 0.00458
2601.51671 0.00176 0.00457
2599.46828 0.00174 0.00455
2597.41984 0.00173 0.00454
2595.37140 0.00172 0.00453
2593.32296 0.00173 0.00454
2591.27452 0.00172 0.00453
2589.22608 0.00170 0.00452
2587.17765 0.00168 0.00450
2585.12921 0.00167 0.00448
2583.08077 0.00166 0.00446
2581.03233 0.00163 0.00444
2578.98389 0.00159 0.00442
2576.93545 0.00155 0.00439
2574.88702 0.00154 0.00436
2572.83858 0.00153 0.00435
2570.79014 0.00152 0.00432
2568.74170 0.00149 0.00430
2566.69326 0.00145 0.00426
2564.64482 0.00143 0.00423
2562.59639 0.00143 0.00422
2560.54795 0.00144 0.00423
2558.49951 0.00146 0.00426
2556.45107 0.00149 0.00430
2554.40263 0.00154 0.00434
2552.35419 0.00158 0.00438
2550.30576 0.00160 0.00441
2548.25732 0.00162 0.00445
2546.20888 0.00164 0.00447
2544.16044 0.00166 0.00450
2542.11200 0.00168 0.00451
2540.06356 0.00169 0.00452
2538.01513 0.00169 0.00452
2535.96669 0.00170 0.00451
2533.91825 0.00167 0.00448
2531.86981 0.00163 0.00445
2529.82137 0.00160 0.00443
2527.77293 0.00158 0.00440
2525.72450 0.00155 0.00438
2523.67606 0.00154 0.00437
2521.62762 0.00154 0.00436
2519.57918 0.00154 0.00436
2517.53074 0.00154 0.00437
2515.48230 0.00153 0.00439
2513.43387 0.00154 0.00440
2511.38543 0.00157 0.00442
2509.33699 0.00160 0.00445
2507.28855 0.00162 0.00448
2505.24011 0.00165 0.00450
2503.19167 0.00168 0.00452
2501.14324 0.00171 0.00455
2499.09480 0.00173 0.00458
2497.04636 0.00175 0.00461
2494.99792 0.00179 0.00465
2492.94948 0.00184 0.00469
2490.90104 0.00188 0.00472
2488.85260 0.00192 0.00474
2486.80417 0.00194 0.00476
2484.75573 0.00196 0.00477
2482.70729 0.00198 0.00477
2480.65885 0.00200 0.00478
2478.61041 0.00201 0.00478
2476.56197 0.00203 0.00480
2474.51354 0.00206 0.00482
2472.46510 0.00207 0.00483
2470.41666 0.00208 0.00484
2468.36822 0.00210 0.00485
2466.31978 0.00212 0.00486
2464.27134 0.00213 0.00486
2462.22291 0.00214 0.00487
2460.17447 0.00215 0.00487
2458.12603 0.00216 0.00487
2456.07759 0.00216 0.00487
2454.02915 0.00216 0.00486
2451.98071 0.00217 0.00485
2449.93228 0.00217 0.00484
2447.88384 0.00216 0.00482
2445.83540 0.00216 0.00480
2443.78696 0.00216 0.00480
2441.73852 0.00217 0.00479
2439.69008 0.00218 0.00480
2437.64165 0.00218 0.00480
2435.59321 0.00218 0.00481
2433.54477 0.00219 0.00480
2431.49633 0.00220 0.00480
2429.44789 0.00219 0.00481
2427.39945 0.00220 0.00481
2425.35102 0.00220 0.00479
2423.30258 0.00220 0.00478
2421.25414 0.00221 0.00479
2419.20570 0.00220 0.00479
2417.15726 0.00219 0.00478
2415.10882 0.00219 0.00478
2413.06039 0.00220 0.00477
2411.01195 0.00220 0.00476
2408.96351 0.00219 0.00474
2406.91507 0.00219 0.00474
2404.86663 0.00219 0.00474
2402.81819 0.00220 0.00473
2400.76976 0.00220 0.00471
2398.72132 0.00219 0.00470
2396.67288 0.00219 0.00469
2394.62444 0.00219 0.00467
2392.57600 0.00218 0.00466
2390.52756 0.00215 0.00463
2388.47913 0.00212 0.00456
2386.43069 0.00206 0.00441
2384.38225 0.00196 0.00416
2382.33381 0.00180 0.00378
2380.28537 0.00157 0.00328
2378.23693 0.00131 0.00274
2376.18850 0.00106 0.00223
2374.14006 0.00085 0.00178
2372.09162 0.00067 0.00140
2370.04318 0.00051 0.00110
2367.99474 0.00040 0.00088
2365.94630 0.00033 0.00071
2363.89787 0.00028 0.00061
2361.84943 0.00025 0.00056
2359.80099 0.00024 0.00055
2357.75255 0.00025 0.00059
2355.70411 0.00029 0.00069
2353.65567 0.00037 0.00090
2351.60723 0.00051 0.00122
2349.55880 0.00066 0.00150
2347.51036 0.00067 0.00148
2345.46192 0.00055 0.00120
2343.41348 0.00044 0.00098
2341.36504 0.00039 0.00089
2339.31660 0.00038 0.00089
2337.26817 0.00039 0.00091
2335.21973 0.00040 0.00095
2333.17129 0.00042 0.00098
2331.12285 0.00043 0.00101
2329.07441 0.00045 0.00107
2327.02597 0.00048 0.00114
2324.97754 0.00052 0.00122
2322.92910 0.00057 0.00133
2320.88066 0.00063 0.00147
2318.83222 0.00070 0.00166
2316.78378 0.00078 0.00186
2314.73534 0.00085 0.00202
2312.68691 0.00090 0.00216
2310.63847 0.00097 0.00231
2308.59003 0.00105 0.00249
2306.54159 0.00112 0.00268
2304.49315 0.00119 0.00286
2302.44471 0.00125 0.00299
2300.39628 0.00131 0.00308
2298.34784 0.00135 0.00317
2296.29940 0.00139 0.00326
2294.25096 0.00143 0.00334
2292.20252 0.00146 0.00341
2290.15408 0.00149 0.00349
2288.10565 0.00152 0.00357
2286.05721 0.00155 0.00363
2284.00877 0.00156 0.00367
2281.96033 0.00156 0.00367
2279.91189 0.00155 0.00364
2277.86345 0.00154 0.00361
2275.81502 0.00152 0.00358
2273.76658 0.00150 0.00356
2271.71814 0.00149 0.00354
2269.66970 0.00148 0.00353
2267.62126 0.00148 0.00351
2265.57282 0.00148 0.00351
2263.52439 0.00149 0.00351
2261.47595 0.00149 0.00352
2259.42751 0.00149 0.00353
2257.37907 0.00149 0.00352
2255.33063 0.00150 0.00352
2253.28219 0.00150 0.00352
2251.23376 0.00150 0.00353
2249.18532 0.00149 0.00353
2247.13688 0.00148 0.00352
2245.08844 0.00147 0.00351
2243.04000 0.00148 0.00351
2240.99156 0.00148 0.00351
2238.94313 0.00147 0.00350
2236.89469 0.00145 0.00350
2234.84625 0.00145 0.00350
2232.79781 0.00144 0.00349
2230.74937 0.00143 0.00349
2228.70093 0.00141 0.00348
2226.65250 0.00141 0.00346
2224.60406 0.00140 0.00344
2222.55562 0.00140 0.00343
2220.50718 0.00139 0.00341
2218.45874 0.00139 0.00337
2216.41030 0.00138 0.00335
2214.36186 0.00136 0.00334
2212.31343 0.00135 0.00332
2210.26499 0.00136 0.00330
2208.21655 0.00136 0.00328
2206.16811 0.00134 0.00326
2204.11967 0.00133 0.00324
2202.07123 0.00132 0.00322
2200.02280 0.00131 0.00319
2197.97436 0.00129 0.00317
2195.92592 0.00128 0.00315
2193.87748 0.00127 0.00312
2191.82904 0.00125 0.00310
2189.78060 0.00123 0.00308
2187.73217 0.00122 0.00305
2185.68373 0.00120 0.00301
2183.63529 0.00118 0.00298
2181.58685 0.00115 0.00296
2179.53841 0.00113 0.00292
2177.48997 0.00111 0.00288
2175.44154 0.00110 0.00285
2173.39310 0.00109 0.00282
2171.34466 0.00107 0.00280
2169.29622 0.00103 0.00277
2167.24778 0.00100 0.00275
2165.19934 0.00099 0.00272
2163.15091 0.00098 0.00268
2161.10247 0.00096 0.00266
2159.05403 0.00095 0.00265
2157.00559 0.00094 0.00264
2154.95715 0.00094 0.00261
2152.90871 0.00092 0.00258
2150.86028 0.00089 0.00255
2148.81184 0.00088 0.00254
2146.76340 0.00087 0.00254
2144.71496 0.00086 0.00254
2142.66652 0.00084 0.00252
2140.61808 0.00083 0.00250
2138.56965 0.00082 0.00248
2136.52121 0.00081 0.00247
2134.47277 0.00080 0.00244
2132.42433 0.00080 0.00243
2130.37589 0.00079 0.00243
2128.32745 0.00079 0.00242
2126.27902 0.00080 0.00242
2124.23058 0.00080 0.00241
2122.18214 0.00079 0.00239
2120.13370 0.00078 0.00236
2118.08526 0.00078 0.00235
2116.03682 0.00078 0.00234
2113.98839 0.00078 0.00232
2111.93995 0.00079 0.00232
2109.89151 0.00078 0.00232
2107.84307 0.00078 0.00231
2105.79463 0.00078 0.00231
2103.74619 0.00077 0.00230
2101.69776 0.00077 0.00229
2099.64932 0.00077 0.00228
2097.60088 0.00078 0.00228
2095.55244 0.00078 0.00227
2093.50400 0.00078 0.00225
2091.45556 0.00078 0.00222
2089.40713 0.00077 0.00221
2087.35869 0.00077 0.00222
2085.31025 0.00077 0.00222
2083.26181 0.00078 0.00222
2081.21337 0.00078 0.00221
2079.16493 0.00078 0.00220
2077.11649 0.00078 0.00219
2075.06806 0.00077 0.00218
2073.01962 0.00077 0.00216
2070.97118 0.00077 0.00215
2068.92274 0.00076 0.00213
2066.87430 0.00076 0.00211
2064.82586 0.00077 0.00209
2062.77743 0.00077 0.00210
2060.72899 0.00078 0.00211
2058.68055 0.00077 0.00211
2056.63211 0.00077 0.00210
2054.58367 0.00077 0.00209
2052.53523 0.00077 0.00209
2050.48680 0.00077 0.00209
2048.43836 0.00078 0.00211
2046.38992 0.00079 0.00210
2044.34148 0.00079 0.00207
2042.29304 0.00080 0.00205
2040.24460 0.00081 0.00207
2038.19617 0.00081 0.00210
2036.14773 0.00080 0.00212
2034.09929 0.00081 0.00212
2032.05085 0.00083 0.00212
2030.00241 0.00083 0.00211
2027.95397 0.00083 0.00209
2025.90554 0.00082 0.00208
2023.85710 0.00083 0.00208
2021.80866 0.00084 0.00208
2019.76022 0.00084 0.00205
2017.71178 0.00083 0.00202
2015.66334 0.00083 0.00203
2013.61491 0.00084 0.00206
2011.56647 0.00084 0.00207
2009.51803 0.00084 0.00206
2007.46959 0.00086 0.00206
2005.42115 0.00087 0.00207
2003.37271 0.00087 0.00206
2001.32428 0.00087 0.00204
1999.27584 0.00086 0.00203
1997.22740 0.00085 0.00202
1995.17896 0.00083 0.00197
1993.13052 0.00080 0.00188
1991.08208 0.00079 0.00184
1989.03365 0.00080 0.00187
1986.98521 0.00081 0.00191
1984.93677 0.00082 0.00194
1982.88833 0.00081 0.00194
1980.83989 0.00080 0.00193
1978.79145 0.00080 0.00192
1976.74302 0.00081 0.00192
1974.69458 0.00081 0.00192
1972.64614 0.00081 0.00191
1970.59770 0.00080 0.00187
1968.54926 0.00078 0.00180
1966.50082 0.00077 0.00179
1964.45239 0.00079 0.00185
1962.40395 0.00081 0.00190
1960.35551 0.00081 0.00191
1958.30707 0.00082 0.00190
1956.25863 0.00082 0.00190
1954.21019 0.00083 0.00190
1952.16176 0.00085 0.00192
1950.11332 0.00085 0.00192
1948.06488 0.00085 0.00189
1946.01644 0.00084 0.00184
1943.96800 0.00081 0.00176
1941.91956 0.00082 0.00176
1939.87112 0.00087 0.00187
1937.82269 0.00092 0.00196
1935.77425 0.00094 0.00198
1933.72581 0.00096 0.00198
1931.67737 0.00097 0.00199
1929.62893 0.00098 0.00200
1927.58049 0.00098 0.00201
1925.53206 0.00095 0.00194
1923.48362 0.00092 0.00184
1921.43518 0.00091 0.00180
1919.38674 0.00091 0.00178
1917.33830 0.00091 0.00179
1915.28986 0.00096 0.00189
1913.24143 0.00101 0.00194
1911.19299 0.00099 0.00189
1909.14455 0.00097 0.00185
1907.09611 0.00098 0.00189
1905.04767 0.00100 0.00195
1902.99923 0.00101 0.00198
1900.95080 0.00100 0.00198
1898.90236 0.00099 0.00196
1896.85392 0.00097 0.00191
1894.80548 0.00095 0.00188
1892.75704 0.00094 0.00187
1890.70860 0.00090 0.00182
1888.66017 0.00088 0.00182
1886.61173 0.00093 0.00190
1884.56329 0.00097 0.00195
1882.51485 0.00097 0.00198
1880.46641 0.00098 0.00200
1878.41797 0.00099 0.00202
1876.36954 0.00098 0.00202
1874.32110 0.00096 0.00199
1872.27266 0.00091 0.00186
1870.22422 0.00081 0.00162
1868.17578 0.00072 0.00151
1866.12734 0.00076 0.00166
1864.07891 0.00085 0.00187
1862.03047 0.00090 0.00196
1859.98203 0.00090 0.00198
1857.93359 0.00090 0.00199
1855.88515 0.00090 0.00200
1853.83671 0.00090 0.00202
1851.78828 0.00089 0.00200
1849.73984 0.00086 0.00192
1847.69140 0.00079 0.00176
1845.64296 0.00069 0.00156
1843.59452 0.00065 0.00154
1841.54608 0.00072 0.00174
1839.49765 0.00080 0.00190
1837.44921 0.00082 0.00191
1835.40077 0.00081 0.00190
1833.35233 0.00078 0.00184
1831.30389 0.00070 0.00164
1829.25545 0.00063 0.00154
1827.20702 0.00064 0.00159
1825.15858 0.00067 0.00166
1823.11014 0.00072 0.00178
1821.06170 0.00077 0.00191
1819.01326 0.00078 0.00195
1816.96482 0.00077 0.00194
1814.91639 0.00076 0.00190
1812.86795 0.00073 0.00179
1810.81951 0.00069 0.00170
1808.77107 0.00069 0.00174
1806.72263 0.00070 0.00182
1804.67419 0.00069 0.00179
1802.62575 0.00063 0.00164
1800.57732 0.00057 0.00153
1798.52888 0.00056 0.00155
1796.48044 0.00056 0.00155
1794.43200 0.00052 0.00140
1792.38356 0.00047 0.00126
1790.33512 0.00051 0.00140
1788.28669 0.00058 0.00163
1786.23825 0.00061 0.00168
1784.18981 0.00060 0.00161
1782.14137 0.00058 0.00155
1780.09293 0.00056 0.00152
1778.04449 0.00057 0.00154
1775.99606 0.00055 0.00144
1773.94762 0.00045 0.00118
1771.89918 0.00038 0.00105
1769.85074 0.00040 0.00116
1767.80230 0.00049 0.00136
1765.75386 0.00055 0.00150
1763.70543 0.00055 0.00146
1761.65699 0.00050 0.00135
1759.60855 0.00049 0.00135
1757.56011 0.00049 0.00136
1755.51167 0.00048 0.00137
1753.46323 0.00046 0.00129
1751.41480 0.00039 0.00107
1749.36636 0.00034 0.00094
1747.31792 0.00035 0.00100
1745.26948 0.00038 0.00110
1743.22104 0.00039 0.00113
1741.17260 0.00037 0.00109
1739.12417 0.00036 0.00108
1737.07573 0.00035 0.00101
1735.02729 0.00030 0.00082
1732.97885 0.00027 0.00078
1730.93041 0.00033 0.00098
1728.88197 0.00041 0.00121
1726.83354 0.00046 0.00134
1724.78510 0.00046 0.00134
1722.73666 0.00043 0.00127
1720.68822 0.00037 0.00107
1718.63978 0.00027 0.00077
1716.59134 0.00020 0.00065
1714.54291 0.00025 0.00082
1712.49447 0.00034 0.00106
1710.44603 0.00039 0.00117
1708.39759 0.00037 0.00108
1706.34915 0.00031 0.00093
1704.30071 0.00027 0.00083
1702.25228 0.00024 0.00071
1700.20384 0.00019 0.00056
1698.15540 0.00018 0.00053
1696.10696 0.00021 0.00064
1694.05852 0.00029 0.00088
1692.01008 0.00035 0.00105
1689.96165 0.00035 0.00102
1687.91321 0.00030 0.00087
1685.86477 0.00022 0.00064
1683.81633 0.00017 0.00053
1681.76789 0.00020 0.00069
1679.71945 0.00027 0.00090
1677.67102 0.00029 0.00092
1675.62258 0.00028 0.00082
1673.57414 0.00027 0.00076
1671.52570 0.00026 0.00071
1669.47726 0.00024 0.00070
1667.42882 0.00028 0.00084
1665.38038 0.00033 0.00095
1663.33195 0.00032 0.00091
1661.28351 0.00031 0.00094
1659.23507 0.00033 0.00102
1657.18663 0.00031 0.00091
1655.13819 0.00022 0.00059
1653.08975 0.00016 0.00041
1651.04132 0.00019 0.00052
1648.99288 0.00021 0.00059
1646.94444 0.00020 0.00056
1644.89600 0.00023 0.00070
1642.84756 0.00030 0.00090
1640.79912 0.00030 0.00093
1638.75069 0.00025 0.00077
1636.70225 0.00020 0.00059
1634.65381 0.00021 0.00063
1632.60537 0.00028 0.00086
1630.55693 0.00033 0.00097
1628.50849 0.00032 0.00091
1626.46006 0.00029 0.00083
1624.41162 0.00026 0.00077
1622.36318 0.00026 0.00078
1620.31474 0.00028 0.00083
1618.26630 0.00026 0.00076
1616.21786 0.00025 0.00072
1614.16943 0.00029 0.00086
1612.12099 0.00034 0.00098
1610.07255 0.00034 0.00099
1608.02411 0.00035 0.00099
1605.97567 0.00038 0.00102
1603.92723 0.00038 0.00104
1601.87880 0.00038 0.00106
1599.83036 0.00039 0.00109
1597.78192 0.00040 0.00109
1595.73348 0.00039 0.00106
1593.68504 0.00037 0.00106
1591.63660 0.00037 0.00108
1589.58817 0.00038 0.00110
1587.53973 0.00040 0.00111
1585.49129 0.00041 0.00112
1583.44285 0.00041 0.00111
1581.39441 0.00039 0.00107
1579.34597 0.00035 0.00094
1577.29754 0.00028 0.00076
1575.24910 0.00027 0.00075
1573.20066 0.00032 0.00085
1571.15222 0.00032 0.00080
1569.10378 0.00030 0.00074
1567.05534 0.00034 0.00079
1565.00691 0.00037 0.00083
1562.95847 0.00035 0.00072
1560.91003 0.00025 0.00047
1558.86159 0.00016 0.00029
1556.81315 0.00018 0.00037
1554.76471 0.00029 0.00055
1552.71628 0.00038 0.00067
1550.66784 0.00044 0.00072
1548.61940 0.00048 0.00073
1546.57096 0.00046 0.00066
1544.52252 0.00035 0.00049
1542.47408 0.00024 0.00032
1540.42565 0.00019 0.00026
1538.37721 0.00025 0.00039
1536.32877 0.00036 0.00056
1534.28033 0.00040 0.00059
1532.23189 0.00043 0.00063
1530.18345 0.00049 0.00069
1528.13501 0.00047 0.00064
1526.08658 0.00039 0.00055
1524.03814 0.00032 0.00046
1521.98970 0.00026 0.00039
1519.94126 0.00027 0.00039
1517.89282 0.00031 0.00045
1515.84438 0.00036 0.00054
1513.79595 0.00042 0.00064
1511.74751 0.00042 0.00063
1509.69907 0.00032 0.00046
1507.65063 0.00022 0.00031
1505.60219 0.00023 0.00040
1503.55375 0.00036 0.00065
1501.50532 0.00046 0.00077
1499.45688 0.00044 0.00071
1497.40844 0.00040 0.00064
1495.36000 0.00044 0.00071
1493.31156 0.00050 0.00077
1491.26312 0.00045 0.00067
1489.21469 0.00038 0.00059
1487.16625 0.00041 0.00069
1485.11781 0.00050 0.00086
1483.06937 0.00055 0.00094
1481.02093 0.00055 0.00095
1478.97249 0.00053 0.00091
1476.92406 0.00046 0.00079
1474.87562 0.00036 0.00062
1472.82718 0.00030 0.00055
1470.77874 0.00037 0.00069
1468.73030 0.00046 0.00083
1466.68186 0.00046 0.00081
1464.63343 0.00043 0.00078
1462.58499 0.00045 0.00083
1460.53655 0.00042 0.00076
1458.48811 0.00031 0.00054
1456.43967 0.00025 0.00048
1454.39123 0.00033 0.00067
1452.34280 0.00044 0.00085
1450.29436 0.00048 0.00090
1448.24592 0.00049 0.00089
1446.19748 0.00050 0.00093
1444.14904 0.00054 0.00102
1442.10060 0.00056 0.00105
1440.05217 0.00053 0.00099
1438.00373 0.00046 0.00084
1435.95529 0.00041 0.00078
1433.90685 0.00045 0.00088
1431.85841 0.00050 0.00092
1429.80997 0.00050 0.00090
1427.76154 0.00052 0.00092
1425.71310 0.00052 0.00091
1423.66466 0.00051 0.00085
1421.61622 0.00046 0.00076
1419.56778 0.00039 0.00066
1417.51934 0.00040 0.00068
1415.47091 0.00049 0.00081
1413.42247 0.00056 0.00089
1411.37403 0.00057 0.00089
1409.32559 0.00057 0.00087
1407.27715 0.00055 0.00083
1405.22871 0.00051 0.00077
1403.18028 0.00050 0.00077
1401.13184 0.00049 0.00074
1399.08340 0.00045 0.00066
1397.03496 0.00041 0.00060
1394.98652 0.00041 0.00060
1392.93808 0.00045 0.00067
1390.88965 0.00049 0.00072
1388.84121 0.00048 0.00067
1386.79277 0.00046 0.00064
1384.74433 0.00049 0.00068
1382.69589 0.00053 0.00073
1380.64745 0.00052 0.00072
1378.59901 0.00049 0.00069
1376.55058 0.00045 0.00063
1374.50214 0.00042 0.00060
1372.45370 0.00043 0.00062
1370.40526 0.00047 0.00065
1368.35682 0.00049 0.00066
1366.30838 0.00048 0.00065
1364.25995 0.00044 0.00061
1362.21151 0.00041 0.00059
1360.16307 0.00044 0.00064
1358.11463 0.00047 0.00068
1356.06619 0.00047 0.00069
1354.01775 0.00048 0.00069
1351.96932 0.00049 0.00070
1349.92088 0.00049 0.00069
1347.87244 0.00049 0.00067
1345.82400 0.00049 0.00067
1343.77556 0.00048 0.00065
1341.72712 0.00045 0.00059
1339.67869 0.00041 0.00055
1337.63025 0.00041 0.00055
1335.58181 0.00045 0.00060
1333.53337 0.00047 0.00064
1331.48493 0.00048 0.00065
1329.43649 0.00049 0.00064
1327.38806 0.00049 0.00064
1325.33962 0.00049 0.00063
1323.29118 0.00048 0.00063
1321.24274 0.00045 0.00062
1319.19430 0.00043 0.00059
1317.14586 0.00044 0.00056
1315.09743 0.00046 0.00054
1313.04899 0.00046 0.00054
1311.00055 0.00047 0.00054
1308.95211 0.00048 0.00055
1306.90367 0.00048 0.00055
1304.85523 0.00048 0.00057
1302.80680 0.00049 0.00057
1300.75836 0.00048 0.00057
1298.70992 0.00047 0.00058
1296.66148 0.00047 0.00058
1294.61304 0.00047 0.00057
1292.56460 0.00047 0.00055
1290.51617 0.00046 0.00053
1288.46773 0.00047 0.00053
1286.41929 0.00048 0.00053
1284.37085 0.00047 0.00053
1282.32241 0.00047 0.00052
1280.27397 0.00046 0.00051
1278.22554 0.00046 0.00050
1276.17710 0.00046 0.00052
1274.12866 0.00045 0.00052
1272.08022 0.00045 0.00051
1270.03178 0.00045 0.00049
1267.98334 0.00045 0.00049
1265.93491 0.00046 0.00049
1263.88647 0.00047 0.00049
1261.83803 0.00047 0.00049
1259.78959 0.00047 0.00048
1257.74115 0.00047 0.00047
1255.69271 0.00047 0.00047
1253.64428 0.00048 0.00046
1251.59584 0.00048 0.00046
1249.54740 0.00048 0.00045
1247.49896 0.00048 0.00044
1245.45052 0.00048 0.00043
1243.40208 0.00049 0.00041
1241.35364 0.00050 0.00040
1239.30521 0.00049 0.00039
1237.25677 0.00048 0.00038
1235.20833 0.00047 0.00038
1233.15989 0.00047 0.00038
1231.11145 0.00048 0.00038
1229.06301 0.00049 0.00037
1227.01458 0.00049 0.00036
1224.96614 0.00048 0.00035
1222.91770 0.00049 0.00036
1220.86926 0.00050 0.00037
1218.82082 0.00051 0.00036
1216.77238 0.00051 0.00035
1214.72395 0.00052 0.00034
1212.67551 0.00051 0.00033
1210.62707 0.00051 0.00034
1208.57863 0.00052 0.00037
1206.53019 0.00053 0.00039
1204.48175 0.00053 0.00039
1202.43332 0.00053 0.00040
1200.38488 0.00053 0.00041
1198.33644 0.00053 0.00042
1196.28800 0.00053 0.00042
1194.23956 0.00053 0.00044
1192.19112 0.00052 0.00048
1190.14269 0.00051 0.00052
1188.09425 0.00050 0.00055
1186.04581 0.00050 0.00058
1183.99737 0.00050 0.00061
1181.94893 0.00051 0.00064
1179.90049 0.00052 0.00068
1177.85206 0.00052 0.00071
1175.80362 0.00051 0.00073
1173.75518 0.00050 0.00075
1171.70674 0.00050 0.00079
1169.65830 0.00051 0.00083
1167.60986 0.00050 0.00086
1165.56143 0.00050 0.00087
1163.51299 0.00051 0.00089
1161.46455 0.00053 0.00093
1159.41611 0.00054 0.00097
1157.36767 0.00054 0.00102
1155.31923 0.00054 0.00107
1153.27080 0.00053 0.00111
1151.22236 0.00054 0.00116
1149.17392 0.00054 0.00124
1147.12548 0.00054 0.00134
1145.07704 0.00054 0.00145
1143.02860 0.00055 0.00157
1140.98017 0.00056 0.00170
1138.93173 0.00057 0.00181
1136.88329 0.00058 0.00190
1134.83485 0.00058 0.00199
1132.78641 0.00058 0.00208
1130.73797 0.00058 0.00218
1128.68954 0.00058 0.00228
1126.64110 0.00059 0.00239
1124.59266 0.00058 0.00250
1122.54422 0.00057 0.00258
1120.49578 0.00057 0.00265
1118.44734 0.00059 0.00271
1116.39891 0.00060 0.00276
1114.35047 0.00061 0.00278
1112.30203 0.00061 0.00280
1110.25359 0.00061 0.00279
1108.20515 0.00061 0.00276
1106.15671 0.00061 0.00272
1104.10827 0.00060 0.00271
1102.05984 0.00059 0.00271
1100.01140 0.00059 0.00271
1097.96296 0.00060 0.00272
1095.91452 0.00060 0.00274
1093.86608 0.00060 0.00275
1091.81764 0.00059 0.00277
1089.76921 0.00058 0.00279
1087.72077 0.00057 0.00281
1085.67233 0.00058 0.00282
1083.62389 0.00060 0.00281
1081.57545 0.00061 0.00279
1079.52701 0.00062 0.00276
1077.47858 0.00064 0.00272
1075.43014 0.00065 0.00268
1073.38170 0.00065 0.00263
1071.33326 0.00065 0.00258
1069.28482 0.00066 0.00253
1067.23638 0.00066 0.00249
1065.18795 0.00067 0.00245
1063.13951 0.00070 0.00242
1061.09107 0.00074 0.00241
1059.04263 0.00077 0.00243
1056.99419 0.00079 0.00247
1054.94575 0.00080 0.00252
1052.89732 0.00082 0.00258
1050.84888 0.00083 0.00264
1048.80044 0.00084 0.00271
1046.75200 0.00085 0.00278
1044.70356 0.00085 0.00286
1042.65512 0.00085 0.00295
1040.60669 0.00085 0.00302
1038.55825 0.00086 0.00308
1036.50981 0.00088 0.00314
1034.46137 0.00088 0.00321
1032.41293 0.00088 0.00329
1030.36449 0.00088 0.00336
1028.31606 0.00087 0.00344
1026.26762 0.00086 0.00352
1024.21918 0.00086 0.00358
1022.17074 0.00087 0.00363
1020.12230 0.00088 0.00367
1018.07386 0.00089 0.00369
1016.02543 0.00089 0.00372
1013.97699 0.00090 0.00374
1011.92855 0.00092 0.00374
1009.88011 0.00092 0.00372
1007.83167 0.00092 0.00369
1005.78323 0.00092 0.00364
1003.73480 0.00091 0.00356
1001.68636 0.00090 0.00346
999.63792 0.00090 0.00336
997.58948 0.00090 0.00328
995.54104 0.00091 0.00324
993.49260 0.00091 0.00324
991.44417 0.00090 0.00329
989.39573 0.00089 0.00338
987.34729 0.00090 0.00350
985.29885 0.00091 0.00361
983.25041 0.00091 0.00373
981.20197 0.00089 0.00383
979.15354 0.00088 0.00392
977.10510 0.00087 0.00402
975.05666 0.00086 0.00412
973.00822 0.00084 0.00423
970.95978 0.00082 0.00433
968.91134 0.00081 0.00439
966.86290 0.00080 0.00442
964.81447 0.00079 0.00439
962.76603 0.00078 0.00432
960.71759 0.00077 0.00422
958.66915 0.00075 0.00409
956.62071 0.00073 0.00395
954.57227 0.00072 0.00383
952.52384 0.00072 0.00373
950.47540 0.00072 0.00363
948.42696 0.00071 0.00355
946.37852 0.00069 0.00347
944.33008 0.00067 0.00337
942.28164 0.00065 0.00328
940.23321 0.00064 0.00322
938.18477 0.00064 0.00317
936.13633 0.00065 0.00317
934.08789 0.00065 0.00322
932.03945 0.00065 0.00332
929.99101 0.00064 0.00345
927.94258 0.00064 0.00356
925.89414 0.00064 0.00363
923.84570 0.00065 0.00367
921.79726 0.00063 0.00369
919.74882 0.00061 0.00370
917.70038 0.00061 0.00369
915.65195 0.00061 0.00364
913.60351 0.00061 0.00358
911.55507 0.00060 0.00351
909.50663 0.00059 0.00344
907.45819 0.00060 0.00336
905.40975 0.00060 0.00328
903.36132 0.00061 0.00319
901.31288 0.00060 0.00310
899.26444 0.00059 0.00301
897.21600 0.00059 0.00293
895.16756 0.00058 0.00287
893.11912 0.00058 0.00283
891.07069 0.00058 0.00280
889.02225 0.00059 0.00278
886.97381 0.00061 0.00276
884.92537 0.00063 0.00275
882.87693 0.00062 0.00274
880.82849 0.00061 0.00271
878.78006 0.00060 0.00266
876.73162 0.00058 0.00260
874.68318 0.00056 0.00255
872.63474 0.00054 0.00251
870.58630 0.00052 0.00249
868.53786 0.00051 0.00246
866.48943 0.00051 0.00243
864.44099 0.00051 0.00239
862.39255 0.00050 0.00232
860.34411 0.00049 0.00224
858.29567 0.00048 0.00216
856.24723 0.00048 0.00205
854.19880 0.00048 0.00194
852.15036 0.00046 0.00182
850.10192 0.00044 0.00169
848.05348 0.00042 0.00158
846.00504 0.00041 0.00147
843.95660 0.00040 0.00137
841.90817 0.00040 0.00128
839.85973 0.00041 0.00122
837.81129 0.00040 0.00116
835.76285 0.00039 0.00111
833.71441 0.00039 0.00107
831.66597 0.00039 0.00104
829.61753 0.00038 0.00102
827.56910 0.00038 0.00102
825.52066 0.00038 0.00103
823.47222 0.00038 0.00101
821.42378 0.00037 0.00098
819.37534 0.00035 0.00095
817.32690 0.00036 0.00092
815.27847 0.00036 0.00089
813.23003 0.00036 0.00086
811.18159 0.00035 0.00084
809.13315 0.00035 0.00081
807.08471 0.00035 0.00077
805.03627 0.00034 0.00074
802.98784 0.00033 0.00071
800.93940 0.00033 0.00068
798.89096 0.00033 0.00066
796.84252 0.00032 0.00063
794.79408 0.00030 0.00061
792.74564 0.00029 0.00060
790.69721 0.00028 0.00058
788.64877 0.00029 0.00058
786.60033 0.00031 0.00059
784.55189 0.00032 0.00059
782.50345 0.00031 0.00058
780.45501 0.00029 0.00056
778.40658 0.00026 0.00054
776.35814 0.00025 0.00053
774.30970 0.00026 0.00052
772.26126 0.00026 0.00051
770.21282 0.00025 0.00049
768.16438 0.00024 0.00047
766.11595 0.00024 0.00045
764.06751 0.00024 0.00044
762.01907 0.00024 0.00043
759.97063 0.00023 0.00041
757.92219 0.00022 0.00040
755.87375 0.00022 0.00038
753.82532 0.00023 0.00036
751.77688 0.00024 0.00036
749.72844 0.00024 0.00037
747.68000 0.00024 0.00036
745.63156 0.00023 0.00035
743.58312 0.00022 0.00034
741.53469 0.00021 0.00034
739.48625 0.00021 0.00031
737.43781 0.00021 0.00029
735.38937 0.00021 0.00029
733.34093 0.00021 0.00030
731.29249 0.00022 0.00030
729.24406 0.00022 0.00030
727.19562 0.00022 0.00029
725.14718 0.00022 0.00030
723.09874 0.00021 0.00029
721.05030 0.00020 0.00027
719.00186 0.00017 0.00027
716.95343 0.00016 0.00028
714.90499 0.00017 0.00028
712.85655 0.00018 0.00026
710.80811 0.00018 0.00024
708.75967 0.00017 0.00023
706.71123 0.00016 0.00021
704.66280 0.00016 0.00020
702.61436 0.00015 0.00021
700.56592 0.00015 0.00021
698.51748 0.00015 0.00020
696.46904 0.00016 0.00018
694.42060 0.00016 0.00017
692.37216 0.00015 0.00016
690.32373 0.00013 0.00016
688.27529 0.00013 0.00015
686.22685 0.00014 0.00014
684.17841 0.00015 0.00014
682.12997 0.00014 0.00013
680.08153 0.00013 0.00011
678.03310 0.00011 0.00011
675.98466 0.00011 0.00011
673.93622 0.00011 0.00012
671.88778 0.00010 0.00011
669.83934 0.00008 0.00009
667.79090 0.00007 0.00008
665.74247 0.00008 0.00009
663.69403 0.00009 0.00010
661.64559 0.00009 0.00009
659.59715 0.00008 0.00008
657.54871 0.00009 0.00008
655.50027 0.00009 0.00009
653.45184 0.00010 0.00009
651.40340 0.00010 0.00008
649.35496 0.00008 0.00007
647.30652 0.00007 0.00007
645.25808 0.00007 0.00008
643.20964 0.00009 0.00008
641.16121 0.00010 0.00009
639.11277 0.00009 0.00010
637.06433 0.00008 0.00009
635.01589 0.00007 0.00007
632.96745 0.00006 0.00005
630.91901 0.00006 0.00005
628.87058 0.00006 0.00005
626.82214 0.00007 0.00004
624.77370 0.00008 0.00004
622.72526 0.00007 0.00004
620.67682 0.00005 0.00005
618.62838 0.00005 0.00005
616.57995 0.00004 0.00005
614.53151 0.00003 0.00004
612.48307 0.00003 0.00004
610.43463 0.00003 0.00005
608.38619 0.00004 0.00006
606.33775 0.00004 0.00006
604.28932 0.00005 0.00005
602.24088 0.00005 0.00003
600.19244 0.00004 0.00004
598.14400 0.00003 0.00005
